PPG,time
0.160073269859731,2034.69324445423
0.312306643232653,2034.70324445423
0.268616003966845,2034.71324445423
0.28197002423117,2034.72324445423
0.260454829514503,2034.73324445423
0.259357867747584,2034.74324445423
0.243837513909109,2034.75324445423
0.235639708179067,2034.76324445423
0.221923941496304,2034.77324445423
0.210174199773941,2034.78324445423
0.196374670762899,2034.79324445423
0.182142694882134,2034.80324445423
0.167251929488414,2034.81324445423
0.151306201540766,2034.82324445423
0.135481024345402,2034.83324445423
0.120390099264448,2034.84324445423
0.10610177467804,2034.85324445423
0.093210204127181,2034.86324445423
0.0805884129762253,2034.87324445423
0.0685798200780377,2034.88324445423
0.0568532924794481,2034.89324445423
0.0455035734956266,2034.90324445423
0.0344396938651374,2034.91324445423
0.0237874909640201,2034.92324445423
0.0132795315387284,2034.93324445423
0.00291179621515693,2034.94324445423
-0.00698847019469644,2034.95324445423
-0.0172616996727918,2034.96324445423
-0.0265487091476286,2034.97324445423
-0.0357681236630512,2034.98324445423
-0.0456540246416648,2034.99324445423
-0.0548800153951572,2035.00324445423
-0.0642396355779912,2035.01324445423
-0.0736078888849202,2035.02324445423
-0.0826129948962843,2035.03324445423
-0.0907410583481238,2035.04324445423
-0.0990742336992027,2035.05324445423
-0.107372173770788,2035.06324445423
-0.116059835431912,2035.07324445423
-0.124971273764867,2035.08324445423
-0.132708310821423,2035.09324445423
-0.140032459154655,2035.10324445423
-0.146850143932304,2035.11324445423
-0.153461459960115,2035.12324445423
-0.160067414911811,2035.13324445423
-0.166800186114463,2035.14324445423
-0.173347725580386,2035.15324445423
-0.179684514987523,2035.16324445423
-0.186377930692789,2035.17324445423
-0.193144285319972,2035.18324445423
-0.201263796875286,2035.19324445423
-0.210159431566859,2035.20324445423
-0.219612260221344,2035.21324445423
-0.229546756415308,2035.22324445423
-0.239992171072026,2035.23324445423
-0.249452061939587,2035.24324445423
-0.258302532537011,2035.25324445423
-0.265906523349866,2035.26324445423
-0.270943628009756,2035.27324445423
-0.271977077575412,2035.28324445423
-0.264982773663174,2035.29324445423
-0.246717105172084,2035.30324445423
-0.214604476910464,2035.31324445423
-0.169250056963781,2035.32324445423
-0.112798288590324,2035.33324445423
-0.0494829201614194,2035.34324445423
0.0152375328293663,2035.35324445423
0.0764525147198787,2035.36324445423
0.129830724415113,2035.37324445423
0.174003534279604,2035.38324445423
0.206314123320924,2035.39324445423
0.227879650350144,2035.40324445423
0.240159370176305,2035.41324445423
0.244677849487956,2035.42324445423
0.243959991834209,2035.43324445423
0.240055213532062,2035.44324445423
0.234131084987371,2035.45324445423
0.228571278094431,2035.46324445423
0.223256941624593,2035.47324445423
0.219260317612782,2035.48324445423
0.216514846299885,2035.49324445423
0.214593655035533,2035.50324445423
0.214070849357411,2035.51324445423
0.214062658338792,2035.52324445423
0.214896436741919,2035.53324445423
0.215677601545953,2035.54324445423
0.215682510878812,2035.55324445423
0.214922312319237,2035.56324445423
0.212373064752827,2035.57324445423
0.207075923986238,2035.58324445423
0.199156258551276,2035.59324445423
0.188254612879433,2035.60324445423
0.17520278154328,2035.61324445423
0.162091024815978,2035.62324445423
0.149918739204187,2035.63324445423
0.140367967132288,2035.64324445423
0.133013177369292,2035.65324445423
0.127964011107165,2035.66324445423
0.124909000344486,2035.67324445423
0.123706294489347,2035.68324445423
0.123015949030998,2035.69324445423
0.123256413017341,2035.70324445423
0.12252930550286,2035.71324445423
0.120915197218339,2035.72324445423
0.118283008296225,2035.73324445423
0.114166574979242,2035.74324445423
0.109865068888711,2035.75324445423
0.104655345808036,2035.76324445423
0.0987215055266694,2035.77324445423
0.0919296904445334,2035.78324445423
0.0846453811651553,2035.79324445423
0.0768853469219713,2035.80324445423
0.0679281021492606,2035.81324445423
0.0583135861070934,2035.82324445423
0.0480835424949807,2035.83324445423
0.0369856515222377,2035.84324445423
0.0251959732857951,2035.85324445423
0.0128487518166805,2035.86324445423
0.000247651551716571,2035.87324445423
-0.0123883126178429,2035.88324445423
-0.0249903753320449,2035.89324445423
-0.0371750427923726,2035.90324445423
-0.0493081919198607,2035.91324445423
-0.0602975426488566,2035.92324445423
-0.0709411791632699,2035.93324445423
-0.0813910030372706,2035.94324445423
-0.0915833365248675,2035.95324445423
-0.101884899834526,2035.96324445423
-0.11200270400035,2035.97324445423
-0.122630542544547,2035.98324445423
-0.133279478508173,2035.99324445423
-0.144556847136323,2036.00324445423
-0.15539760490946,2036.01324445423
-0.166438407821125,2036.02324445423
-0.1774921307154,2036.03324445423
-0.188325841780176,2036.04324445423
-0.198739235146092,2036.05324445423
-0.208976137448155,2036.06324445423
-0.218818958002834,2036.07324445423
-0.228099445971526,2036.08324445423
-0.237389473262062,2036.09324445423
-0.245909250182464,2036.10324445423
-0.254021170692045,2036.11324445423
-0.261525873165978,2036.12324445423
-0.268616818893836,2036.13324445423
-0.275038425687415,2036.14324445423
-0.281169314754151,2036.15324445423
-0.287231347450565,2036.16324445423
-0.293345801714971,2036.17324445423
-0.299567105103371,2036.18324445423
-0.306207377463793,2036.19324445423
-0.312904522369572,2036.20324445423
-0.319815363184029,2036.21324445423
-0.327211851143772,2036.22324445423
-0.33458300463936,2036.23324445423
-0.341657640608998,2036.24324445423
-0.348211732458896,2036.25324445423
-0.353890590750385,2036.26324445423
-0.359001838478007,2036.27324445423
-0.363749366907825,2036.28324445423
-0.367380313376458,2036.29324445423
-0.367778997021042,2036.30324445423
-0.36176419378715,2036.31324445423
-0.345960356878337,2036.32324445423
-0.318546891323363,2036.33324445423
-0.278770258602587,2036.34324445423
-0.228607839214828,2036.35324445423
-0.172098146414556,2036.36324445423
-0.114012949507963,2036.37324445423
-0.0588231092686294,2036.38324445423
-0.010078036478489,2036.39324445423
0.0295390152762595,2036.40324445423
0.0594160269583671,2036.41324445423
0.0796492699173638,2036.42324445423
0.0913938637578564,2036.43324445423
0.0968905767011479,2036.44324445423
0.097383660125287,2036.45324445423
0.0943285177685342,2036.46324445423
0.0893921373575997,2036.47324445423
0.084228333961484,2036.48324445423
0.079729491539654,2036.49324445423
0.0756692232624197,2036.50324445423
0.0725834668143368,2036.51324445423
0.0702336569610354,2036.52324445423
0.0693298428602952,2036.53324445423
0.0694158416467053,2036.54324445423
0.0701691835144337,2036.55324445423
0.071280917364417,2036.56324445423
0.072684966733156,2036.57324445423
0.0727462215519715,2036.58324445423
0.0711037337458676,2036.59324445423
0.0654139125709199,2036.60324445423
0.056304015222869,2036.61324445423
0.0446226088458476,2036.62324445423
0.0319479517403981,2036.63324445423
0.0198442768435601,2036.64324445423
0.00921244134045171,2036.65324445423
0.00132119871422158,2036.66324445423
-0.00359438741456501,2036.67324445423
-0.00511549745975231,2036.68324445423
-0.00348498057951488,2036.69324445423
0.000407708212924983,2036.70324445423
0.00585270714433608,2036.71324445423
0.0114169592505312,2036.72324445423
0.0161888199221408,2036.73324445423
0.0187205594001499,2036.74324445423
0.0202241549671544,2036.75324445423
0.0194850344392303,2036.76324445423
0.0165218530200745,2036.77324445423
0.0110153797018784,2036.78324445423
0.00317244086986605,2036.79324445423
-0.00700707514473526,2036.80324445423
-0.0184749412012476,2036.81324445423
-0.0306341777520495,2036.82324445423
-0.0433365467888455,2036.83324445423
-0.0560142500683203,2036.84324445423
-0.0681022082170356,2036.85324445423
-0.0796417478138766,2036.86324445423
-0.0909769910459462,2036.87324445423
-0.102258951977552,2036.88324445423
-0.112658644891277,2036.89324445423
-0.123214703821951,2036.90324445423
-0.133229124605513,2036.91324445423
-0.143516257752812,2036.92324445423
-0.153819067236916,2036.93324445423
-0.163446388660683,2036.94324445423
-0.172875115927863,2036.95324445423
-0.181530598881978,2036.96324445423
-0.190251931730653,2036.97324445423
-0.19869948188038,2036.98324445423
-0.206427412522626,2036.99324445423
-0.21378480110518,2037.00324445423
-0.221172963636682,2037.01324445423
-0.227765083941036,2037.02324445423
-0.234279302376818,2037.03324445423
-0.241707197513269,2037.04324445423
-0.24943377227337,2037.05324445423
-0.257302280295895,2037.06324445423
-0.264937366813693,2037.07324445423
-0.272196246811744,2037.08324445423
-0.279014834268193,2037.09324445423
-0.285999511765874,2037.10324445423
-0.29195764480434,2037.11324445423
-0.29782278973066,2037.12324445423
-0.302909416823753,2037.13324445423
-0.308420444700375,2037.14324445423
-0.313321911999825,2037.15324445423
-0.317987686080277,2037.16324445423
-0.32288153076043,2037.17324445423
-0.327205913509764,2037.18324445423
-0.331835083996768,2037.19324445423
-0.336584780241253,2037.20324445423
-0.340798329701181,2037.21324445423
-0.34449824253995,2037.22324445423
-0.348326697551473,2037.23324445423
-0.353263036914333,2037.24324445423
-0.35957647545627,2037.25324445423
-0.366647833004335,2037.26324445423
-0.373841563725971,2037.27324445423
-0.380748732010534,2037.28324445423
-0.38715404463544,2037.29324445423
-0.392367011735538,2037.30324445423
-0.394932111026444,2037.31324445423
-0.392978191209104,2037.32324445423
-0.384047296011254,2037.33324445423
-0.365541310441639,2037.34324445423
-0.334692944955803,2037.35324445423
-0.292122250751534,2037.36324445423
-0.240074505530346,2037.37324445423
-0.183171500504305,2037.38324445423
-0.125334684600137,2037.39324445423
-0.0713862836290315,2037.40324445423
-0.024493905331304,2037.41324445423
0.0138442693083277,2037.42324445423
0.0427408284111864,2037.43324445423
0.0628483069702884,2037.44324445423
0.0746526022187629,2037.45324445423
0.0799665392243315,2037.46324445423
0.0804154350306834,2037.47324445423
0.0785451521574797,2037.48324445423
0.0745082753312817,2037.49324445423
0.0710039886457826,2037.50324445423
0.0682827179947186,2037.51324445423
0.0670065571102304,2037.52324445423
0.0674629211509295,2037.53324445423
0.0692136977547222,2037.54324445423
0.0727353507827688,2037.55324445423
0.0771659491778284,2037.56324445423
0.0820954519080876,2037.57324445423
0.0878079315174963,2037.58324445423
0.0928115050608738,2037.59324445423
0.096739163812306,2037.60324445423
0.0982946047966459,2037.61324445423
0.0971307591672318,2037.62324445423
0.0922386544687415,2037.63324445423
0.0846416792244108,2037.64324445423
0.0744363812035977,2037.65324445423
0.0621950309544381,2037.66324445423
0.0510285044103142,2037.67324445423
0.0416018096564105,2037.68324445423
0.0348282691010617,2037.69324445423
0.030984915794445,2037.70324445423
0.0294733588555833,2037.71324445423
0.0299740521793631,2037.72324445423
0.0325702893340648,2037.73324445423
0.0352622879008395,2037.74324445423
0.0380512966474593,2037.75324445423
0.0402875539511306,2037.76324445423
0.0413796215488792,2037.77324445423
0.0419425158556729,2037.78324445423
0.0407553571025092,2037.79324445423
0.0373617895764325,2037.80324445423
0.0323009287059085,2037.81324445423
0.0258160963421663,2037.82324445423
0.0178344419905884,2037.83324445423
0.00832438345980484,2037.84324445423
-0.00144408665279268,2037.85324445423
-0.0117986886748104,2037.86324445423
-0.0221640112080327,2037.87324445423
-0.0320206080959309,2037.88324445423
-0.0416553042283498,2037.89324445423
-0.0514204341206104,2037.90324445423
-0.0610928640711343,2037.91324445423
-0.0698724768832021,2037.92324445423
-0.078919827347131,2037.93324445423
-0.0882321166056259,2037.94324445423
-0.0971689863583095,2037.95324445423
-0.105960574134401,2037.96324445423
-0.114052691707943,2037.97324445423
-0.121881367853762,2037.98324445423
-0.129376659528613,2037.99324445423
-0.136599857007206,2038.00324445423
-0.144386622793688,2038.01324445423
-0.152030686057326,2038.02324445423
-0.159494259550942,2038.03324445423
-0.166553911942044,2038.04324445423
-0.173889360380847,2038.05324445423
-0.180584631429495,2038.06324445423
-0.187396065679539,2038.07324445423
-0.193835041940415,2038.08324445423
-0.199991051020666,2038.09324445423
-0.206277745131645,2038.10324445423
-0.212485403049468,2038.11324445423
-0.218551159936965,2038.12324445423
-0.224854009694918,2038.13324445423
-0.231494561875469,2038.14324445423
-0.238507934513394,2038.15324445423
-0.24562273003914,2038.16324445423
-0.25226738598523,2038.17324445423
-0.25830661592557,2038.18324445423
-0.263775109583985,2038.19324445423
-0.268431808530994,2038.20324445423
-0.272813895793277,2038.21324445423
-0.276854270924464,2038.22324445423
-0.280633511723856,2038.23324445423
-0.283830127573323,2038.24324445423
-0.287711869023017,2038.25324445423
-0.291696350144588,2038.26324445423
-0.296261453501475,2038.27324445423
-0.301112066919295,2038.28324445423
-0.306136837670078,2038.29324445423
-0.311043552529577,2038.30324445423
-0.316735911419738,2038.31324445423
-0.322936217901808,2038.32324445423
-0.328881459487024,2038.33324445423
-0.335282721565951,2038.34324445423
-0.341436863017137,2038.35324445423
-0.347847306918712,2038.36324445423
-0.353130868344445,2038.37324445423
-0.357315205601577,2038.38324445423
-0.359347870660263,2038.39324445423
-0.356106031007618,2038.40324445423
-0.345687698939075,2038.41324445423
-0.323889651730426,2038.42324445423
-0.289654876288435,2038.43324445423
-0.243489633977221,2038.44324445423
-0.188763762918839,2038.45324445423
-0.13034197188672,2038.46324445423
-0.0722413625491279,2038.47324445423
-0.0191256927318317,2038.48324445423
0.0258369591630355,2038.49324445423
0.0619376852863397,2038.50324445423
0.0883182046609607,2038.51324445423
0.106224797157971,2038.52324445423
0.116984286045652,2038.53324445423
0.122753379320339,2038.54324445423
0.124805357762541,2038.55324445423
0.125033608058059,2038.56324445423
0.124624180488275,2038.57324445423
0.124134618307775,2038.58324445423
0.123570230957014,2038.59324445423
0.123463845038838,2038.60324445423
0.123922718482557,2038.61324445423
0.125096841740294,2038.62324445423
0.12746246688131,2038.63324445423
0.131204280832566,2038.64324445423
0.136000204401939,2038.65324445423
0.141615165994855,2038.66324445423
0.146839800268591,2038.67324445423
0.151423174998793,2038.68324445423
0.153138642525832,2038.69324445423
0.152385243083269,2038.70324445423
0.147771690310613,2038.71324445423
0.14009086774825,2038.72324445423
0.129982648054544,2038.73324445423
0.118777396788043,2038.74324445423
0.108699464978061,2038.75324445423
0.100585493688388,2038.76324445423
0.095844387745618,2038.77324445423
0.0939014545024311,2038.78324445423
0.0943721879583213,2038.79324445423
0.0967349677522867,2038.80324445423
0.100365561708695,2038.81324445423
0.103953205324522,2038.82324445423
0.107030815745427,2038.83324445423
0.109540303634681,2038.84324445423
0.111131918806014,2038.85324445423
0.111269483662229,2038.86324445423
0.10975520993261,2038.87324445423
0.106053473572451,2038.88324445423
0.101214016280679,2038.89324445423
0.0949349270821154,2038.90324445423
0.0877689517639502,2038.91324445423
0.0802781792461355,2038.92324445423
0.0713100680028526,2038.93324445423
0.0616047480777934,2038.94324445423
0.0516869890843704,2038.95324445423
0.0417259490459309,2038.96324445423
0.0315205573532065,2038.97324445423
0.0218456815287714,2038.98324445423
0.012317112300088,2038.99324445423
0.0030591345484773,2039.00324445423
-0.00585656198464541,2039.01324445423
-0.0149880952972723,2039.02324445423
-0.0238879483207555,2039.03324445423
-0.0330472079545962,2039.04324445423
-0.042007683204449,2039.05324445423
-0.0507458731892983,2039.06324445423
-0.0591659586117649,2039.07324445423
-0.0670578471346668,2039.08324445423
-0.0746763840757293,2039.09324445423
-0.0818634553342022,2039.10324445423
-0.088363444970707,2039.11324445423
-0.0951798106745894,2039.12324445423
-0.101547188289241,2039.13324445423
-0.108037478920861,2039.14324445423
-0.114348611752454,2039.15324445423
-0.120496065551602,2039.16324445423
-0.126416988670058,2039.17324445423
-0.132512555399887,2039.18324445423
-0.138629213998057,2039.19324445423
-0.144873275939474,2039.20324445423
-0.151120012209355,2039.21324445423
-0.15781163455065,2039.22324445423
-0.163933483894866,2039.23324445423
-0.170206486046419,2039.24324445423
-0.176504390770942,2039.25324445423
-0.182663950318002,2039.26324445423
-0.188696486656711,2039.27324445423
-0.193744086668047,2039.28324445423
-0.197733802488406,2039.29324445423
-0.201403823943296,2039.30324445423
-0.204777247847768,2039.31324445423
-0.208459280230014,2039.32324445423
-0.212352103902782,2039.33324445423
-0.216793278804003,2039.34324445423
-0.221552153879079,2039.35324445423
-0.226830348775269,2039.36324445423
-0.232463708180897,2039.37324445423
-0.238883655299901,2039.38324445423
-0.245566330386995,2039.39324445423
-0.25237642795135,2039.40324445423
-0.259161941964558,2039.41324445423
-0.265080183054025,2039.42324445423
-0.270035217860105,2039.43324445423
-0.273593668705358,2039.44324445423
-0.27425324759636,2039.45324445423
-0.269922170123521,2039.46324445423
-0.256941420185461,2039.47324445423
-0.233299717749711,2039.48324445423
-0.197526828031614,2039.49324445423
-0.151536135067627,2039.50324445423
-0.0992565270664381,2039.51324445423
-0.0444407788574905,2039.52324445423
0.00810000236277253,2039.53324445423
0.0554448252919803,2039.54324445423
0.0950168505516607,2039.55324445423
0.126146793073695,2039.56324445423
0.148498058580028,2039.57324445423
0.163016582575454,2039.58324445423
0.170948902799396,2039.59324445423
0.17392238850596,2039.60324445423
0.1746241644582,2039.61324445423
0.174270923383351,2039.62324445423
0.173805999997513,2039.63324445423
0.174541937033663,2039.64324445423
0.176223467517726,2039.65324445423
0.179281968902245,2039.66324445423
0.182633301088584,2039.67324445423
0.185946384667389,2039.68324445423
0.189462141508923,2039.69324445423
0.192560643320361,2039.70324445423
0.194938679596027,2039.71324445423
0.197151095290687,2039.72324445423
0.198099150306708,2039.73324445423
0.197534323172898,2039.74324445423
0.194851717852062,2039.75324445423
0.18928338598315,2039.76324445423
0.181717575424572,2039.77324445423
0.172576282237728,2039.78324445423
0.162656224584462,2039.79324445423
0.153020524873963,2039.80324445423
0.14481994844802,2039.81324445423
0.138700605418028,2039.82324445423
0.135228119609171,2039.83324445423
0.134536850522162,2039.84324445423
0.136495701776075,2039.85324445423
0.139824758096999,2039.86324445423
0.143798902863993,2039.87324445423
0.147221487927466,2039.88324445423
0.149402818055226,2039.89324445423
0.150073171509312,2039.90324445423
0.149089981369555,2039.91324445423
0.146610138276665,2039.92324445423
0.143090652043035,2039.93324445423
0.13860738735828,2039.94324445423
0.133935646296866,2039.95324445423
0.128582523853773,2039.96324445423
0.122761618046788,2039.97324445423
0.115977097406286,2039.98324445423
0.107984763821804,2039.99324445423
0.0989796910879794,2040.00324445423
0.0891708298782308,2040.01324445423
0.0792587889948406,2040.02324445423
0.0695363173493038,2040.03324445423
0.0600874429597028,2040.04324445423
0.0503352582379726,2040.05324445423
0.0408922433918244,2040.06324445423
0.0312497365431722,2040.07324445423
0.0217617538868797,2040.08324445423
0.0123546688819798,2040.09324445423
0.00286986553858117,2040.10324445423
-0.00621899862094454,2040.11324445423
-0.015467022336397,2040.12324445423
-0.024302437255939,2040.13324445423
-0.0322642723615751,2040.14324445423
-0.0395278034622146,2040.15324445423
-0.0464429535031326,2040.16324445423
-0.0524764494733829,2040.17324445423
-0.0582454946058288,2040.18324445423
-0.0641824088765399,2040.19324445423
-0.0704730871885655,2040.20324445423
-0.07737469328995,2040.21324445423
-0.084982310109392,2040.22324445423
-0.0925680485861509,2040.23324445423
-0.100465026847012,2040.24324445423
-0.108248535337637,2040.25324445423
-0.115662591425504,2040.26324445423
-0.122634966726869,2040.27324445423
-0.129516538368898,2040.28324445423
-0.13583628958093,2040.29324445423
-0.141053425412369,2040.30324445423
-0.145504553768687,2040.31324445423
-0.148990674872634,2040.32324445423
-0.152311211745897,2040.33324445423
-0.155538930943,2040.34324445423
-0.159657958251147,2040.35324445423
-0.164635547461575,2040.36324445423
-0.170355928132208,2040.37324445423
-0.17665337959099,2040.38324445423
-0.183136812005707,2040.39324445423
-0.189676727363674,2040.40324445423
-0.196300484258057,2040.41324445423
-0.202846253696884,2040.42324445423
-0.208861427476863,2040.43324445423
-0.214640510149576,2040.44324445423
-0.219282392314306,2040.45324445423
-0.222660674341908,2040.46324445423
-0.223936352130094,2040.47324445423
-0.220771566516639,2040.48324445423
-0.210304430110966,2040.49324445423
-0.189164874937267,2040.50324445423
-0.15635136609244,2040.51324445423
-0.113181212068103,2040.52324445423
-0.0631484810706737,2040.53324445423
-0.0108044176212141,2040.54324445423
0.0396896407509955,2040.55324445423
0.084064976064213,2040.56324445423
0.120612814814815,2040.57324445423
0.148072560862871,2040.58324445423
0.167290716734188,2040.59324445423
0.179321374339384,2040.60324445423
0.185381275567823,2040.61324445423
0.186564110212893,2040.62324445423
0.185338059222952,2040.63324445423
0.182650840472068,2040.64324445423
0.179946393574446,2040.65324445423
0.177919642213993,2040.66324445423
0.176998306054824,2040.67324445423
0.177159554651032,2040.68324445423
0.177639765090919,2040.69324445423
0.178932998521883,2040.70324445423
0.180744287886817,2040.71324445423
0.183050120439655,2040.72324445423
0.185224595068498,2040.73324445423
0.187213718257186,2040.74324445423
0.18824414179847,2040.75324445423
0.186805119319471,2040.76324445423
0.182463527284072,2040.77324445423
0.174863739134478,2040.78324445423
0.164324341877484,2040.79324445423
0.152291507885771,2040.80324445423
0.140267832128951,2040.81324445423
0.12931368525781,2040.82324445423
0.121537755269396,2040.83324445423
0.1166809253508,2040.84324445423
0.115631938022158,2040.85324445423
0.117435367950242,2040.86324445423
0.12069952961825,2040.87324445423
0.124997205555291,2040.88324445423
0.129292929873297,2040.89324445423
0.133051197762873,2040.90324445423
0.135524826930868,2040.91324445423
0.137317261731722,2040.92324445423
0.137459237389554,2040.93324445423
0.135731048066953,2040.94324445423
0.132116446244611,2040.95324445423
0.126792148108638,2040.96324445423
0.119357871506307,2040.97324445423
0.110580974355796,2040.98324445423
0.101035043481091,2040.99324445423
0.0910022341192518,2041.00324445423
0.0808911333204802,2041.01324445423
0.0713456234990087,2041.02324445423
0.0619417220350185,2041.03324445423
0.0524866953661143,2041.04324445423
0.0436239469214615,2041.05324445423
0.0353042359112877,2041.06324445423
0.0266763444913131,2041.07324445423
0.0176834007696811,2041.08324445423
0.00831699292880367,2041.09324445423
-0.00146398116760775,2041.10324445423
-0.0111802286212536,2041.11324445423
-0.0202988548468465,2041.12324445423
-0.0288283406986665,2041.13324445423
-0.0366993196314237,2041.14324445423
-0.0442606667421326,2041.15324445423
-0.0514150268445736,2041.16324445423
-0.0584452092524462,2041.17324445423
-0.0653233834160134,2041.18324445423
-0.0714576440387012,2041.19324445423
-0.0770471443055626,2041.20324445423
-0.0826589542086996,2041.21324445423
-0.0877638756678184,2041.22324445423
-0.0931054132928119,2041.23324445423
-0.0991151437098375,2041.24324445423
-0.10535552526666,2041.25324445423
-0.111736211710768,2041.26324445423
-0.11854679386826,2041.27324445423
-0.125428778301162,2041.28324445423
-0.132426238086646,2041.29324445423
-0.139145346774536,2041.30324445423
-0.145809129254108,2041.31324445423
-0.152368852007325,2041.32324445423
-0.158245404837929,2041.33324445423
-0.164175411896084,2041.34324445423
-0.169048253804629,2041.35324445423
-0.173506515971364,2041.36324445423
-0.177610638800488,2041.37324445423
-0.181571300564372,2041.38324445423
-0.185478297439341,2041.39324445423
-0.189703761324175,2041.40324445423
-0.194767085541763,2041.41324445423
-0.199960678030363,2041.42324445423
-0.205623264166111,2041.43324445423
-0.211097134783895,2041.44324445423
-0.216660826019052,2041.45324445423
-0.222709839964514,2041.46324445423
-0.228907271997521,2041.47324445423
-0.235785794616386,2041.48324445423
-0.242660796432945,2041.49324445423
-0.248901870105329,2041.50324445423
-0.253401067430284,2041.51324445423
-0.255968277798211,2041.52324445423
-0.254269289415764,2041.53324445423
-0.245547009790404,2041.54324445423
-0.227829796384837,2041.55324445423
-0.198398246364988,2041.56324445423
-0.157748775761626,2041.57324445423
-0.107711337368682,2041.58324445423
-0.0526649663530677,2041.59324445423
0.00181921773373927,2041.60324445423
0.0522711682262123,2041.61324445423
0.0948104491187585,2041.62324445423
0.129143087068534,2041.63324445423
0.154815980457245,2041.64324445423
0.172645580596622,2041.65324445423
0.183759687472825,2041.66324445423
0.188963637729483,2041.67324445423
0.190333343630233,2041.68324445423
0.189556756295066,2041.69324445423
0.188966150343758,2041.70324445423
0.18938199637889,2041.71324445423
0.191629901149322,2041.72324445423
0.196480784779044,2041.73324445423
0.202633889404177,2041.74324445423
0.209853185358002,2041.75324445423
0.216419787442617,2041.76324445423
0.222435298002608,2041.77324445423
0.228015046674233,2041.78324445423
0.23278471836372,2041.79324445423
0.236685151879085,2041.80324445423
0.239161015168089,2041.81324445423
0.239528971576571,2041.82324445423
0.237477717331001,2041.83324445423
0.232334551477108,2041.84324445423
0.224697925300319,2041.85324445423
0.214863655680796,2041.86324445423
0.204018057055736,2041.87324445423
0.193381070806158,2041.88324445423
0.184374750998354,2041.89324445423
0.17787234807297,2041.90324445423
0.173904957859639,2041.91324445423
0.172779263298193,2041.92324445423
0.174740224988481,2041.93324445423
0.178439442608921,2041.94324445423
0.182943201943317,2041.95324445423
0.187353168808502,2041.96324445423
0.190838226771136,2041.97324445423
0.193113552248223,2041.98324445423
0.193972421395443,2041.99324445423
0.193905925260002,2042.00324445423
0.192131989955999,2042.01324445423
0.189032980019125,2042.02324445423
0.184741994655488,2042.03324445423
0.178701855380046,2042.04324445423
0.170887848306899,2042.05324445423
0.162033138524463,2042.06324445423
0.152477380781618,2042.07324445423
0.142558853268127,2042.08324445423
0.132206433586284,2042.09324445423
0.122491910523375,2042.10324445423
0.113171189284715,2042.11324445423
0.104048062590729,2042.12324445423
0.0948829636029896,2042.13324445423
0.0856721442316214,2042.14324445423
0.0759713402472101,2042.15324445423
0.0662418648974375,2042.16324445423
0.0567461611080562,2042.17324445423
0.0471002096038963,2042.18324445423
0.0383950265651608,2042.19324445423
0.0297383475579819,2042.20324445423
0.0221195349636129,2042.21324445423
0.0141412235450307,2042.22324445423
0.00622457995851856,2042.23324445423
-0.00109918038796451,2042.24324445423
-0.00862534209919661,2042.25324445423
-0.0151822953831949,2042.26324445423
-0.0221475886017926,2042.27324445423
-0.028981085874351,2042.28324445423
-0.0357910279032311,2042.29324445423
-0.0425019836892496,2042.30324445423
-0.0492892093820787,2042.31324445423
-0.0555973716479868,2042.32324445423
-0.0622245011843268,2042.33324445423
-0.068475555302904,2042.34324445423
-0.0746195027555767,2042.35324445423
-0.0807598920244595,2042.36324445423
-0.0867147751569324,2042.37324445423
-0.0925504339151115,2042.38324445423
-0.0989841794577466,2042.39324445423
-0.105588355238308,2042.40324445423
-0.111989573391395,2042.41324445423
-0.118358420364633,2042.42324445423
-0.124462065016769,2042.43324445423
-0.130061942756693,2042.44324445423
-0.134529728194687,2042.45324445423
-0.138708800081205,2042.46324445423
-0.142852283396313,2042.47324445423
-0.1472956227905,2042.48324445423
-0.152485983188389,2042.49324445423
-0.158132025370221,2042.50324445423
-0.164598993749912,2042.51324445423
-0.171535375816085,2042.52324445423
-0.178417947124169,2042.53324445423
-0.185569564330912,2042.54324445423
-0.192157442008122,2042.55324445423
-0.197986679173549,2042.56324445423
-0.203223613907975,2042.57324445423
-0.20769014039621,2042.58324445423
-0.211207039445033,2042.59324445423
-0.212967868586009,2042.60324445423
-0.210985331900412,2042.61324445423
-0.20216397841219,2042.62324445423
-0.183362924261761,2042.63324445423
-0.152932902136281,2042.64324445423
-0.110988039217139,2042.65324445423
-0.0598672647422465,2042.66324445423
-0.00452776253017379,2042.67324445423
0.0506754081651845,2042.68324445423
0.10115210504515,2042.69324445423
0.144838502311605,2042.70324445423
0.180116036846078,2042.71324445423
0.206550464167607,2042.72324445423
0.224930264886459,2042.73324445423
0.236488682697735,2042.74324445423
0.242417771832238,2042.75324445423
0.244614594416093,2042.76324445423
0.244514291360617,2042.77324445423
0.244463010997471,2042.78324445423
0.244856030002929,2042.79324445423
0.246942498235359,2042.80324445423
0.250076538998738,2042.81324445423
0.254049214255758,2042.82324445423
0.259246486486462,2042.83324445423
0.264614159129207,2042.84324445423
0.26998719117372,2042.85324445423
0.275487824452814,2042.86324445423
0.281086467360052,2042.87324445423
0.285269333077627,2042.88324445423
0.288112342837343,2042.89324445423
0.288871689105081,2042.90324445423
0.286030711803089,2042.91324445423
0.28025625411016,2042.92324445423
0.271605654284447,2042.93324445423
0.261361435484981,2042.94324445423
0.25103312825335,2042.95324445423
0.241818873935655,2042.96324445423
0.234723510257027,2042.97324445423
0.230262387712867,2042.98324445423
0.228158217531766,2042.99324445423
0.22853559600215,2043.00324445423
0.230994619669931,2043.01324445423
0.234442687111797,2043.02324445423
0.238636731241023,2043.03324445423
0.241797170430305,2043.04324445423
0.244215147863292,2043.05324445423
0.245351864750691,2043.06324445423
0.245341000217961,2043.07324445423
0.243873165814353,2043.08324445423
0.240920895257109,2043.09324445423
0.236188903755439,2043.10324445423
0.229206537578,2043.11324445423
0.220712460680647,2043.12324445423
0.210683796239803,2043.13324445423
0.200077600011247,2043.14324445423
0.189057568359175,2043.15324445423
0.178678349269936,2043.16324445423
0.168879961651677,2043.17324445423
0.159381949794282,2043.18324445423
0.150090236292545,2043.19324445423
0.140823470532588,2043.20324445423
0.131461253343305,2043.21324445423
0.121883149248037,2043.22324445423
0.112227129603861,2043.23324445423
0.10199148399662,2043.24324445423
0.0919211975548979,2043.25324445423
0.0824820511648578,2043.26324445423
0.0733410643605948,2043.27324445423
0.0646243934362725,2043.28324445423
0.0564317244166276,2043.29324445423
0.0487341542400638,2043.30324445423
0.041408892154102,2043.31324445423
0.0343221473361348,2043.32324445423
0.0270219207817386,2043.33324445423
0.0195725248638231,2043.34324445423
0.0128037662957942,2043.35324445423
0.00608944137173404,2043.36324445423
-0.000881598500041018,2043.37324445423
-0.00810439060813856,2043.38324445423
-0.0156588129945187,2043.39324445423
-0.0230416221014669,2043.40324445423
-0.0301662843814477,2043.41324445423
-0.0368990058331441,2043.42324445423
-0.0440018091712163,2043.43324445423
-0.0511245390485978,2043.44324445423
-0.0581661208267872,2043.45324445423
-0.0649318617601561,2043.46324445423
-0.0711222042421508,2043.47324445423
-0.0774338400688165,2043.48324445423
-0.083939213919794,2043.49324445423
-0.0905220362767571,2043.50324445423
-0.0967960580115512,2043.51324445423
-0.102844675203952,2043.52324445423
-0.108386375418486,2043.53324445423
-0.113965102209993,2043.54324445423
-0.119656160198612,2043.55324445423
-0.124896330231899,2043.56324445423
-0.130185311172932,2043.57324445423
-0.135185121802011,2043.58324445423
-0.140812615847727,2043.59324445423
-0.147034629703933,2043.60324445423
-0.153875272141978,2043.61324445423
-0.161457048763665,2043.62324445423
-0.169362971298575,2043.63324445423
-0.176381538938068,2043.64324445423
-0.182783774001494,2043.65324445423
-0.188150848069592,2043.66324445423
-0.192154996345421,2043.67324445423
-0.194497435973747,2043.68324445423
-0.19355294389808,2043.69324445423
-0.186040414094005,2043.70324445423
-0.169334093888185,2043.71324445423
-0.140530734441714,2043.72324445423
-0.0994165621731204,2043.73324445423
-0.0487320468471315,2043.74324445423
0.00709558371347731,2043.75324445423
0.0635875685881894,2043.76324445423
0.116488675484594,2043.77324445423
0.16229261832333,2043.78324445423
0.200358983150133,2043.79324445423
0.229056680036439,2043.80324445423
0.249971222105185,2043.81324445423
0.262965244402297,2043.82324445423
0.270275084033231,2043.83324445423
0.273917216095248,2043.84324445423
0.275049477076885,2043.85324445423
0.275523900057342,2043.86324445423
0.276748444615428,2043.87324445423
0.27880739097521,2043.88324445423
0.281566988999779,2043.89324445423
0.284985605873464,2043.90324445423
0.288898685125029,2043.91324445423
0.292989242462974,2043.92324445423
0.297358144355469,2043.93324445423
0.30213821375505,2043.94324445423
0.307172439143425,2043.95324445423
0.311770122796653,2043.96324445423
0.31507613329574,2043.97324445423
0.316463076259125,2043.98324445423
0.314774150824427,2043.99324445423
0.309293305051863,2044.00324445423
0.300188914677697,2044.01324445423
0.289098959764814,2044.02324445423
0.277473921464439,2044.03324445423
0.267011237815133,2044.04324445423
0.259134582271789,2044.05324445423
0.254226566476394,2044.06324445423
0.252200386952706,2044.07324445423
0.252884966282867,2044.08324445423
0.255588005644788,2044.09324445423
0.259012129606926,2044.10324445423
0.262916051759272,2044.11324445423
0.266419083736075,2044.12324445423
0.268885528645909,2044.13324445423
0.270239748471187,2044.14324445423
0.270636395931035,2044.15324445423
0.268732016042125,2044.16324445423
0.26599801684566,2044.17324445423
0.261728055377724,2044.18324445423
0.255721266105453,2044.19324445423
0.248157286615555,2044.20324445423
0.239272476624353,2044.21324445423
0.229324592038607,2044.22324445423
0.219291331648124,2044.23324445423
0.209500394783098,2044.24324445423
0.199343017270266,2044.25324445423
0.18921514984913,2044.26324445423
0.178925913405028,2044.27324445423
0.16783443977701,2044.28324445423
0.156571527241043,2044.29324445423
0.145319014869422,2044.30324445423
0.133800865125653,2044.31324445423
0.122539087604896,2044.32324445423
0.111786034288,2044.33324445423
0.101743907990081,2044.34324445423
0.0920803970393831,2044.35324445423
0.0834533056515854,2044.36324445423
0.075461857220021,2044.37324445423
0.0674127465183415,2044.38324445423
0.0594877409653463,2044.39324445423
0.0513011785325179,2044.40324445423
0.0432996869125085,2044.41324445423
0.0352579602430611,2044.42324445423
0.0270957614501668,2044.43324445423
0.0187509762726255,2044.44324445423
0.0103752241459213,2044.45324445423
0.00256908850104561,2044.46324445423
-0.00503445560396341,2044.47324445423
-0.0122384858722676,2044.48324445423
-0.0198155676436692,2044.49324445423
-0.0277810117279523,2044.50324445423
-0.0354507586780782,2044.51324445423
-0.0433210807320342,2044.52324445423
-0.0514702974659797,2044.53324445423
-0.0590719704372636,2044.54324445423
-0.0664727171727059,2044.55324445423
-0.073080273824665,2044.56324445423
-0.0791227137252718,2044.57324445423
-0.0847791856511841,2044.58324445423
-0.0899580545582356,2044.59324445423
-0.0948928389501278,2044.60324445423
-0.0997019325766962,2044.61324445423
-0.10490253052827,2044.62324445423
-0.110269476622422,2044.63324445423
-0.11567894972428,2044.64324445423
-0.121943770547941,2044.65324445423
-0.128910643634841,2044.66324445423
-0.136903285726983,2044.67324445423
-0.145347936320793,2044.68324445423
-0.153884454595984,2044.69324445423
-0.162467012849581,2044.70324445423
-0.17044435856267,2044.71324445423
-0.178215409256491,2044.72324445423
-0.185283045594433,2044.73324445423
-0.191755054266157,2044.74324445423
-0.197341815270807,2044.75324445423
-0.200520691357571,2044.76324445423
-0.199624297241387,2044.77324445423
-0.19159035447261,2044.78324445423
-0.173769752727432,2044.79324445423
-0.143902445521518,2044.80324445423
-0.10212884439229,2044.81324445423
-0.0513724329820704,2044.82324445423
0.00426035801141582,2044.83324445423
0.0603389991456318,2044.84324445423
0.112753701557361,2044.85324445423
0.158079553285044,2044.86324445423
0.195275593683523,2044.87324445423
0.222680307385033,2044.88324445423
0.241150511818014,2044.89324445423
0.251179888880999,2044.90324445423
0.255244375356475,2044.91324445423
0.254279295547467,2044.92324445423
0.250470900826886,2044.93324445423
0.246521640777635,2044.94324445423
0.243220927080949,2044.95324445423
0.242056153924924,2044.96324445423
0.241988680842506,2044.97324445423
0.243443908474069,2044.98324445423
0.245407162750195,2044.99324445423
0.248205141335325,2045.00324445423
0.250537096654625,2045.01324445423
0.253553126673826,2045.02324445423
0.256568448366303,2045.03324445423
0.258612345166608,2045.04324445423
0.259058911421642,2045.05324445423
0.25736180962843,2045.06324445423
0.252765643748312,2045.07324445423
0.245935445240136,2045.08324445423
0.237312179754725,2045.09324445423
0.228064102427012,2045.10324445423
0.219577134833761,2045.11324445423
0.213045421438672,2045.12324445423
0.208523762739534,2045.13324445423
0.206298811170136,2045.14324445423
0.206728412886032,2045.15324445423
0.208712622521813,2045.16324445423
0.211552535402423,2045.17324445423
0.214994972315188,2045.18324445423
0.217802673464737,2045.19324445423
0.220374629085606,2045.20324445423
0.22241389378095,2045.21324445423
0.223524788591348,2045.22324445423
0.223763477655607,2045.23324445423
0.22185604286272,2045.24324445423
0.218520119575338,2045.25324445423
0.213855904764373,2045.26324445423
0.207937509027813,2045.27324445423
0.201260190905997,2045.28324445423
0.19401929918022,2045.29324445423
0.186410098705214,2045.30324445423
0.178942404500398,2045.31324445423
0.171480708084612,2045.32324445423
0.16426962574125,2045.33324445423
0.15728203119651,2045.34324445423
0.150456311590086,2045.35324445423
0.143320590081833,2045.36324445423
0.136110712173278,2045.37324445423
0.128480234560732,2045.38324445423
0.120923669280253,2045.39324445423
0.113464608928704,2045.40324445423
0.106843936778515,2045.41324445423
0.0999593253070405,2045.42324445423
0.0931695088852254,2045.43324445423
0.0865518631430621,2045.44324445423
0.0804788772860219,2045.45324445423
0.0750446329954737,2045.46324445423
0.0684175103375272,2045.47324445423
0.0626942836630722,2045.48324445423
0.0565978066691259,2045.49324445423
0.050252137656862,2045.50324445423
0.0439196872466453,2045.51324445423
0.0372060090352619,2045.52324445423
0.0303644523719365,2045.53324445423
0.0233779143700952,2045.54324445423
0.0163968717557899,2045.55324445423
0.0087599439426024,2045.56324445423
0.00107130703469868,2045.57324445423
-0.00646182916915245,2045.58324445423
-0.0138697265828573,2045.59324445423
-0.0209050084961635,2045.60324445423
-0.0273436910693211,2045.61324445423
-0.0326975421358216,2045.62324445423
-0.0378829898172502,2045.63324445423
-0.0426480159522154,2045.64324445423
-0.0474990982170854,2045.65324445423
-0.0520000659213852,2045.66324445423
-0.0557959803465408,2045.67324445423
-0.0596850707309011,2045.68324445423
-0.0638388118027179,2045.69324445423
-0.068037068440421,2045.70324445423
-0.0731636063981621,2045.71324445423
-0.0800357780098669,2045.72324445423
-0.0879578604767384,2045.73324445423
-0.0965783942848792,2045.74324445423
-0.105154390690808,2045.75324445423
-0.112896459123848,2045.76324445423
-0.120162823954339,2045.77324445423
-0.126226942222021,2045.78324445423
-0.132239173193945,2045.79324445423
-0.136658364690761,2045.80324445423
-0.138131748027534,2045.81324445423
-0.133715946546974,2045.82324445423
-0.120166656083198,2045.83324445423
-0.0946564941263047,2045.84324445423
-0.0556612698761126,2045.85324445423
-0.00564552332494421,2045.86324445423
0.05223746026585,2045.87324445423
0.112992462096841,2045.88324445423
0.172635200402948,2045.89324445423
0.226088704214199,2045.90324445423
0.271079077802318,2045.91324445423
0.306145788134846,2045.92324445423
0.331815715942223,2045.93324445423
0.348560008571374,2045.94324445423
0.35802200484893,2045.95324445423
0.36168868955021,2045.96324445423
0.361436569207453,2045.97324445423
0.359410019549941,2045.98324445423
0.357660853644654,2045.99324445423
0.356505448720311,2046.00324445423
0.356584120879771,2046.01324445423
0.357129614343993,2046.02324445423
0.358555732036656,2046.03324445423
0.360612590255032,2046.04324445423
0.363577530443866,2046.05324445423
0.367414644742083,2046.06324445423
0.370770483842006,2046.07324445423
0.373286065132261,2046.08324445423
0.374314280322733,2046.09324445423
0.373519238818387,2046.10324445423
0.370188318773059,2046.11324445423
0.364295072102973,2046.12324445423
0.356524258358,2046.13324445423
0.347313326440818,2046.14324445423
0.337977542693202,2046.15324445423
0.329970547166653,2046.16324445423
0.324368446186801,2046.17324445423
0.320973425100314,2046.18324445423
0.319753203614899,2046.19324445423
0.320062363828971,2046.20324445423
0.321555277593568,2046.21324445423
0.323444555682762,2046.22324445423
0.326002243626505,2046.23324445423
0.328593152059823,2046.24324445423
0.330311737012973,2046.25324445423
0.331617749201458,2046.26324445423
0.332159715734931,2046.27324445423
0.332205948121329,2046.28324445423
0.330984740422218,2046.29324445423
0.329416074173394,2046.30324445423
0.326388087620333,2046.31324445423
0.32204090655102,2046.32324445423
0.316503266331369,2046.33324445423
0.310383708021061,2046.34324445423
0.303291793675232,2046.35324445423
0.295430674278424,2046.36324445423
0.28695324964914,2046.37324445423
0.277618534016979,2046.38324445423
0.268041389597696,2046.39324445423
0.258448831535408,2046.40324445423
0.24905711458181,2046.41324445423
0.239135503779719,2046.42324445423
0.228301349981858,2046.43324445423
0.21691415293906,2046.44324445423
0.205272752731158,2046.45324445423
0.194012427048696,2046.46324445423
0.182188051955146,2046.47324445423
0.170934496192763,2046.48324445423
0.159755265319962,2046.49324445423
0.148452088375108,2046.50324445423
0.137450355995172,2046.51324445423
0.126217322174787,2046.52324445423
0.115351094143076,2046.53324445423
0.105005249291453,2046.54324445423
0.0953924020855294,2046.55324445423
0.0863934505542494,2046.56324445423
0.0784138274090768,2046.57324445423
0.0709657211131691,2046.58324445423
0.0633188533324699,2046.59324445423
0.0558088545630421,2046.60324445423
0.0486319185294333,2046.61324445423
0.0418438702179209,2046.62324445423
0.0352868486939533,2046.63324445423
0.0288396107221477,2046.64324445423
0.0222157641250237,2046.65324445423
0.0153378631648882,2046.66324445423
0.00835510003310671,2046.67324445423
0.0015668940194416,2046.68324445423
-0.00550016306456003,2046.69324445423
-0.0117932781052549,2046.70324445423
-0.0182595959194174,2046.71324445423
-0.0248941618097428,2046.72324445423
-0.0311860816083735,2046.73324445423
-0.0371107556502715,2046.74324445423
-0.0433146195952543,2046.75324445423
-0.0492443865884609,2046.76324445423
-0.0551960940360165,2046.77324445423
-0.061534847318171,2046.78324445423
-0.0680099383317726,2046.79324445423
-0.0747300581349463,2046.80324445423
-0.0821496865615959,2046.81324445423
-0.090344744547991,2046.82324445423
-0.0990974626046489,2046.83324445423
-0.107645419072347,2046.84324445423
-0.116488479959569,2046.85324445423
-0.124705762923442,2046.86324445423
-0.13221418452472,2046.87324445423
-0.138531668467678,2046.88324445423
-0.14084304829603,2046.89324445423
-0.136746438653401,2046.90324445423
-0.122282730995735,2046.91324445423
-0.0945724210487418,2046.92324445423
-0.0526187941774327,2046.93324445423
0.00122760475088242,2046.94324445423
0.0631654218687805,2046.95324445423
0.128062647207358,2046.96324445423
0.191393117309852,2046.97324445423
0.249532158435489,2046.98324445423
0.299044769659427,2046.99324445423
0.33822889377622,2047.00324445423
0.366733911903546,2047.01324445423
0.384377756121907,2047.02324445423
0.393282846909311,2047.03324445423
0.396109600341433,2047.04324445423
0.394584841993879,2047.05324445423
0.391449989396013,2047.06324445423
0.387912433633207,2047.07324445423
0.385227952950498,2047.08324445423
0.383785855747945,2047.09324445423
0.383274586582381,2047.10324445423
0.383501447463304,2047.11324445423
0.384362959072526,2047.12324445423
0.385890040581237,2047.13324445423
0.388137984920208,2047.14324445423
0.391113300128053,2047.15324445423
0.394491883795615,2047.16324445423
0.396649307955595,2047.17324445423
0.397204763436527,2047.18324445423
0.394837842446092,2047.19324445423
0.389565548695323,2047.20324445423
0.381077339206922,2047.21324445423
0.370907542044078,2047.22324445423
0.359656987868417,2047.23324445423
0.349022181890958,2047.24324445423
0.339484708887804,2047.25324445423
0.332113867027254,2047.26324445423
0.32687517970201,2047.27324445423
0.323895504702557,2047.28324445423
0.32259822363157,2047.29324445423
0.322354541573076,2047.30324445423
0.322769295706908,2047.31324445423
0.322934567988975,2047.32324445423
0.322747819502847,2047.33324445423
0.321236325065402,2047.34324445423
0.318756204799109,2047.35324445423
0.315474300768374,2047.36324445423
0.310799019043151,2047.37324445423
0.30488240544632,2047.38324445423
0.298019519721255,2047.39324445423
0.289248565884978,2047.40324445423
0.279510412264338,2047.41324445423
0.269099885247818,2047.42324445423
0.258506551345671,2047.43324445423
0.247596161897789,2047.44324445423
0.236397966478132,2047.45324445423
0.224376022897369,2047.46324445423
0.212230051105797,2047.47324445423
0.199439892020868,2047.48324445423
0.186261682342084,2047.49324445423
0.173110902981593,2047.50324445423
0.160361514251482,2047.51324445423
0.147724310886018,2047.52324445423
0.135511512409936,2047.53324445423
0.123432216761511,2047.54324445423
0.111716882186437,2047.55324445423
0.0998057461416743,2047.56324445423
0.0880180687672855,2047.57324445423
0.076365646397193,2047.58324445423
0.0650335305007068,2047.59324445423
0.0538160952097283,2047.60324445423
0.0425968543691344,2047.61324445423
0.031525853806261,2047.62324445423
0.0207859541112902,2047.63324445423
0.0100407816926916,2047.64324445423
-9.26952521216286e-05,2047.65324445423
-0.00967596575310556,2047.66324445423
-0.0188849342450954,2047.67324445423
-0.0287041483117273,2047.68324445423
-0.0382179393640701,2047.69324445423
-0.0478131175045049,2047.70324445423
-0.057630759950334,2047.71324445423
-0.0673986452796587,2047.72324445423
-0.0768121492253566,2047.73324445423
-0.086329449677289,2047.74324445423
-0.0951189438232433,2047.75324445423
-0.104174098713446,2047.76324445423
-0.112738845705008,2047.77324445423
-0.120749067492301,2047.78324445423
-0.128849326723422,2047.79324445423
-0.136381706844923,2047.80324445423
-0.143067741554935,2047.81324445423
-0.149373500366884,2047.82324445423
-0.15515575006986,2047.83324445423
-0.160984357778566,2047.84324445423
-0.166828224601685,2047.85324445423
-0.17260856084742,2047.86324445423
-0.17883962190416,2047.87324445423
-0.18591644260056,2047.88324445423
-0.193657297528502,2047.89324445423
-0.201519175358303,2047.90324445423
-0.210063658140153,2047.91324445423
-0.217982558236298,2047.92324445423
-0.22508633366932,2047.93324445423
-0.231102427737406,2047.94324445423
-0.235991801126639,2047.95324445423
-0.239493745111184,2047.96324445423
-0.240450242336637,2047.97324445423
-0.236622487779989,2047.98324445423
-0.225144996067626,2047.99324445423
-0.203025992771603,2048.00324445423
-0.169056613737158,2048.01324445423
-0.124771772353399,2048.02324445423
-0.0722711849617984,2048.03324445423
-0.0154654559340942,2048.04324445423
0.0405059850906292,2048.05324445423
0.0918967988666317,2048.06324445423
0.135474565080838,2048.07324445423
0.170124702654566,2048.08324445423
0.195201127819073,2048.09324445423
0.211855255132751,2048.10324445423
0.220982452513554,2048.11324445423
0.22505801800298,2048.12324445423
0.225652611011695,2048.13324445423
0.22394651375747,2048.14324445423
0.222083547947424,2048.15324445423
0.220210516498733,2048.16324445423
0.21935788751282,2048.17324445423
0.219565545210765,2048.18324445423
0.221032075825647,2048.19324445423
0.223851181193765,2048.20324445423
0.227977006989544,2048.21324445423
0.233072018754185,2048.22324445423
0.238916254722677,2048.23324445423
0.245317248507184,2048.24324445423
0.251115525278678,2048.25324445423
0.25480508477541,2048.26324445423
0.25603123577087,2048.27324445423
0.253653577013298,2048.28324445423
0.249258350757435,2048.29324445423
0.243476878908726,2048.30324445423
0.237954005894953,2048.31324445423
0.233533862802156,2048.32324445423
0.231101959825864,2048.33324445423
0.23118872445762,2048.34324445423
0.232662020908176,2048.35324445423
0.235042744917771,2048.36324445423
0.237691424736815,2048.37324445423
0.240070844356398,2048.38324445423
0.242423688303593,2048.39324445423
0.244108826629165,2048.40324445423
0.24522882503744,2048.41324445423
0.244850698175669,2048.42324445423
0.243214419438802,2048.43324445423
0.240051472109929,2048.44324445423
0.23552266343591,2048.45324445423
0.22907716562691,2048.46324445423
0.221562140084555,2048.47324445423
0.212893162898108,2048.48324445423
0.203289257134256,2048.49324445423
0.193394806370293,2048.50324445423
0.183061250819869,2048.51324445423
0.173185282665728,2048.52324445423
0.163577514554149,2048.53324445423
0.153747315980979,2048.54324445423
0.144085277588925,2048.55324445423
0.134659902676558,2048.56324445423
0.125592266018191,2048.57324445423
0.11658176997521,2048.58324445423
0.108068269339086,2048.59324445423
0.0998172725600828,2048.60324445423
0.0912365107070383,2048.61324445423
0.0828855310830899,2048.62324445423
0.0746156828113555,2048.63324445423
0.06599369711954,2048.64324445423
0.0578360793017671,2048.65324445423
0.0491557848259093,2048.66324445423
0.0414426187808991,2048.67324445423
0.0333944843921782,2048.68324445423
0.0247049105488015,2048.69324445423
0.0162068006010087,2048.70324445423
0.00769114613732717,2048.71324445423
-0.00106397003005971,2048.72324445423
-0.01022503561396,2048.73324445423
-0.0192390594248149,2048.74324445423
-0.0278225562556471,2048.75324445423
-0.0363789244705103,2048.76324445423
-0.0453816807934372,2048.77324445423
-0.0545792145710717,2048.78324445423
-0.0643872878761216,2048.79324445423
-0.073715674799276,2048.80324445423
-0.0833732006647212,2048.81324445423
-0.0921476679788924,2048.82324445423
-0.100862797851209,2048.83324445423
-0.108875436819545,2048.84324445423
-0.115658160052843,2048.85324445423
-0.122540395702795,2048.86324445423
-0.128340268948759,2048.87324445423
-0.133605148463418,2048.88324445423
-0.139066684549693,2048.89324445423
-0.145166786135658,2048.90324445423
-0.151581630302848,2048.91324445423
-0.159195936542687,2048.92324445423
-0.167071195565574,2048.93324445423
-0.176082397198778,2048.94324445423
-0.185086462384125,2048.95324445423
-0.194035652659237,2048.96324445423
-0.202760304486283,2048.97324445423
-0.210618981549018,2048.98324445423
-0.217356344737503,2048.99324445423
-0.222747451405924,2049.00324445423
-0.225814826313375,2049.01324445423
-0.223888439052749,2049.02324445423
-0.212953068448435,2049.03324445423
-0.190407160176338,2049.04324445423
-0.154438102192454,2049.05324445423
-0.106492390995756,2049.06324445423
-0.0497493157150457,2049.07324445423
0.0106903318800415,2049.08324445423
0.0693343912000831,2049.09324445423
0.122327347227113,2049.10324445423
0.167670563923152,2049.11324445423
0.202821163418302,2049.12324445423
0.22873773808859,2049.13324445423
0.246152081044803,2049.14324445423
0.256399450133358,2049.15324445423
0.261073322922619,2049.16324445423
0.261537420124792,2049.17324445423
0.260253332928517,2049.18324445423
0.258955959870796,2049.19324445423
0.257868084463392,2049.20324445423
0.258460523612729,2049.21324445423
0.25993035389893,2049.22324445423
0.262787838239146,2049.23324445423
0.266840642721813,2049.24324445423
0.271012042813511,2049.25324445423
0.275646001569957,2049.26324445423
0.280508126983006,2049.27324445423
0.284355502930892,2049.28324445423
0.287022178490692,2049.29324445423
0.288208859774277,2049.30324445423
0.286496114494331,2049.31324445423
0.282898777269597,2049.32324445423
0.276581408881501,2049.33324445423
0.268137018713624,2049.34324445423
0.258255882758689,2049.35324445423
0.248253021311275,2049.36324445423
0.238263394627093,2049.37324445423
0.229431076183898,2049.38324445423
0.223032656974821,2049.39324445423
0.218918307165065,2049.40324445423
0.21740364052384,2049.41324445423
0.21811413285038,2049.42324445423
0.21976180857479,2049.43324445423
0.221820889215689,2049.44324445423
0.22366993017861,2049.45324445423
0.225133392222925,2049.46324445423
0.22503505218477,2049.47324445423
0.223800773197054,2049.48324445423
0.220871588922722,2049.49324445423
0.217003479861418,2049.50324445423
0.212064540623519,2049.51324445423
0.205530702711626,2049.52324445423
0.198018218006451,2049.53324445423
0.189315106589344,2049.54324445423
0.180177559241668,2049.55324445423
0.170476744968267,2049.56324445423
0.160033667449158,2049.57324445423
0.148884469056367,2049.58324445423
0.13758222694773,2049.59324445423
0.125634756919156,2049.60324445423
0.11407866290427,2049.61324445423
0.102840972935447,2049.62324445423
0.0915976419950258,2049.63324445423
0.0809094771612125,2049.64324445423
0.0706953412088645,2049.65324445423
0.0607704594333814,2049.66324445423
0.0511442114923356,2049.67324445423
0.0415338694898422,2049.68324445423
0.032921005526054,2049.69324445423
0.0247101870309147,2049.70324445423
0.0163192051163409,2049.71324445423
0.00785556402491508,2049.72324445423
-0.000902374655907469,2049.73324445423
-0.0101548500087853,2049.74324445423
-0.0188886034302939,2049.75324445423
-0.0277277484567373,2049.76324445423
-0.0364952502337247,2049.77324445423
-0.0456360195055215,2049.78324445423
-0.0547411396196818,2049.79324445423
-0.0639376448083309,2049.80324445423
-0.0722909600881944,2049.81324445423
-0.0808928057140527,2049.82324445423
-0.0886546053838557,2049.83324445423
-0.0959619621124071,2049.84324445423
-0.103442879014427,2049.85324445423
-0.111164768051588,2049.86324445423
-0.119038106741047,2049.87324445423
-0.12714306446042,2049.88324445423
-0.134877575015908,2049.89324445423
-0.142701417336527,2049.90324445423
-0.149712466508412,2049.91324445423
-0.156375884749687,2049.92324445423
-0.162267292405302,2049.93324445423
-0.168140315557154,2049.94324445423
-0.173882039920526,2049.95324445423
-0.179160140909616,2049.96324445423
-0.184931023436383,2049.97324445423
-0.191142199121149,2049.98324445423
-0.198241188282392,2049.99324445423
-0.206147431088996,2050.00324445423
-0.214860097693759,2050.01324445423
-0.223870743611033,2050.02324445423
-0.232903439976846,2050.03324445423
-0.241890808536194,2050.04324445423
-0.250286554385563,2050.05324445423
-0.258056739308779,2050.06324445423
-0.265543231771535,2050.07324445423
-0.272448575430906,2050.08324445423
-0.278252361534383,2050.09324445423
-0.281473732049823,2050.10324445423
-0.279819227413212,2050.11324445423
-0.269239687487495,2050.12324445423
-0.246849920416498,2050.13324445423
-0.211349015382186,2050.14324445423
-0.164051814762199,2050.15324445423
-0.108505228950468,2050.16324445423
-0.0497957157757123,2050.17324445423
0.00756638416068258,2050.18324445423
0.0589516643342175,2050.19324445423
0.102110031095797,2050.20324445423
0.136379334117642,2050.21324445423
0.161549368904313,2050.22324445423
0.178525224894791,2050.23324445423
0.188486942776902,2050.24324445423
0.193408556640559,2050.25324445423
0.195676657113803,2050.26324445423
0.196443041263654,2050.27324445423
0.196976745786775,2050.28324445423
0.197356953901076,2050.29324445423
0.198917694953304,2050.30324445423
0.201279074813078,2050.31324445423
0.204043167049206,2050.32324445423
0.207761136923991,2050.33324445423
0.211956938585818,2050.34324445423
0.215752844955217,2050.35324445423
0.219576846970944,2050.36324445423
0.223630034595456,2050.37324445423
0.227342086741676,2050.38324445423
0.229619472721455,2050.39324445423
0.229765420962308,2050.40324445423
0.227445820752469,2050.41324445423
0.222828383483313,2050.42324445423
0.216601429660534,2050.43324445423
0.21007756078922,2050.44324445423
0.204608088129995,2050.45324445423
0.201626915878403,2050.46324445423
0.20071685880143,2050.47324445423
0.202488591400084,2050.48324445423
0.205675682866347,2050.49324445423
0.209300592410022,2050.50324445423
0.212534535720047,2050.51324445423
0.214954531313056,2050.52324445423
0.215998426574807,2050.53324445423
0.215765700916114,2050.54324445423
0.214403894575298,2050.55324445423
0.211862667973422,2050.56324445423
0.208569879980833,2050.57324445423
0.203825178516123,2050.58324445423
0.198237009781303,2050.59324445423
0.191722459368548,2050.60324445423
0.183743605476413,2050.61324445423
0.175010027326142,2050.62324445423
0.165654417113629,2050.63324445423
0.155584846884587,2050.64324445423
0.14519325185069,2050.65324445423
0.135056436278091,2050.66324445423
0.124858912799859,2050.67324445423
0.114534776176082,2050.68324445423
0.103814358066267,2050.69324445423
0.0923431327657964,2050.70324445423
0.0798716414107247,2050.71324445423
0.0666901865676452,2050.72324445423
0.0532254693481449,2050.73324445423
0.0396906003109804,2050.74324445423
0.0268987681984539,2050.75324445423
0.0148550353295522,2050.76324445423
0.00416202263187093,2050.77324445423
-0.00551455969417862,2050.78324445423
-0.0141316971741573,2050.79324445423
-0.0216055507572193,2050.80324445423
-0.0285378359499951,2050.81324445423
-0.0348803580497635,2050.82324445423
-0.0409044871492843,2050.83324445423
-0.0474871305871933,2050.84324445423
-0.0539405352806832,2050.85324445423
-0.0608917638097381,2050.86324445423
-0.0681384782825542,2050.87324445423
-0.0758391086435994,2050.88324445423
-0.0838909959445578,2050.89324445423
-0.091622276895073,2050.90324445423
-0.0992390135966755,2050.91324445423
-0.106976427798107,2050.92324445423
-0.114891805195104,2050.93324445423
-0.122611680809404,2050.94324445423
-0.1299281893979,2050.95324445423
-0.136645368555874,2050.96324445423
-0.143389998503475,2050.97324445423
-0.15015024158813,2050.98324445423
-0.156683076368024,2050.99324445423
-0.162962679510513,2051.00324445423
-0.169088176846648,2051.01324445423
-0.174564149540214,2051.02324445423
-0.180619685614396,2051.03324445423
-0.186954209317361,2051.04324445423
-0.193218224409526,2051.05324445423
-0.200258417390425,2051.06324445423
-0.207364301497256,2051.07324445423
-0.215147653109414,2051.08324445423
-0.223816525379138,2051.09324445423
-0.231594523442788,2051.10324445423
-0.239399412899193,2051.11324445423
-0.245956321122428,2051.12324445423
-0.251615429556888,2051.13324445423
-0.256659117362985,2051.14324445423
-0.259640723392399,2051.15324445423
-0.259661720471234,2051.16324445423
-0.253405348829768,2051.17324445423
-0.237924521335943,2051.18324445423
-0.210350561340329,2051.19324445423
-0.169859773267108,2051.20324445423
-0.119745786255498,2051.21324445423
-0.0632170433631435,2051.22324445423
-0.00560370322282877,2051.23324445423
0.0488135757600057,2051.24324445423
0.0964196007690507,2051.25324445423
0.135499889049701,2051.26324445423
0.166162014440443,2051.27324445423
0.187633228891403,2051.28324445423
0.201479335193593,2051.29324445423
0.209073822706039,2051.30324445423
0.212767904662886,2051.31324445423
0.213330845486843,2051.32324445423
0.213023745602458,2051.33324445423
0.212818216980665,2051.34324445423
0.212715266445226,2051.35324445423
0.21348582060845,2051.36324445423
0.215480124493315,2051.37324445423
0.218510404409603,2051.38324445423
0.222047933788398,2051.39324445423
0.226448756138992,2051.40324445423
0.231610573600944,2051.41324445423
0.236480111514056,2051.42324445423
0.240532564721114,2051.43324445423
0.242741783642647,2051.44324445423
0.242855297555964,2051.45324445423
0.239806215681281,2051.46324445423
0.233469615497398,2051.47324445423
0.224763463839984,2051.48324445423
0.214117776145917,2051.49324445423
0.20328786730511,2051.50324445423
0.193000968159152,2051.51324445423
0.185116003596984,2051.52324445423
0.179457122961021,2051.53324445423
0.176329392987787,2051.54324445423
0.176090663180292,2051.55324445423
0.17728095212333,2051.56324445423
0.180392894419096,2051.57324445423
0.183411968651233,2051.58324445423
0.18606254587182,2051.59324445423
0.187744470273934,2051.60324445423
0.187554116114436,2051.61324445423
0.185795889442704,2051.62324445423
0.182825113976289,2051.63324445423
0.178544273274737,2051.64324445423
0.173453590524978,2051.65324445423
0.168020359708554,2051.66324445423
0.161766371803275,2051.67324445423
0.154302737592609,2051.68324445423
0.14608284786192,2051.69324445423
0.13731077246652,2051.70324445423
0.127891865321325,2051.71324445423
0.11783667888584,2051.72324445423
0.10731024319361,2051.73324445423
0.0964036029961266,2051.74324445423
0.0848588563384888,2051.75324445423
0.0732501584753122,2051.76324445423
0.0615325702450091,2051.77324445423
0.0508153785752214,2051.78324445423
0.0399364650315956,2051.79324445423
0.0297970423244932,2051.80324445423
0.0202778748639962,2051.81324445423
0.0104250123051915,2051.82324445423
0.000951957622156532,2051.83324445423
-0.008930231729143,2051.84324445423
-0.0180568773199957,2051.85324445423
-0.0262197427608274,2051.86324445423
-0.0337901379873543,2051.87324445423
-0.0409821595302947,2051.88324445423
-0.0482320440144989,2051.89324445423
-0.0557109045016444,2051.90324445423
-0.0639900345390975,2051.91324445423
-0.0721613955913309,2051.92324445423
-0.0806440276067234,2051.93324445423
-0.0891445067538994,2051.94324445423
-0.0980305431756688,2051.95324445423
-0.10649220158214,2051.96324445423
-0.114665527429707,2051.97324445423
-0.1221680254298,2051.98324445423
-0.128765940654573,2051.99324445423
-0.135353409891587,2052.00324445423
-0.142019056486181,2052.01324445423
-0.148248397752144,2052.02324445423
-0.154388600228193,2052.03324445423
-0.16037981114195,2052.04324445423
-0.166479131238888,2052.05324445423
-0.173089566223823,2052.06324445423
-0.179460418808269,2052.07324445423
-0.185807945500997,2052.08324445423
-0.19179630806027,2052.09324445423
-0.197133285936277,2052.10324445423
-0.202560516551158,2052.11324445423
-0.207539598474986,2052.12324445423
-0.212828699364935,2052.13324445423
-0.218193837264951,2052.14324445423
-0.223790681036062,2052.15324445423
-0.230438472571938,2052.16324445423
-0.238058566725323,2052.17324445423
-0.246388753114157,2052.18324445423
-0.255408426206986,2052.19324445423
-0.263721412549212,2052.20324445423
-0.271540488324139,2052.21324445423
-0.278198116291316,2052.22324445423
-0.283499538583068,2052.23324445423
-0.285972312375787,2052.24324445423
-0.282436954224632,2052.25324445423
-0.269511776378536,2052.26324445423
-0.244526694926905,2052.27324445423
-0.20660348609876,2052.28324445423
-0.157498118864445,2052.29324445423
-0.101154735881686,2052.30324445423
-0.0424860469865485,2052.31324445423
0.0135992412500958,2052.32324445423
0.0637625839774025,2052.33324445423
0.105287548135761,2052.34324445423
0.138352899073936,2052.35324445423
0.162389188169909,2052.36324445423
0.178673291673234,2052.37324445423
0.188665088268907,2052.38324445423
0.194323723639749,2052.39324445423
0.196943366349583,2052.40324445423
0.197739111864458,2052.41324445423
0.197887402896249,2052.42324445423
0.197636020872041,2052.43324445423
0.197694646111973,2052.44324445423
0.198454556028467,2052.45324445423
0.200671536700267,2052.46324445423
0.20480158708183,2052.47324445423
0.20954810888499,2052.48324445423
0.214742120201239,2052.49324445423
0.219093247879221,2052.50324445423
0.22328704419484,2052.51324445423
0.225781647125453,2052.52324445423
0.225702172781601,2052.53324445423
0.223460829284191,2052.54324445423
0.2181973426297,2052.55324445423
0.210501001003075,2052.56324445423
0.201003006023189,2052.57324445423
0.190655887949439,2052.58324445423
0.180936104053664,2052.59324445423
0.172975421562256,2052.60324445423
0.167027796311425,2052.61324445423
0.163388901555443,2052.62324445423
0.16211529321757,2052.63324445423
0.161961577985186,2052.64324445423
0.162694999593294,2052.65324445423
0.163552895677991,2052.66324445423
0.163561548166486,2052.67324445423
0.162489642760653,2052.68324445423
0.16038052735002,2052.69324445423
0.157346951946915,2052.70324445423
0.153495983095947,2052.71324445423
0.148626625919115,2052.72324445423
0.14270115009542,2052.73324445423
0.136334570610987,2052.74324445423
0.128919622302561,2052.75324445423
0.120617469154493,2052.76324445423
0.111863891032932,2052.77324445423
0.102557944957109,2052.78324445423
0.0932798722673182,2052.79324445423
0.084248202649419,2052.80324445423
0.075078978990007,2052.81324445423
0.0657546010040407,2052.82324445423
0.0562479874901402,2052.83324445423
0.0472472435022729,2052.84324445423
0.0380949118572571,2052.85324445423
0.0291037207292887,2052.86324445423
0.0198961698047749,2052.87324445423
0.0110509084692413,2052.88324445423
0.00234089630485072,2052.89324445423
-0.00624809055471814,2052.90324445423
-0.0147054680311193,2052.91324445423
-0.0232363999781474,2052.92324445423
-0.0317414038927819,2052.93324445423
-0.0405977973733471,2052.94324445423
-0.048963379811118,2052.95324445423
-0.0572470559679336,2052.96324445423
-0.0657705220064543,2052.97324445423
-0.0742931660639554,2052.98324445423
-0.0833997916582958,2052.99324445423
-0.0923480275343775,2053.00324445423
-0.101149008810668,2053.01324445423
-0.109890465579887,2053.02324445423
-0.117845843363147,2053.03324445423
-0.126034239462833,2053.04324445423
-0.134313173731213,2053.05324445423
-0.142931980557648,2053.06324445423
-0.151663774430781,2053.07324445423
-0.160292937133657,2053.08324445423
-0.168707793018209,2053.09324445423
-0.177380246281769,2053.10324445423
-0.18560260288816,2053.11324445423
-0.19353829244669,2053.12324445423
-0.201238831411948,2053.13324445423
-0.20871420763795,2053.14324445423
-0.216395747560236,2053.15324445423
-0.223638660832986,2053.16324445423
-0.231746788719546,2053.17324445423
-0.239763879337596,2053.18324445423
-0.24738038906876,2053.19324445423
-0.254863406548314,2053.20324445423
-0.263138884851704,2053.21324445423
-0.272249482306536,2053.22324445423
-0.281307538556181,2053.23324445423
-0.290495207751502,2053.24324445423
-0.299814000917197,2053.25324445423
-0.308301734557307,2053.26324445423
-0.315914874737481,2053.27324445423
-0.323637564444315,2053.28324445423
-0.330828086995687,2053.29324445423
-0.337403522725555,2053.30324445423
-0.340887607402367,2053.31324445423
-0.339025141795585,2053.32324445423
-0.329130490008953,2053.33324445423
-0.308782160174673,2053.34324445423
-0.278649202543253,2053.35324445423
-0.240467080795818,2053.36324445423
-0.197102023248917,2053.37324445423
-0.153673180692601,2053.38324445423
-0.112896620917697,2053.39324445423
-0.077903404146314,2053.40324445423
-0.050729156465294,2053.41324445423
-0.0320789820007407,2053.42324445423
-0.0208186818103401,2053.43324445423
-0.0154582925705967,2053.44324445423
-0.0149521060701014,2053.45324445423
-0.0172900317729474,2053.46324445423
-0.0213889159872981,2053.47324445423
-0.025973871697006,2053.48324445423
-0.0301075727042358,2053.49324445423
-0.0329649712811068,2053.50324445423
-0.0346140708900798,2053.51324445423
-0.0346832671909601,2053.52324445423
-0.0335396790313844,2053.53324445423
-0.031019975782384,2053.54324445423
-0.0279173963952907,2053.55324445423
-0.0249679449622303,2053.56324445423
-0.0220594971702972,2053.57324445423
-0.0210803746819668,2053.58324445423
-0.021614517252056,2053.59324445423
-0.0243327330659511,2053.60324445423
-0.0298615127495529,2053.61324445423
-0.0368795473989299,2053.62324445423
-0.0451466784838023,2053.63324445423
-0.0537817700649458,2053.64324445423
-0.0624065761545291,2053.65324445423
-0.0693797043546427,2053.66324445423
-0.0748317085567196,2053.67324445423
-0.0773505061659158,2053.68324445423
-0.0775097291388474,2053.69324445423
-0.0764392284447042,2053.70324445423
-0.074399111370601,2053.71324445423
-0.0721122323776709,2053.72324445423
-0.0700219792084134,2053.73324445423
-0.0687677057630506,2053.74324445423
-0.068289291303136,2053.75324445423
-0.069080696498233,2053.76324445423
-0.0711386194898652,2053.77324445423
-0.075469243594435,2053.78324445423
-0.0818972859184443,2053.79324445423
-0.0899544969565457,2053.80324445423
-0.0994096981760201,2053.81324445423
-0.1097761115882,2053.82324445423
-0.120386335497367,2053.83324445423
-0.130588564460152,2053.84324445423
-0.141366683757857,2053.85324445423
-0.15191950655283,2053.86324445423
-0.16207987673293,2053.87324445423
-0.171301034105963,2053.88324445423
-0.18056205383255,2053.89324445423
-0.189215260842496,2053.90324445423
-0.198024585783454,2053.91324445423
-0.206926420721738,2053.92324445423
-0.216462364620678,2053.93324445423
-0.225529389143648,2053.94324445423
-0.234248601846465,2053.95324445423
-0.243261820525716,2053.96324445423
-0.251994348878972,2053.97324445423
-0.259659901656229,2053.98324445423
-0.266474605770289,2053.99324445423
-0.273830278901198,2054.00324445423
-0.280792338948918,2054.01324445423
-0.287834525054863,2054.02324445423
-0.295162056318608,2054.03324445423
-0.30302617080848,2054.04324445423
-0.310543089541847,2054.05324445423
-0.317797184889618,2054.06324445423
-0.325183548554349,2054.07324445423
-0.33196785387927,2054.08324445423
-0.338787488463638,2054.09324445423
-0.345757778103637,2054.10324445423
-0.352869488345203,2054.11324445423
-0.360082377102358,2054.12324445423
-0.367494059061591,2054.13324445423
-0.374757272992981,2054.14324445423
-0.380648412363116,2054.15324445423
-0.386566230717287,2054.16324445423
-0.392353562317954,2054.17324445423
-0.397730523977984,2054.18324445423
-0.403285767416427,2054.19324445423
-0.409061588348468,2054.20324445423
-0.414820073095741,2054.21324445423
-0.421682458866786,2054.22324445423
-0.429563549748326,2054.23324445423
-0.438120418824596,2054.24324445423
-0.447253041290275,2054.25324445423
-0.456413396095949,2054.26324445423
-0.465160487411896,2054.27324445423
-0.473736461880937,2054.28324445423
-0.482081382994504,2054.29324445423
-0.489846115492781,2054.30324445423
-0.496568140374292,2054.31324445423
-0.502337573378355,2054.32324445423
-0.505986468182916,2054.33324445423
-0.504981082631871,2054.34324445423
-0.496691339007923,2054.35324445423
-0.478266338912881,2054.36324445423
-0.45016918097135,2054.37324445423
-0.414907648230656,2054.38324445423
-0.374853307875285,2054.39324445423
-0.334898565576513,2054.40324445423
-0.298301336977851,2054.41324445423
-0.268035315256589,2054.42324445423
-0.245422155287576,2054.43324445423
-0.23057823427569,2054.44324445423
-0.222733242225442,2054.45324445423
-0.220172869262892,2054.46324445423
-0.221751933001959,2054.47324445423
-0.226018546966402,2054.48324445423
-0.231685346022212,2054.49324445423
-0.237656015267059,2054.50324445423
-0.24263838988389,2054.51324445423
-0.245985938574114,2054.52324445423
-0.247353081129294,2054.53324445423
-0.246966096754504,2054.54324445423
-0.245007180695496,2054.55324445423
-0.242154161761628,2054.56324445423
-0.238581470935024,2054.57324445423
-0.233929332143064,2054.58324445423
-0.229481495526878,2054.59324445423
-0.225181346500192,2054.60324445423
-0.222350878208227,2054.61324445423
-0.221188297402899,2054.62324445423
-0.222433929227625,2054.63324445423
-0.226692470496103,2054.64324445423
-0.233047173842721,2054.65324445423
-0.241173629806547,2054.66324445423
-0.248827270515304,2054.67324445423
-0.255424670900172,2054.68324445423
-0.260190439066295,2054.69324445423
-0.263254659487754,2054.70324445423
-0.264015080520371,2054.71324445423
-0.263662554678894,2054.72324445423
-0.261316926532355,2054.73324445423
-0.257888237789039,2054.74324445423
-0.254062142719655,2054.75324445423
-0.250155265040695,2054.76324445423
-0.24704470618686,2054.77324445423
-0.245312762701064,2054.78324445423
-0.244843748615354,2054.79324445423
-0.245399685905986,2054.80324445423
-0.24730452543828,2054.81324445423
-0.249879914311053,2054.82324445423
-0.253507030467673,2054.83324445423
-0.257835399026833,2054.84324445423
-0.263368090188823,2054.85324445423
-0.269814649149548,2054.86324445423
-0.276832543538195,2054.87324445423
-0.28417858610163,2054.88324445423
-0.291336441737811,2054.89324445423
-0.297935669537736,2054.90324445423
-0.30466540423879,2054.91324445423
-0.311211535725242,2054.92324445423
-0.318133060680407,2054.93324445423
-0.325080744661299,2054.94324445423
-0.332320169632869,2054.95324445423
-0.339275471160758,2054.96324445423
-0.346020618597191,2054.97324445423
-0.352615454975386,2054.98324445423
-0.358301722276827,2054.99324445423
-0.363400198462665,2055.00324445423
-0.367509542499274,2055.01324445423
-0.371176840748046,2055.02324445423
-0.374396137859923,2055.03324445423
-0.377135806109158,2055.04324445423
-0.380643584835571,2055.05324445423
-0.384886540457165,2055.06324445423
-0.389615918552379,2055.07324445423
-0.394947771130604,2055.08324445423
-0.400006892346043,2055.09324445423
-0.404434972437144,2055.10324445423
-0.408628880450544,2055.11324445423
-0.412949383081984,2055.12324445423
-0.417314579344845,2055.13324445423
-0.421852567963594,2055.14324445423
-0.426568069914256,2055.15324445423
-0.431365260503468,2055.16324445423
-0.435845507895773,2055.17324445423
-0.440493862208952,2055.18324445423
-0.445362980437023,2055.19324445423
-0.450356086524192,2055.20324445423
-0.454829334442343,2055.21324445423
-0.459215061916868,2055.22324445423
-0.463069252204236,2055.23324445423
-0.467447213502159,2055.24324445423
-0.471630993260261,2055.25324445423
-0.475877248801049,2055.26324445423
-0.480562888333025,2055.27324445423
-0.485535747392954,2055.28324445423
-0.491150407002655,2055.29324445423
-0.496724161046513,2055.30324445423
-0.502209440460376,2055.31324445423
-0.508224745649676,2055.32324445423
-0.5134322424316,2055.33324445423
-0.519423002876289,2055.34324445423
-0.52564221421275,2055.35324445423
-0.53218018111725,2055.36324445423
-0.539655368902678,2055.37324445423
-0.547014804312961,2055.38324445423
-0.553357008344633,2055.39324445423
-0.558483237681337,2055.40324445423
-0.560864276247096,2055.41324445423
-0.560394384636043,2055.42324445423
-0.555545476689715,2055.43324445423
-0.544122113587386,2055.44324445423
-0.524669971178839,2055.45324445423
-0.496923635132952,2055.46324445423
-0.46197294553693,2055.47324445423
-0.423040891266219,2055.48324445423
-0.383377257010666,2055.49324445423
-0.347522026542656,2055.50324445423
-0.318418328121062,2055.51324445423
-0.297224045069969,2055.52324445423
-0.284388082498565,2055.53324445423
-0.27924712207746,2055.54324445423
-0.279434275956562,2055.55324445423
-0.283810562201134,2055.56324445423
-0.290118829803249,2055.57324445423
-0.296837747021713,2055.58324445423
-0.302748699542891,2055.59324445423
-0.307102515965775,2055.60324445423
-0.308916903454849,2055.61324445423
-0.308432202256894,2055.62324445423
-0.306072090705292,2055.63324445423
-0.301845714902901,2055.64324445423
-0.29687333622529,2055.65324445423
-0.291054465023848,2055.66324445423
-0.285180545911693,2055.67324445423
-0.279404603103071,2055.68324445423
-0.273896288879232,2055.69324445423
-0.269613531917204,2055.70324445423
-0.26647237167173,2055.71324445423
-0.265121257207929,2055.72324445423
-0.266140805552518,2055.73324445423
-0.269196491760899,2055.74324445423
-0.274902918522963,2055.75324445423
-0.281519435820248,2055.76324445423
-0.288269973708274,2055.77324445423
-0.2943401611726,2055.78324445423
-0.297917845694507,2055.79324445423
-0.298426282615321,2055.80324445423
-0.296320633798948,2055.81324445423
-0.292382510180174,2055.82324445423
-0.287133010220241,2055.83324445423
-0.282176566453651,2055.84324445423
-0.277769121888752,2055.85324445423
-0.274296001327918,2055.86324445423
-0.272244000592513,2055.87324445423
-0.271474262490919,2055.88324445423
-0.271478923142993,2055.89324445423
-0.27193270711377,2055.90324445423
-0.273619870415493,2055.91324445423
-0.27557027980959,2055.92324445423
-0.278350906389002,2055.93324445423
-0.281850245375361,2055.94324445423
-0.28639755208542,2055.95324445423
-0.291302867754885,2055.96324445423
-0.296452060312488,2055.97324445423
-0.302080418804698,2055.98324445423
-0.307721936102288,2055.99324445423
-0.313167682910728,2056.00324445423
-0.318914907623297,2056.01324445423
-0.324411211884258,2056.02324445423
-0.329698917482072,2056.03324445423
-0.334837565992012,2056.04324445423
-0.339960232172852,2056.05324445423
-0.34520102885961,2056.06324445423
-0.350683073520391,2056.07324445423
-0.356921328325686,2056.08324445423
-0.362325784895127,2056.09324445423
-0.366281639978875,2056.10324445423
-0.37023331137222,2056.11324445423
-0.37348049730314,2056.12324445423
-0.376772878219877,2056.13324445423
-0.380772450111071,2056.14324445423
-0.385142529834157,2056.15324445423
-0.389516038400769,2056.16324445423
-0.394016091936477,2056.17324445423
-0.398409309625288,2056.18324445423
-0.403035352858031,2056.19324445423
-0.407484406258017,2056.20324445423
-0.412219786925913,2056.21324445423
-0.416875919734891,2056.22324445423
-0.420751246940354,2056.23324445423
-0.423829963002689,2056.24324445423
-0.426347144418576,2056.25324445423
-0.429395618529606,2056.26324445423
-0.432583303591825,2056.27324445423
-0.43681783023237,2056.28324445423
-0.441329707818722,2056.29324445423
-0.445294752599853,2056.30324445423
-0.449409151769985,2056.31324445423
-0.453410157389788,2056.32324445423
-0.457245566307362,2056.33324445423
-0.461133709327005,2056.34324445423
-0.464333987605332,2056.35324445423
-0.467662169521743,2056.36324445423
-0.470705386276931,2056.37324445423
-0.473953170027903,2056.38324445423
-0.477371339086439,2056.39324445423
-0.480684778671815,2056.40324445423
-0.484337583281876,2056.41324445423
-0.487416851226762,2056.42324445423
-0.490949523727043,2056.43324445423
-0.495144474140642,2056.44324445423
-0.499669428315645,2056.45324445423
-0.504557013364483,2056.46324445423
-0.510104294198915,2056.47324445423
-0.515272768871159,2056.48324445423
-0.519408676350371,2056.49324445423
-0.521026181453534,2056.50324445423
-0.51827795509636,2056.51324445423
-0.509386377127583,2056.52324445423
-0.492953066361927,2056.53324445423
-0.469055421682501,2056.54324445423
-0.438641306126445,2056.55324445423
-0.404452062410299,2056.56324445423
-0.369868977982012,2056.57324445423
-0.338464257284807,2056.58324445423
-0.31293121385202,2056.59324445423
-0.294975894803311,2056.60324445423
-0.28437339767861,2056.61324445423
-0.280152352710983,2056.62324445423
-0.281564652990605,2056.63324445423
-0.287291054909634,2056.64324445423
-0.294909210057342,2056.65324445423
-0.302966863360906,2056.66324445423
-0.310375904236672,2056.67324445423
-0.315719645409499,2056.68324445423
-0.318984403907838,2056.69324445423
-0.320749405989086,2056.70324445423
-0.320507040824111,2056.71324445423
-0.318645437292512,2056.72324445423
-0.315890045015641,2056.73324445423
-0.312307377221083,2056.74324445423
-0.308505140806629,2056.75324445423
-0.304856531778254,2056.76324445423
-0.301564189552795,2056.77324445423
-0.29857106283183,2056.78324445423
-0.296425793702668,2056.79324445423
-0.295666710819665,2056.80324445423
-0.29695691005213,2056.81324445423
-0.300514276241035,2056.82324445423
-0.305245438875129,2056.83324445423
-0.30972180593247,2056.84324445423
-0.312784896727548,2056.85324445423
-0.313545517936817,2056.86324445423
-0.312022662964132,2056.87324445423
-0.308488902699707,2056.88324445423
-0.303510216222242,2056.89324445423
-0.297697871642802,2056.90324445423
-0.291406431763927,2056.91324445423
-0.285242550899797,2056.92324445423
-0.280313491121918,2056.93324445423
-0.276202352821957,2056.94324445423
-0.273004747823303,2056.95324445423
-0.270686072018545,2056.96324445423
-0.268926308570987,2056.97324445423
-0.26788475941469,2056.98324445423
-0.267330116693719,2056.99324445423
-0.266322420512497,2057.00324445423
-0.265895424055291,2057.01324445423
-0.265494082116025,2057.02324445423
-0.265219654829579,2057.03324445423
-0.264875058010721,2057.04324445423
-0.265099551704838,2057.05324445423
-0.265200257580812,2057.06324445423
-0.265194414417098,2057.07324445423
-0.265366125948505,2057.08324445423
-0.265022804262145,2057.09324445423
-0.264177462971972,2057.10324445423
-0.262891672438919,2057.11324445423
-0.261548021272961,2057.12324445423
-0.260454459152376,2057.13324445423
-0.259763826274067,2057.14324445423
-0.259578532139259,2057.15324445423
-0.259522040617795,2057.16324445423
-0.259445536835578,2057.17324445423
-0.259520607021411,2057.18324445423
-0.260043620128141,2057.19324445423
-0.260808263719322,2057.20324445423
-0.261873567190646,2057.21324445423
-0.263441168098072,2057.22324445423
-0.265375453168455,2057.23324445423
-0.26770206691633,2057.24324445423
-0.27019549852837,2057.25324445423
-0.272396772454028,2057.26324445423
-0.274909868016048,2057.27324445423
-0.276695036073282,2057.28324445423
-0.278890958444062,2057.29324445423
-0.280540543673628,2057.30324445423
-0.282090568092755,2057.31324445423
-0.284218874799238,2057.32324445423
-0.286382294138859,2057.33324445423
-0.289104357221664,2057.34324445423
-0.291611845422214,2057.35324445423
-0.293355303652855,2057.36324445423
-0.294870172467301,2057.37324445423
-0.295755278962701,2057.38324445423
-0.297112852135484,2057.39324445423
-0.299121570309397,2057.40324445423
-0.302187380854361,2057.41324445423
-0.305971799815677,2057.42324445423
-0.310226528836645,2057.43324445423
-0.314654043375681,2057.44324445423
-0.31881355988761,2057.45324445423
-0.322477745591971,2057.46324445423
-0.325563120075333,2057.47324445423
-0.32814424942712,2057.48324445423
-0.330249538699126,2057.49324445423
-0.331784690025009,2057.50324445423
-0.331189428389221,2057.51324445423
-0.326788144382477,2057.52324445423
-0.315682287626401,2057.53324445423
-0.296623507418943,2057.54324445423
-0.269048250425914,2057.55324445423
-0.23500675800559,2057.56324445423
-0.197527632193393,2057.57324445423
-0.160531263710977,2057.58324445423
-0.127759461732804,2057.59324445423
-0.101394905133194,2057.60324445423
-0.0827155031090639,2057.61324445423
-0.0711247122790094,2057.62324445423
-0.0667980722017631,2057.63324445423
-0.067368690027828,2057.64324445423
-0.071615868142565,2057.65324445423
-0.0772062625618572,2057.66324445423
-0.0830285275868087,2057.67324445423
-0.0879882625263311,2057.68324445423
-0.0912921470246484,2057.69324445423
-0.0923343433399033,2057.70324445423
-0.0909547066388416,2057.71324445423
-0.0872430921538516,2057.72324445423
-0.081275772816346,2057.73324445423
-0.0738447817084006,2057.74324445423
-0.0658788069910984,2057.75324445423
-0.0581288559926056,2057.76324445423
-0.0511651023372251,2057.77324445423
-0.0450529655096479,2057.78324445423
-0.0405001442468653,2057.79324445423
-0.0379027545227516,2057.80324445423
-0.0379268546085067,2057.81324445423
-0.0398759257897615,2057.82324445423
-0.0436112069656626,2057.83324445423
-0.0475538768054565,2057.84324445423
-0.050833560560019,2057.85324445423
-0.0525854291118478,2057.86324445423
-0.0522926563745787,2057.87324445423
-0.049949285801446,2057.88324445423
-0.0458730101168645,2057.89324445423
-0.0402485744525491,2057.90324445423
-0.033682180912989,2057.91324445423
-0.0268301534847599,2057.92324445423
-0.0209051070103544,2057.93324445423
-0.0163305078961477,2057.94324445423
-0.0133629396528878,2057.95324445423
-0.012191447131062,2057.96324445423
-0.0122386346771171,2057.97324445423
-0.0128134608756846,2057.98324445423
-0.0136093663103301,2057.99324445423
-0.0153870752142944,2058.00324445423
-0.0169940036321751,2058.01324445423
-0.0191009591248973,2058.02324445423
-0.0221534332792845,2058.03324445423
-0.0253541344895021,2058.04324445423
-0.0293425231643597,2058.05324445423
-0.0329432546705516,2058.06324445423
-0.0366963348339118,2058.07324445423
-0.0401271987742482,2058.08324445423
-0.0437528918436446,2058.09324445423
-0.048020703868854,2058.10324445423
-0.0526683235438841,2058.11324445423
-0.0574348097951189,2058.12324445423
-0.061810199499424,2058.13324445423
-0.0665562872352079,2058.14324445423
-0.0708430581629253,2058.15324445423
-0.0744104590221453,2058.16324445423
-0.077958840860926,2058.17324445423
-0.0812008490741151,2058.18324445423
-0.0842399704530592,2058.19324445423
-0.0876111494877663,2058.20324445423
-0.0906792718992483,2058.21324445423
-0.0943113348642668,2058.22324445423
-0.0979672617231389,2058.23324445423
-0.101568760646608,2058.24324445423
-0.10504188702418,2058.25324445423
-0.108501973455772,2058.26324445423
-0.112124647528754,2058.27324445423
-0.116142015801238,2058.28324445423
-0.120703715092606,2058.29324445423
-0.125153547131393,2058.30324445423
-0.130283125494061,2058.31324445423
-0.135212642015096,2058.32324445423
-0.140593672037948,2058.33324445423
-0.145046389320652,2058.34324445423
-0.148607850973684,2058.35324445423
-0.151634964820354,2058.36324445423
-0.154174938407629,2058.37324445423
-0.15688505267809,2058.38324445423
-0.159932105919726,2058.39324445423
-0.163853310187434,2058.40324445423
-0.168187897107339,2058.41324445423
-0.172766433958726,2058.42324445423
-0.177087651145959,2058.43324445423
-0.180870938450174,2058.44324445423
-0.183565700423903,2058.45324445423
-0.186087239451268,2058.46324445423
-0.188662183944652,2058.47324445423
-0.191775560926549,2058.48324445423
-0.196196133350896,2058.49324445423
-0.201497106205832,2058.50324445423
-0.206688538799106,2058.51324445423
-0.211318716334561,2058.52324445423
-0.216302533081572,2058.53324445423
-0.22153618760432,2058.54324445423
-0.227035848878629,2058.55324445423
-0.232408175578607,2058.56324445423
-0.237424029090939,2058.57324445423
-0.241368200556987,2058.58324445423
-0.243531219860083,2058.59324445423
-0.243227530924429,2058.60324445423
-0.237183880385968,2058.61324445423
-0.223227682067841,2058.62324445423
-0.199531294249794,2058.63324445423
-0.166615064226533,2058.64324445423
-0.127868727223777,2058.65324445423
-0.0866995526316067,2058.66324445423
-0.0473084981986833,2058.67324445423
-0.013568107460163,2058.68324445423
0.0128057283402302,2058.69324445423
0.0304538861956259,2058.70324445423
0.0396393148704374,2058.71324445423
0.0423811602462826,2058.72324445423
0.0397572033911975,2058.73324445423
0.0337491732869353,2058.74324445423
0.0263449047473508,2058.75324445423
0.0195457276096054,2058.76324445423
0.0142451354804105,2058.77324445423
0.011099582695817,2058.78324445423
0.0107219044849287,2058.79324445423
0.0127480352761425,2058.80324445423
0.016322708166887,2058.81324445423
0.0216639185209134,2058.82324445423
0.0280963022842727,2058.83324445423
0.0344837214385722,2058.84324445423
0.0408198777851717,2058.85324445423
0.0463640876251059,2058.86324445423
0.0510628148345755,2058.87324445423
0.0552264667175632,2058.88324445423
0.0578026624406887,2058.89324445423
0.058565004911915,2058.90324445423
0.05730201986299,2058.91324445423
0.053993254454919,2058.92324445423
0.0497159261736577,2058.93324445423
0.0455804923845631,2058.94324445423
0.0423195505551085,2058.95324445423
0.0404621938856403,2058.96324445423
0.0400229200876628,2058.97324445423
0.0415872693114916,2058.98324445423
0.0447818857599775,2058.99324445423
0.0493780221709892,2059.00324445423
0.0543328702284452,2059.01324445423
0.0584263287531993,2059.02324445423
0.0626756144176749,2059.03324445423
0.0662417043275216,2059.04324445423
0.0684669963993318,2059.05324445423
0.0697159294755779,2059.06324445423
0.0702867433924213,2059.07324445423
0.0701237595172245,2059.08324445423
0.0694187202532116,2059.09324445423
0.0670038429737671,2059.10324445423
0.0644226722213172,2059.11324445423
0.0608300043582163,2059.12324445423
0.0567284674827543,2059.13324445423
0.0527945007256504,2059.14324445423
0.0489813249096019,2059.15324445423
0.0444956247311545,2059.16324445423
0.0404423886147254,2059.17324445423
0.0361034202898814,2059.18324445423
0.0316051459428902,2059.19324445423
0.0272411244247048,2059.20324445423
0.0223014768489266,2059.21324445423
0.0174902337771224,2059.22324445423
0.0125062947186763,2059.23324445423
0.00730163099955196,2059.24324445423
0.00231112506490172,2059.25324445423
-0.00215871732577461,2059.26324445423
-0.00630017530555233,2059.27324445423
-0.00989492359632825,2059.28324445423
-0.013626957072726,2059.29324445423
-0.0175438909677059,2059.30324445423
-0.0220204995833816,2059.31324445423
-0.0267830329077377,2059.32324445423
-0.031210414981645,2059.33324445423
-0.0355365899738716,2059.34324445423
-0.0398592668579355,2059.35324445423
-0.044034646339841,2059.36324445423
-0.0487642724297492,2059.37324445423
-0.0536393678934109,2059.38324445423
-0.0591452488927769,2059.39324445423
-0.0646945208442328,2059.40324445423
-0.0694817413956763,2059.41324445423
-0.0746551034228734,2059.42324445423
-0.0792424955443111,2059.43324445423
-0.0843014035051339,2059.44324445423
-0.0888254527421722,2059.45324445423
-0.0932178188160612,2059.46324445423
-0.0975049684417673,2059.47324445423
-0.101615494535994,2059.48324445423
-0.105715083823063,2059.49324445423
-0.109688204469484,2059.50324445423
-0.113881585447278,2059.51324445423
-0.117926221741894,2059.52324445423
-0.122196221007301,2059.53324445423
-0.126329413629569,2059.54324445423
-0.130821057637958,2059.55324445423
-0.135405614560055,2059.56324445423
-0.140326517206096,2059.57324445423
-0.145570427326721,2059.58324445423
-0.150166922960496,2059.59324445423
-0.154431925374327,2059.60324445423
-0.158640123527152,2059.61324445423
-0.163324174947978,2059.62324445423
-0.168329598944256,2059.63324445423
-0.173446175946859,2059.64324445423
-0.178935129554294,2059.65324445423
-0.183164260984716,2059.66324445423
-0.187145655933712,2059.67324445423
-0.188917833736282,2059.68324445423
-0.188075810602814,2059.69324445423
-0.182265001228399,2059.70324445423
-0.169119853822232,2059.71324445423
-0.147189649294393,2059.72324445423
-0.117244257714406,2059.73324445423
-0.0815248643890194,2059.74324445423
-0.04417893928131,2059.75324445423
-0.00882247776443691,2059.76324445423
0.0220905831392445,2059.77324445423
0.0461535788326191,2059.78324445423
0.0621336414567506,2059.79324445423
0.0709974317915237,2059.80324445423
0.0730228153243303,2059.81324445423
0.0699915374904911,2059.82324445423
0.0641945733136989,2059.83324445423
0.0565649994649424,2059.84324445423
0.0488182500130977,2059.85324445423
0.0419508998273678,2059.86324445423
0.037362545697582,2059.87324445423
0.0352610823796782,2059.88324445423
0.0359524434933343,2059.89324445423
0.0388508557720871,2059.90324445423
0.0431380465761227,2059.91324445423
0.0488774326437061,2059.92324445423
0.0548945425312231,2059.93324445423
0.0614633517972933,2059.94324445423
0.0675371693979898,2059.95324445423
0.0723979348294006,2059.96324445423
0.0759792971991894,2059.97324445423
0.077293271653875,2059.98324445423
0.0761630894179114,2059.99324445423
0.0726480111666344,2060.00324445423
0.0667922021261564,2060.01324445423
0.0594189371263699,2060.02324445423
0.0522474666107902,2060.03324445423
0.0473018759245594,2060.04324445423
0.0442700561136073,2060.05324445423
0.0439202852390962,2060.06324445423
0.0450680154001788,2060.07324445423
0.0471379452138827,2060.08324445423
0.0498574447270319,2060.09324445423
0.0523417915801959,2060.10324445423
0.0548587745602004,2060.11324445423
0.0574018081125236,2060.12324445423
0.059502941909441,2060.13324445423
0.0603551553717606,2060.14324445423
0.0610932481897188,2060.15324445423
0.0604741422719614,2060.16324445423
0.0588612434486214,2060.17324445423
0.0558771336290244,2060.18324445423
0.0519653316559596,2060.19324445423
0.0470492085456713,2060.20324445423
0.042191273495858,2060.21324445423
0.0371987574858386,2060.22324445423
0.0321761094284209,2060.23324445423
0.0271048624553855,2060.24324445423
0.0218220128577095,2060.25324445423
0.0173697414701049,2060.26324445423
0.0133380932995025,2060.27324445423
0.00952285516330348,2060.28324445423
0.00489659826466119,2060.29324445423
7.62498020200079e-06,2060.30324445423
-0.00441369635162471,2060.31324445423
-0.00915953085260441,2060.32324445423
-0.0132439950344724,2060.33324445423
-0.0168702601269422,2060.34324445423
-0.0206306091551852,2060.35324445423
-0.0242078173984923,2060.36324445423
-0.027677783945772,2060.37324445423
-0.0310909073472104,2060.38324445423
-0.0342275812862036,2060.39324445423
-0.0382313897794939,2060.40324445423
-0.0422962157762897,2060.41324445423
-0.0466370626590057,2060.42324445423
-0.0513459465424995,2060.43324445423
-0.0563799017066385,2060.44324445423
-0.0613891363967565,2060.45324445423
-0.0659627465869044,2060.46324445423
-0.0707926645204442,2060.47324445423
-0.0752330541707167,2060.48324445423
-0.0797907070650223,2060.49324445423
-0.0842815295389609,2060.50324445423
-0.089261817208872,2060.51324445423
-0.0942583155769119,2060.52324445423
-0.100091222945847,2060.53324445423
-0.106092814160041,2060.54324445423
-0.1114493632835,2060.55324445423
-0.116476513691258,2060.56324445423
-0.121207349097676,2060.57324445423
-0.125394820642715,2060.58324445423
-0.129103884308686,2060.59324445423
-0.133592568529371,2060.60324445423
-0.138400731994056,2060.61324445423
-0.142901779080601,2060.62324445423
-0.14765127122694,2060.63324445423
-0.153007392557303,2060.64324445423
-0.158316810929504,2060.65324445423
-0.164142046624695,2060.66324445423
-0.169953722991944,2060.67324445423
-0.17608890582043,2060.68324445423
-0.181531147940003,2060.69324445423
-0.187089793505574,2060.70324445423
-0.192628541346108,2060.71324445423
-0.198029181136374,2060.72324445423
-0.203626591386518,2060.73324445423
-0.209161970718169,2060.74324445423
-0.214325491185007,2060.75324445423
-0.21761126586272,2060.76324445423
-0.216818673752648,2060.77324445423
-0.209646724201786,2060.78324445423
-0.193947828622583,2060.79324445423
-0.169701213723919,2060.80324445423
-0.138262184594085,2060.81324445423
-0.103413375133373,2060.82324445423
-0.0685691704229552,2060.83324445423
-0.0372826605779304,2060.84324445423
-0.0126505916999862,2060.85324445423
0.00478446763142452,2060.86324445423
0.0145539551536728,2060.87324445423
0.0173610361208961,2060.88324445423
0.0149211898559947,2060.89324445423
0.00852620135044755,2060.90324445423
1.75466825993637e-05,2060.91324445423
-0.00963211691106732,2060.92324445423
-0.0187924182462072,2060.93324445423
-0.0261659550911533,2060.94324445423
-0.0315343639046036,2060.95324445423
-0.0344185109582941,2060.96324445423
-0.0341112760978244,2060.97324445423
-0.0324961159541911,2060.98324445423
-0.03000714984163,2060.99324445423
-0.0268380928298538,2061.00324445423
-0.0235275708832303,2061.01324445423
-0.0200363759384854,2061.02324445423
-0.0164762450149902,2061.03324445423
-0.0138951352097927,2061.04324445423
-0.0127219358025357,2061.05324445423
-0.0138748912569651,2061.06324445423
-0.0172467931417765,2061.07324445423
-0.0227247281772807,2061.08324445423
-0.0290541808123309,2061.09324445423
-0.0351294690258417,2061.10324445423
-0.039895474079138,2061.11324445423
-0.0430478852897513,2061.12324445423
-0.0436959105966906,2061.13324445423
-0.0423374956398623,2061.14324445423
-0.0393799520996698,2061.15324445423
-0.0352678929491826,2061.16324445423
-0.0306077266194593,2061.17324445423
-0.026309247029864,2061.18324445423
-0.0224645711379559,2061.19324445423
-0.0194412125255698,2061.20324445423
-0.0177331268652823,2061.21324445423
-0.0172742577399371,2061.22324445423
-0.0182268358905608,2061.23324445423
-0.0198843386593638,2061.24324445423
-0.022558610464702,2061.25324445423
-0.0256371085597908,2061.26324445423
-0.0296837015029484,2061.27324445423
-0.0337145338932164,2061.28324445423
-0.03853603835891,2061.29324445423
-0.0438468968982868,2061.30324445423
-0.0487876379568199,2061.31324445423
-0.0541549689502214,2061.32324445423
-0.0593994297427218,2061.33324445423
-0.0646138958306281,2061.34324445423
-0.0698649549804378,2061.35324445423
-0.0748483250328804,2061.36324445423
-0.079993115612844,2061.37324445423
-0.0851013345434727,2061.38324445423
-0.0901808503462314,2061.39324445423
-0.094859165327188,2061.40324445423
-0.0998364963293817,2061.41324445423
-0.104841924941513,2061.42324445423
-0.108954925486938,2061.43324445423
-0.113057695390352,2061.44324445423
-0.116951081766959,2061.45324445423
-0.121100831636964,2061.46324445423
-0.125420328345381,2061.47324445423
-0.1294526461665,2061.48324445423
-0.133511020502627,2061.49324445423
-0.137686615124076,2061.50324445423
-0.14199194976525,2061.51324445423
-0.146193596887181,2061.52324445423
-0.150409000975189,2061.53324445423
-0.154870315623743,2061.54324445423
-0.158623210861425,2061.55324445423
-0.162300642039872,2061.56324445423
-0.165696602212915,2061.57324445423
-0.168758250096868,2061.58324445423
-0.171940689366945,2061.59324445423
-0.176374550424689,2061.60324445423
-0.18131828060908,2061.61324445423
-0.18692435790739,2061.62324445423
-0.192711655291783,2061.63324445423
-0.19793223953501,2061.64324445423
-0.201988361995794,2061.65324445423
-0.205626623250004,2061.66324445423
-0.2090313765832,2061.67324445423
-0.212599105509889,2061.68324445423
-0.21626299037964,2061.69324445423
-0.219998599478996,2061.70324445423
-0.224182008805697,2061.71324445423
-0.228553002855869,2061.72324445423
-0.233943435870088,2061.73324445423
-0.239889879982036,2061.74324445423
-0.245859974546772,2061.75324445423
-0.252002222706586,2061.76324445423
-0.258014233138265,2061.77324445423
-0.263785528735087,2061.78324445423
-0.268789522228056,2061.79324445423
-0.271852875783532,2061.80324445423
-0.273207768681323,2061.81324445423
-0.271429276817765,2061.82324445423
-0.264029965524314,2061.83324445423
-0.249782532686386,2061.84324445423
-0.227685349713229,2061.85324445423
-0.199524122800932,2061.86324445423
-0.168086827555507,2061.87324445423
-0.136726228176769,2061.88324445423
-0.108909531004055,2061.89324445423
-0.0873981299356543,2061.90324445423
-0.0736681724073627,2061.91324445423
-0.067026211154932,2061.92324445423
-0.0674851726574235,2061.93324445423
-0.0725648786732998,2061.94324445423
-0.0810484161693979,2061.95324445423
-0.0915194389838282,2061.96324445423
-0.102117866702851,2061.97324445423
-0.112238722093969,2061.98324445423
-0.120717488954076,2061.99324445423
-0.127283685920501,2062.00324445423
-0.131408479798812,2062.01324445423
-0.13331398313512,2062.02324445423
-0.133236321449523,2062.03324445423
-0.131181048808541,2062.04324445423
-0.128118140212928,2062.05324445423
-0.124802466640394,2062.06324445423
-0.121528895912355,2062.07324445423
-0.119336377618547,2062.08324445423
-0.118534215412082,2062.09324445423
-0.11995489477747,2062.10324445423
-0.123263202361405,2062.11324445423
-0.128955800827153,2062.12324445423
-0.136488583139469,2062.13324445423
-0.144661390329316,2062.14324445423
-0.151990428557352,2062.15324445423
-0.157385732965235,2062.16324445423
-0.160229495849364,2062.17324445423
-0.161791561031073,2062.18324445423
-0.161649167805199,2062.19324445423
-0.160520512347576,2062.20324445423
-0.159100387526584,2062.21324445423
-0.157401962905296,2062.22324445423
-0.156044344756339,2062.23324445423
-0.156240930655684,2062.24324445423
-0.157568212504062,2062.25324445423
-0.160921945807127,2062.26324445423
-0.16475237724553,2062.27324445423
-0.170101866626512,2062.28324445423
-0.176430358140346,2062.29324445423
-0.18356889117017,2062.30324445423
-0.19193116981661,2062.31324445423
-0.200094454255646,2062.32324445423
-0.208657192326653,2062.33324445423
-0.216585549126952,2062.34324445423
-0.224646317515769,2062.35324445423
-0.232432633043975,2062.36324445423
-0.241288253422482,2062.37324445423
-0.249995215170674,2062.38324445423
-0.259175603443069,2062.39324445423
-0.267958787514204,2062.40324445423
-0.276229459192009,2062.41324445423
-0.283990058007522,2062.42324445423
-0.290798086516245,2062.43324445423
-0.296748856471148,2062.44324445423
-0.30288933881771,2062.45324445423
-0.308635035240872,2062.46324445423
-0.314240615710364,2062.47324445423
-0.319834528056265,2062.48324445423
-0.3245798459797,2062.49324445423
-0.328579467937123,2062.50324445423
-0.332521771725438,2062.51324445423
-0.336315767559026,2062.52324445423
-0.340119140577928,2062.53324445423
-0.344719463935795,2062.54324445423
-0.348853210222354,2062.55324445423
-0.353213388347017,2062.56324445423
-0.3575508890859,2062.57324445423
-0.362005058497321,2062.58324445423
-0.36637424543161,2062.59324445423
-0.370279883154442,2062.60324445423
-0.373413873577041,2062.61324445423
-0.375895649000187,2062.62324445423
-0.378721932954866,2062.63324445423
-0.382053619340568,2062.64324445423
-0.3857482354229,2062.65324445423
-0.390016549914545,2062.66324445423
-0.394679737115974,2062.67324445423
-0.399464968265126,2062.68324445423
-0.404113873640746,2062.69324445423
-0.408621531477869,2062.70324445423
-0.412480730208838,2062.71324445423
-0.416311946633408,2062.72324445423
-0.420170508888314,2062.73324445423
-0.424098916539601,2062.74324445423
-0.428505113119617,2062.75324445423
-0.432666387112209,2062.76324445423
-0.435633869432082,2062.77324445423
-0.437207817149664,2062.78324445423
-0.436930691436322,2062.79324445423
-0.433354485815661,2062.80324445423
-0.424315514152784,2062.81324445423
-0.408598155288833,2062.82324445423
-0.385322282591684,2062.83324445423
-0.356362725841929,2062.84324445423
-0.323555515645941,2062.85324445423
-0.29115249827775,2062.86324445423
-0.262339157536605,2062.87324445423
-0.239282527179635,2062.88324445423
-0.224081239612297,2062.89324445423
-0.215971596473019,2062.90324445423
-0.21483300223091,2062.91324445423
-0.218908283195117,2062.92324445423
-0.226011202081217,2062.93324445423
-0.235245132510922,2062.94324445423
-0.244227945928525,2062.95324445423
-0.252545841337489,2062.96324445423
-0.258587421584285,2062.97324445423
-0.261948937590517,2062.98324445423
-0.261935947317347,2062.99324445423
-0.258899638106473,2063.00324445423
-0.25353092825795,2063.01324445423
-0.247263877449932,2063.02324445423
-0.240251830020539,2063.03324445423
-0.232788643992968,2063.04324445423
-0.224984893249109,2063.05324445423
-0.217229805549698,2063.06324445423
-0.209618882675035,2063.07324445423
-0.203716286318897,2063.08324445423
-0.199284012716775,2063.09324445423
-0.196892391637611,2063.10324445423
-0.195322801320643,2063.11324445423
-0.19368839714221,2063.12324445423
-0.189918048414803,2063.13324445423
-0.183458311433265,2063.14324445423
-0.174491648333465,2063.15324445423
-0.163308973424619,2063.16324445423
-0.150941204583502,2063.17324445423
-0.138792464691088,2063.18324445423
-0.12733663680726,2063.19324445423
-0.116823268519856,2063.20324445423
-0.10743096104162,2063.21324445423
-0.100140733166481,2063.22324445423
-0.09358069826543,2063.23324445423
-0.0893601791728276,2063.24324445423
-0.0868079028714033,2063.25324445423
-0.0854770834702818,2063.26324445423
-0.0857009257262249,2063.27324445423
-0.0876303613949556,2063.28324445423
-0.0905741423502427,2063.29324445423
-0.0942398810278012,2063.30324445423
-0.0979511125256255,2063.31324445423
-0.100723938653373,2063.32324445423
-0.102998572379827,2063.33324445423
-0.104638948003873,2063.34324445423
-0.105923586785098,2063.35324445423
-0.106633180610926,2063.36324445423
-0.106875444646061,2063.37324445423
-0.106529222641168,2063.38324445423
-0.106188311464143,2063.39324445423
-0.105223314590341,2063.40324445423
-0.104373781372318,2063.41324445423
-0.102899046723863,2063.42324445423
-0.101407062446593,2063.43324445423
-0.100147357651313,2063.44324445423
-0.0980984633044952,2063.45324445423
-0.0964448445936123,2063.46324445423
-0.0941725849366146,2063.47324445423
-0.09271632617464,2063.48324445423
-0.091887277197153,2063.49324445423
-0.0915923407208075,2063.50324445423
-0.0923715682666982,2063.51324445423
-0.0939473624692495,2063.52324445423
-0.0957590069235015,2063.53324445423
-0.0973468604388544,2063.54324445423
-0.0990789830945952,2063.55324445423
-0.100567129044396,2063.56324445423
-0.10178335244921,2063.57324445423
-0.102573143026279,2063.58324445423
-0.103208108266701,2063.59324445423
-0.10342822772697,2063.60324445423
-0.104097313931856,2063.61324445423
-0.104841840903815,2063.62324445423
-0.106024154507939,2063.63324445423
-0.107701631136091,2063.64324445423
-0.109829148984465,2063.65324445423
-0.111520938819101,2063.66324445423
-0.113192395590523,2063.67324445423
-0.114723890822629,2063.68324445423
-0.116498859970315,2063.69324445423
-0.119332826027299,2063.70324445423
-0.122147128744863,2063.71324445423
-0.12487975184338,2063.72324445423
-0.126811364825937,2063.73324445423
-0.12769021545644,2063.74324445423
-0.127625412443563,2063.75324445423
-0.125784885421941,2063.76324445423
-0.121167383510081,2063.77324445423
-0.111637796796306,2063.78324445423
-0.0951855416516255,2063.79324445423
-0.0703722164947608,2063.80324445423
-0.0381239917066402,2063.81324445423
-0.00154177362776965,2063.82324445423
0.0358413863066716,2063.83324445423
0.070633263837164,2063.84324445423
0.0991291362650927,2063.85324445423
0.121310721084222,2063.86324445423
0.135594629172637,2063.87324445423
0.143147068826774,2063.88324445423
0.145106854597337,2063.89324445423
0.143195486307834,2063.90324445423
0.138604856426402,2063.91324445423
0.132332864268231,2063.92324445423
0.126264856181845,2063.93324445423
0.121763913190123,2063.94324445423
0.119006833154603,2063.95324445423
0.118345861581506,2063.96324445423
0.118999272000138,2063.97324445423
0.120731955746818,2063.98324445423
0.123532245493082,2063.99324445423
0.126968565885202,2064.00324445423
0.130984035459645,2064.01324445423
0.13563876725034,2064.02324445423
0.14003770558654,2064.03324445423
0.144018325827806,2064.04324445423
0.146579416277328,2064.05324445423
0.147083396534936,2064.06324445423
0.14559503665975,2064.07324445423
0.141505150650753,2064.08324445423
0.135311251923174,2064.09324445423
0.127900132040166,2064.10324445423
0.120029236628205,2064.11324445423
0.113865832628542,2064.12324445423
0.1099146600287,2064.13324445423
0.107647635207538,2064.14324445423
0.107332682826205,2064.15324445423
0.108404615552535,2064.16324445423
0.109793893406768,2064.17324445423
0.111827767065847,2064.18324445423
0.114002120871976,2064.19324445423
0.115317340348014,2064.20324445423
0.115736813720836,2064.21324445423
0.115230076068944,2064.22324445423
0.114341504766335,2064.23324445423
0.112277968170705,2064.24324445423
0.110305920039335,2064.25324445423
0.107520580476143,2064.26324445423
0.10334618978227,2064.27324445423
0.0985894813843725,2064.28324445423
0.0933230806787543,2064.29324445423
0.0871940459734729,2064.30324445423
0.0810808491374546,2064.31324445423
0.0751950965689694,2064.32324445423
0.0692394457038261,2064.33324445423
0.0623439386614033,2064.34324445423
0.0552075808313005,2064.35324445423
0.0481088680053464,2064.36324445423
0.0409201637333747,2064.37324445423
0.0342330887492666,2064.38324445423
0.0286428574628312,2064.39324445423
0.0233664194627234,2064.40324445423
0.017642480499431,2064.41324445423
0.0123662363145668,2064.42324445423
0.00688964924785131,2064.43324445423
0.00119583268405308,2064.44324445423
-0.00481656866727753,2064.45324445423
-0.011109745376352,2064.46324445423
-0.0174497028598869,2064.47324445423
-0.0238986188306385,2064.48324445423
-0.0301976684708487,2064.49324445423
-0.0360414213573222,2064.50324445423
-0.0415074956036885,2064.51324445423
-0.0475881623570641,2064.52324445423
-0.0533285920158888,2064.53324445423
-0.0591883459327875,2064.54324445423
-0.0652137083402775,2064.55324445423
-0.0709997994066032,2064.56324445423
-0.0769015634594015,2064.57324445423
-0.0822524789993265,2064.58324445423
-0.0876719869732916,2064.59324445423
-0.0926112430845558,2064.60324445423
-0.0972860261927201,2064.61324445423
-0.102569586155545,2064.62324445423
-0.107396254284587,2064.63324445423
-0.112047988279503,2064.64324445423
-0.117014316747833,2064.65324445423
-0.121761480826996,2064.66324445423
-0.126622093260123,2064.67324445423
-0.131705725147023,2064.68324445423
-0.137351951414649,2064.69324445423
-0.143257855658683,2064.70324445423
-0.149020022384049,2064.71324445423
-0.154636477172756,2064.72324445423
-0.159729865246532,2064.73324445423
-0.164679398329234,2064.74324445423
-0.170332166485051,2064.75324445423
-0.175665499555945,2064.76324445423
-0.18041153106159,2064.77324445423
-0.183372584349531,2064.78324445423
-0.183283084857955,2064.79324445423
-0.178920037531645,2064.80324445423
-0.167938763492757,2064.81324445423
-0.149434390280407,2064.82324445423
-0.122644178044168,2064.83324445423
-0.0895409988927233,2064.84324445423
-0.0530279417025725,2064.85324445423
-0.0171079005823552,2064.86324445423
0.0148087160398499,2064.87324445423
0.0406190988640416,2064.88324445423
0.0592782601045985,2064.89324445423
0.0703789608387579,2064.90324445423
0.0751111859777423,2064.91324445423
0.0742968306566819,2064.92324445423
0.0693583896606664,2064.93324445423
0.0622895007211116,2064.94324445423
0.0547191227302308,2064.95324445423
0.0475435919585063,2064.96324445423
0.0410974229616318,2064.97324445423
0.0366578285243641,2064.98324445423
0.0349210327757951,2064.99324445423
0.0349667117696037,2065.00324445423
0.037291184275532,2065.01324445423
0.0408509860143767,2065.02324445423
0.0453623865173077,2065.03324445423
0.0500398425803287,2065.04324445423
0.0548891117732497,2065.05324445423
0.0596334234761077,2065.06324445423
0.0634107838769569,2065.07324445423
0.0652595979415031,2065.08324445423
0.0643044834215001,2065.09324445423
0.0605828547879042,2065.10324445423
0.0541573732531862,2065.11324445423
0.0472267653722226,2065.12324445423
0.0408770292850425,2065.13324445423
0.0362405422753391,2065.14324445423
0.0341063728154478,2065.15324445423
0.0350807969274162,2065.16324445423
0.038900204278184,2065.17324445423
0.0447839477632724,2065.18324445423
0.0520012219902185,2065.19324445423
0.0597205481339554,2065.20324445423
0.0669508828608099,2065.21324445423
0.0742613119853118,2065.22324445423
0.0799564749869532,2065.23324445423
0.0847511673144871,2065.24324445423
0.0882349317296462,2065.25324445423
0.090918428580483,2065.26324445423
0.093076655407874,2065.27324445423
0.094192929232721,2065.28324445423
0.0950401019437207,2065.29324445423
0.0956765025798703,2065.30324445423
0.0959424294039891,2065.31324445423
0.095748018670035,2065.32324445423
0.0940831692719686,2065.33324445423
0.0914843426622746,2065.34324445423
0.0880745578160956,2065.35324445423
0.0834570411991834,2065.36324445423
0.0790980170475362,2065.37324445423
0.0743669532612917,2065.38324445423
0.0696412860317751,2065.39324445423
0.0649877176957019,2065.40324445423
0.0606858474397327,2065.41324445423
0.0570739026188477,2065.42324445423
0.0538911252780436,2065.43324445423
0.0512365465494156,2065.44324445423
0.0487380017493966,2065.45324445423
0.0460805306325607,2065.46324445423
0.0426348275803147,2065.47324445423
0.0378364485813001,2065.48324445423
0.0329276897038941,2065.49324445423
0.0272471608709337,2065.50324445423
0.0221560452484777,2065.51324445423
0.0175570928607303,2065.52324445423
0.0132680643410985,2065.53324445423
0.00884920971559682,2065.54324445423
0.00383033243221319,2065.55324445423
-0.0033751280138625,2065.56324445423
-0.013221759424433,2065.57324445423
-0.0251255439391767,2065.58324445423
-0.0379879401834639,2065.59324445423
-0.0516349385475311,2065.60324445423
-0.0652400878241388,2065.61324445423
-0.0786965515208755,2065.62324445423
-0.0922146139563997,2065.63324445423
-0.105039708950277,2065.64324445423
-0.1177398272161,2065.65324445423
-0.130256392425741,2065.66324445423
-0.142539033573027,2065.67324445423
-0.154448571483417,2065.68324445423
-0.166530984156711,2065.69324445423
-0.178669289004189,2065.70324445423
-0.190672939967031,2065.71324445423
-0.202113540819916,2065.72324445423
-0.212418655912209,2065.73324445423
-0.221762093280781,2065.74324445423
-0.229551232264259,2065.75324445423
-0.234800872726545,2065.76324445423
-0.236805196523384,2065.77324445423
-0.233141627654539,2065.78324445423
-0.222338151477508,2065.79324445423
-0.203025799033582,2065.80324445423
-0.1760079086798,2065.81324445423
-0.143524053083648,2065.82324445423
-0.109627855482024,2065.83324445423
-0.0772779721958619,2065.84324445423
-0.0501246382657213,2065.85324445423
-0.0302367750581643,2065.86324445423
-0.0184263684101865,2065.87324445423
-0.013885711456775,2065.88324445423
-0.0155936073060981,2065.89324445423
-0.0209628020666324,2065.90324445423
-0.0290007704021491,2065.91324445423
-0.0384388271314873,2065.92324445423
-0.0480451916659577,2065.93324445423
-0.0572341037815513,2065.94324445423
-0.0649590668428749,2065.95324445423
-0.0709928817398835,2065.96324445423
-0.0750751338400287,2065.97324445423
-0.0769623551134927,2065.98324445423
-0.0767518368119576,2065.99324445423
-0.0747295433720389,2066.00324445423
-0.0716261147961149,2066.01324445423
-0.0688886984798854,2066.02324445423
-0.0668564065862188,2066.03324445423
-0.0669396129923452,2066.04324445423
-0.0689407117404756,2066.05324445423
-0.0735238271781924,2066.06324445423
-0.0800580525696883,2066.07324445423
-0.087586605448238,2066.08324445423
-0.0952391825758948,2066.09324445423
-0.101502951619734,2066.10324445423
-0.10621455312428,2066.11324445423
-0.108581802453915,2066.12324445423
-0.108418570742851,2066.13324445423
-0.10589245583772,2066.14324445423
-0.101545064655612,2066.15324445423
-0.0962279259335887,2066.16324445423
-0.0903343338627283,2066.17324445423
-0.0839806849097375,2066.18324445423
-0.0788564058063217,2066.19324445423
-0.0749972377188542,2066.20324445423
-0.0725842374259799,2066.21324445423
-0.0720194415977788,2066.22324445423
-0.0733157543749403,2066.23324445423
-0.0763151842359698,2066.24324445423
-0.0813891253757589,2066.25324445423
-0.0878844021162417,2066.26324445423
-0.09547861942122,2066.27324445423
-0.104152859620366,2066.28324445423
-0.112522139058975,2066.29324445423
-0.119989289586715,2066.30324445423
-0.127004410985934,2066.31324445423
-0.133258087253437,2066.32324445423
-0.138907016517368,2066.33324445423
-0.144067048307703,2066.34324445423
-0.149064036457727,2066.35324445423
-0.153889720680789,2066.36324445423
-0.158527189363669,2066.37324445423
-0.163123108632957,2066.38324445423
-0.167302487845955,2066.39324445423
-0.172160217746677,2066.40324445423
-0.176909623085642,2066.41324445423
-0.181602014930669,2066.42324445423
-0.18619995808683,2066.43324445423
-0.190156661636977,2066.44324445423
-0.194456865797114,2066.45324445423
-0.198344117615077,2066.46324445423
-0.202255537848035,2066.47324445423
-0.206139478815237,2066.48324445423
-0.210005380526707,2066.49324445423
-0.213831140164922,2066.50324445423
-0.21744205674381,2066.51324445423
-0.220709723241208,2066.52324445423
-0.223546684118922,2066.53324445423
-0.226110686673306,2066.54324445423
-0.228283783958547,2066.55324445423
-0.230437667774411,2066.56324445423
-0.23282715652197,2066.57324445423
-0.236216023885257,2066.58324445423
-0.239677966724574,2066.59324445423
-0.242987842209452,2066.60324445423
-0.246358808557864,2066.61324445423
-0.249854788071146,2066.62324445423
-0.253372796811746,2066.63324445423
-0.257598266777749,2066.64324445423
-0.261837161534335,2066.65324445423
-0.266195507054331,2066.66324445423
-0.270434153340083,2066.67324445423
-0.275194136226418,2066.68324445423
-0.278521096113584,2066.69324445423
-0.280210423752776,2066.70324445423
-0.276714174754226,2066.71324445423
-0.265642834310942,2066.72324445423
-0.245546040733915,2066.73324445423
-0.216659025905005,2066.74324445423
-0.180568507907327,2066.75324445423
-0.140988682157405,2066.76324445423
-0.102095250976343,2066.77324445423
-0.0670355379345601,2066.78324445423
-0.0382733257635059,2066.79324445423
-0.0171629510810359,2066.80324445423
-0.00398331923695358,2066.81324445423
0.00247667680466558,2066.82324445423
0.0029497209391633,2066.83324445423
-0.000552521541680149,2066.84324445423
-0.00650628130182845,2066.85324445423
-0.0136999132854655,2066.86324445423
-0.0206317300078935,2066.87324445423
-0.0262754885877239,2066.88324445423
-0.0294196162283217,2066.89324445423
-0.0302408570500683,2066.90324445423
-0.0279140532483453,2066.91324445423
-0.0234369118634072,2066.92324445423
-0.0171259662933011,2066.93324445423
-0.00987982480900362,2066.94324445423
-0.00266244350425914,2066.95324445423
0.00341651025210407,2066.96324445423
0.00828079381945525,2066.97324445423
0.0110841372009239,2066.98324445423
0.0112939414621206,2066.99324445423
0.00844170131254632,2067.00324445423
0.00334517633856971,2067.01324445423
-0.00266376041900277,2067.02324445423
-0.00842639902614754,2067.03324445423
-0.0123850702246569,2067.04324445423
-0.0134462871001562,2067.05324445423
-0.0118761348446492,2067.06324445423
-0.00738066028788093,2067.07324445423
-0.000520489952058471,2067.08324445423
0.00736310083310828,2067.09324445423
0.0157544405378831,2067.10324445423
0.0240546201790977,2067.11324445423
0.031268409616264,2067.12324445423
0.0368232519262595,2067.13324445423
0.0414171146318955,2067.14324445423
0.0441293163898553,2067.15324445423
0.0453607319925429,2067.16324445423
0.044622659324601,2067.17324445423
0.0425651776296173,2067.18324445423
0.0394533892768938,2067.19324445423
0.0360980109129053,2067.20324445423
0.032098533538904,2067.21324445423
0.0284090358963037,2067.22324445423
0.0243666622923282,2067.23324445423
0.0200296621345916,2067.24324445423
0.0158512436237287,2067.25324445423
0.0118695873439292,2067.26324445423
0.00829211354054557,2067.27324445423
0.00492186726341763,2067.28324445423
0.00227644588702076,2067.29324445423
0.00059904833165125,2067.30324445423
-0.000966676910287424,2067.31324445423
-0.00192179090416678,2067.32324445423
-0.00261828159140383,2067.33324445423
-0.00353672690535442,2067.34324445423
-0.00454400366413247,2067.35324445423
-0.00601728636800434,2067.36324445423
-0.0077791716787785,2067.37324445423
-0.0105538922510742,2067.38324445423
-0.0136190353996535,2067.39324445423
-0.0176233622609329,2067.40324445423
-0.0208703077489693,2067.41324445423
-0.0248048947387307,2067.42324445423
-0.0281427062616609,2067.43324445423
-0.0312910935218919,2067.44324445423
-0.0346782324436702,2067.45324445423
-0.0375233438553902,2067.46324445423
-0.0405270799265592,2067.47324445423
-0.0434988072069057,2067.48324445423
-0.0461662122084062,2067.49324445423
-0.0487341945817984,2067.50324445423
-0.0511210669989579,2067.51324445423
-0.0534344741680982,2067.52324445423
-0.0560329377628484,2067.53324445423
-0.0584825317362784,2067.54324445423
-0.0610178541770658,2067.55324445423
-0.0635996144209565,2067.56324445423
-0.0663589359832271,2067.57324445423
-0.06929927165236,2067.58324445423
-0.0728792194255056,2067.59324445423
-0.0766514583225405,2067.60324445423
-0.0813126693745134,2067.61324445423
-0.0858909370663976,2067.62324445423
-0.0903938414344225,2067.63324445423
-0.095057936615579,2067.64324445423
-0.0992678497896262,2067.65324445423
-0.102157430739108,2067.66324445423
-0.102738041061947,2067.67324445423
-0.0988072989853349,2067.68324445423
-0.0878511041104475,2067.69324445423
-0.0676779741372104,2067.70324445423
-0.0375077776193579,2067.71324445423
-0.000412648350553947,2067.72324445423
0.040634731346041,2067.73324445423
0.080552158500144,2067.74324445423
0.115830254955667,2067.75324445423
0.143856057580098,2067.76324445423
0.163330807996623,2067.77324445423
0.174567950576992,2067.78324445423
0.178511844726555,2067.79324445423
0.176606926098995,2067.80324445423
0.17084236878292,2067.81324445423
0.163554408012612,2067.82324445423
0.156435215316184,2067.83324445423
0.150899071060061,2067.84324445423
0.147076651589784,2067.85324445423
0.145220784385488,2067.86324445423
0.145444991039851,2067.87324445423
0.147390950263143,2067.88324445423
0.15147743722531,2067.89324445423
0.156660213796862,2067.90324445423
0.1628036803965,2067.91324445423
0.169294995053738,2067.92324445423
0.175726254375044,2067.93324445423
0.181928421043721,2067.94324445423
0.186631143643254,2067.95324445423
0.190365597232494,2067.96324445423
0.191029696378084,2067.97324445423
0.188575496870158,2067.98324445423
0.183137471540242,2067.99324445423
0.175933891198302,2068.00324445423
0.168214165760594,2068.01324445423
0.161109802926843,2068.02324445423
0.155906408881511,2068.03324445423
0.15295662255441,2068.04324445423
0.152056279789904,2068.05324445423
0.153856110262105,2068.06324445423
0.157419261360332,2068.07324445423
0.161618913275196,2068.08324445423
0.166336425155518,2068.09324445423
0.170269650524878,2068.10324445423
0.173448186106119,2068.11324445423
0.175359981620653,2068.12324445423
0.176779522795575,2068.13324445423
0.177132540968418,2068.14324445423
0.175419480010087,2068.15324445423
