PPG,time
0.506735795634677,1204.99599888755
1.00153607359036,1205.00599888755
0.873438812188973,1205.01599888755
0.922522622780657,1205.02599888755
0.861250655703845,1205.03599888755
0.863122531970009,1205.04599888755
0.821831597796418,1205.05599888755
0.80706168782868,1205.06599888755
0.777444416022722,1205.07599888755
0.757481040417824,1205.08599888755
0.73369694321013,1205.09599888755
0.711013931712159,1205.10599888755
0.687961372117368,1205.11599888755
0.664175787622617,1205.12599888755
0.640385940125678,1205.13599888755
0.617366207551807,1205.14599888755
0.596132093097897,1205.15599888755
0.577645289743671,1205.16599888755
0.563240197738017,1205.17599888755
0.552802713328132,1205.18599888755
0.546264452843356,1205.19599888755
0.5435842676983,1205.20599888755
0.543850559865463,1205.21599888755
0.545881016615625,1205.22599888755
0.548566327020885,1205.23599888755
0.550867013526655,1205.24599888755
0.552596759551941,1205.25599888755
0.552852915516889,1205.26599888755
0.551152460830771,1205.27599888755
0.546969288438461,1205.28599888755
0.540546028843799,1205.29599888755
0.533117811746306,1205.30599888755
0.523037875622439,1205.31599888755
0.511086771700449,1205.32599888755
0.496579715039942,1205.33599888755
0.4802939085515,1205.34599888755
0.462864105555989,1205.35599888755
0.444478828477642,1205.36599888755
0.425700081467913,1205.37599888755
0.407522310180945,1205.38599888755
0.389725000645022,1205.39599888755
0.372364170882707,1205.40599888755
0.355229626347041,1205.41599888755
0.338648228706563,1205.42599888755
0.322575317993324,1205.43599888755
0.30650175762797,1205.44599888755
0.29051211768655,1205.45599888755
0.27456428173765,1205.46599888755
0.258906494408474,1205.47599888755
0.243323591965192,1205.48599888755
0.227944613752452,1205.49599888755
0.213177835276238,1205.50599888755
0.198981114280814,1205.51599888755
0.185474288610354,1205.52599888755
0.171630438554175,1205.53599888755
0.15762087145271,1205.54599888755
0.142556735240341,1205.55599888755
0.126585246263515,1205.56599888755
0.111412373711886,1205.57599888755
0.0965300452896722,1205.58599888755
0.0827515969498621,1205.59599888755
0.0693219271133191,1205.60599888755
0.0560750287897256,1205.61599888755
0.0426279388942525,1205.62599888755
0.029090353037358,1205.63599888755
0.0150303371508832,1205.64599888755
0.00105675348789456,1205.65599888755
-0.0131965414427714,1205.66599888755
-0.0277905637080072,1205.67599888755
-0.0421813046159666,1205.68599888755
-0.05569789396778,1205.69599888755
-0.065102247471716,1205.70599888755
-0.0661453809494336,1205.71599888755
-0.0537124181804942,1205.72599888755
-0.0222561339585275,1205.73599888755
0.0321190827640828,1205.74599888755
0.108607788154101,1205.75599888755
0.204563499277537,1205.76599888755
0.313233627343422,1205.77599888755
0.427779727407241,1205.78599888755
0.54020480003023,1205.79599888755
0.644041839709967,1205.80599888755
0.734357534873258,1205.81599888755
0.807034299164117,1205.82599888755
0.860155043097022,1205.83599888755
0.893844271446598,1205.84599888755
0.910267236401031,1205.85599888755
0.911587271189954,1205.86599888755
0.902370356132855,1205.87599888755
0.885236922061065,1205.88599888755
0.86221251200795,1205.89599888755
0.836281205664991,1205.90599888755
0.808546210743933,1205.91599888755
0.780944550948646,1205.92599888755
0.753834147398841,1205.93599888755
0.72717717160507,1205.94599888755
0.701176153858622,1205.95599888755
0.674002387590532,1205.96599888755
0.646727722242163,1205.97599888755
0.61879477504667,1205.98599888755
0.592132175763944,1205.99599888755
0.566918909537019,1206.00599888755
0.545324974692082,1206.01599888755
0.527282666717668,1206.02599888755
0.514133431073954,1206.03599888755
0.505149309273315,1206.04599888755
0.500208555946548,1206.05599888755
0.498774760573118,1206.06599888755
0.499816424834542,1206.07599888755
0.503087925803709,1206.08599888755
0.507194605602371,1206.09599888755
0.511195904312778,1206.10599888755
0.513664247076012,1206.11599888755
0.514200168182637,1206.12599888755
0.511578188688491,1206.13599888755
0.506666773650857,1206.14599888755
0.499616180698478,1206.15599888755
0.489745469449525,1206.16599888755
0.477973329321844,1206.17599888755
0.464417991349127,1206.18599888755
0.449451828046448,1206.19599888755
0.434041379161635,1206.20599888755
0.418147105710136,1206.21599888755
0.40113266587625,1206.22599888755
0.38377458695989,1206.23599888755
0.365740877126143,1206.24599888755
0.347318090482946,1206.25599888755
0.32909566503387,1206.26599888755
0.311835939199662,1206.27599888755
0.295356771996265,1206.28599888755
0.279272851066433,1206.29599888755
0.263790345616575,1206.30599888755
0.248643030160088,1206.31599888755
0.233181907227342,1206.32599888755
0.217407415751329,1206.33599888755
0.201463418001788,1206.34599888755
0.185987328813226,1206.35599888755
0.170773585665061,1206.36599888755
0.155749968512414,1206.37599888755
0.14101340985824,1206.38599888755
0.126038603036576,1206.39599888755
0.110830431699533,1206.40599888755
0.09545186076839,1206.41599888755
0.0801507780552612,1206.42599888755
0.0646923467155753,1206.43599888755
0.0494287547698976,1206.44599888755
0.034542855718746,1206.45599888755
0.0199418701483524,1206.46599888755
0.00543620910326307,1206.47599888755
-0.00885566372755704,1206.48599888755
-0.023202007098832,1206.49599888755
-0.0373558752131233,1206.50599888755
-0.0505720920039179,1206.51599888755
-0.0639190813766655,1206.52599888755
-0.077441466306309,1206.53599888755
-0.0908230351078145,1206.54599888755
-0.104583888782949,1206.55599888755
-0.118522826810708,1206.56599888755
-0.13174505996727,1206.57599888755
-0.142789541826797,1206.58599888755
-0.148241070121889,1206.59599888755
-0.142870156420373,1206.60599888755
-0.120293399137849,1206.61599888755
-0.0763267032225237,1206.62599888755
-0.00939378521163925,1206.63599888755
0.0792037936088464,1206.64599888755
0.184699439722017,1206.65599888755
0.300740247327978,1206.66599888755
0.419066607016213,1206.67599888755
0.531468933722405,1206.68599888755
0.632267116518276,1206.69599888755
0.715676542211261,1206.70599888755
0.779604838304017,1206.71599888755
0.823131202918875,1206.72599888755
0.847858227857353,1206.73599888755
0.855587765618623,1206.74599888755
0.849797640225351,1206.75599888755
0.833188587585387,1206.76599888755
0.809275281569311,1206.77599888755
0.781663454784991,1206.78599888755
0.752288147228713,1206.79599888755
0.722618035041404,1206.80599888755
0.69326136318272,1206.81599888755
0.664371191530253,1206.82599888755
0.635826541094471,1206.83599888755
0.606791629058945,1206.84599888755
0.576689574445084,1206.85599888755
0.546815839757861,1206.86599888755
0.517278879206726,1206.87599888755
0.489671311989786,1206.88599888755
0.465165763582948,1206.89599888755
0.445244458985339,1206.90599888755
0.429796311787526,1206.91599888755
0.419512199019938,1206.92599888755
0.413736132779262,1206.93599888755
0.411528287609337,1206.94599888755
0.413088585060808,1206.95599888755
0.417199346259666,1206.96599888755
0.423460142184269,1206.97599888755
0.43029868262934,1206.98599888755
0.436267260894952,1206.99599888755
0.441197514761315,1207.00599888755
0.443257288707908,1207.01599888755
0.442498153533541,1207.02599888755
0.438353332971441,1207.03599888755
0.431509406795065,1207.04599888755
0.421544063178121,1207.05599888755
0.408724507320763,1207.06599888755
0.393882002934292,1207.07599888755
0.377152491528807,1207.08599888755
0.359428638831966,1207.09599888755
0.341235622523714,1207.10599888755
0.322879724359321,1207.11599888755
0.304338872476342,1207.12599888755
0.285963442660857,1207.13599888755
0.267684658477701,1207.14599888755
0.249429751218187,1207.15599888755
0.23137300568382,1207.16599888755
0.213947620784038,1207.17599888755
0.197213787092861,1207.18599888755
0.181228666451042,1207.19599888755
0.165791864845719,1207.20599888755
0.150073044411035,1207.21599888755
0.134940686251222,1207.22599888755
0.119549293787469,1207.23599888755
0.104207653581117,1207.24599888755
0.0895288039960826,1207.25599888755
0.0746307722110214,1207.26599888755
0.0591094755238346,1207.27599888755
0.0435208453697626,1207.28599888755
0.0284802910149718,1207.29599888755
0.0132928742084596,1207.30599888755
-0.00150092598370566,1207.31599888755
-0.0161683884771198,1207.32599888755
-0.0304699844589777,1207.33599888755
-0.0449656770260854,1207.34599888755
-0.0569260186265091,1207.35599888755
-0.0700385805560249,1207.36599888755
-0.0841741266507044,1207.37599888755
-0.0958798164533055,1207.38599888755
-0.108665435780762,1207.39599888755
-0.122018336046391,1207.40599888755
-0.136891175859557,1207.41599888755
-0.152171334149589,1207.42599888755
-0.167208478946794,1207.43599888755
-0.180919783668816,1207.44599888755
-0.191186503838884,1207.45599888755
-0.19377761577594,1207.46599888755
-0.182957882990869,1207.47599888755
-0.153544449454919,1207.48599888755
-0.101604335650523,1207.49599888755
-0.0267136975463884,1207.50599888755
0.0674465396802672,1207.51599888755
0.175339166621545,1207.52599888755
0.289440756353612,1207.53599888755
0.401890109814267,1207.54599888755
0.505696086876053,1207.55599888755
0.59482636025533,1207.56599888755
0.665623989679318,1207.57599888755
0.716247150828591,1207.58599888755
0.74632536237482,1207.59599888755
0.758401611010037,1207.60599888755
0.755090440176721,1207.61599888755
0.740116876356643,1207.62599888755
0.716446535667626,1207.63599888755
0.687251629964295,1207.64599888755
0.654672177402199,1207.65599888755
0.619714660548144,1207.66599888755
0.584000213102337,1207.67599888755
0.547620596028218,1207.68599888755
0.510711867044787,1207.69599888755
0.473519506658224,1207.70599888755
0.436734965555194,1207.71599888755
0.401033953831415,1207.72599888755
0.367409614280783,1207.73599888755
0.33672343182745,1207.74599888755
0.310457851122903,1207.75599888755
0.289968487002715,1207.76599888755
0.275577124562608,1207.77599888755
0.268209064473512,1207.78599888755
0.266445863240406,1207.79599888755
0.270328756288361,1207.80599888755
0.278225051811373,1207.81599888755
0.288241201518787,1207.82599888755
0.299318834397451,1207.83599888755
0.310282758275394,1207.84599888755
0.319130744691844,1207.85599888755
0.325075281568701,1207.86599888755
0.327989185759192,1207.87599888755
0.32732348099185,1207.88599888755
0.323094751539849,1207.89599888755
0.315622613809705,1207.90599888755
0.304846773074942,1207.91599888755
0.290811424916626,1207.92599888755
0.275233844364678,1207.93599888755
0.258023286261081,1207.94599888755
0.240165942900566,1207.95599888755
0.221448376428625,1207.96599888755
0.202568892892785,1207.97599888755
0.184062822170161,1207.98599888755
0.166063532556717,1207.99599888755
0.148102543037927,1208.00599888755
0.130804148968018,1208.01599888755
0.114442184108996,1208.02599888755
0.0985767777830652,1208.03599888755
0.0821974447395198,1208.04599888755
0.0672839101098649,1208.05599888755
0.0526072240931862,1208.06599888755
0.0382183040554081,1208.07599888755
0.0235368508840135,1208.08599888755
0.00908205909744301,1208.09599888755
-0.00508144677942764,1208.10599888755
-0.0192930797256058,1208.11599888755
-0.0334770276124217,1208.12599888755
-0.0472562550042907,1208.13599888755
-0.0607162450018602,1208.14599888755
-0.0736379471712362,1208.15599888755
-0.0867218807069171,1208.16599888755
-0.0996114634806065,1208.17599888755
-0.112130315011039,1208.18599888755
-0.125119796024802,1208.19599888755
-0.137738420512409,1208.20599888755
-0.151057166200602,1208.21599888755
-0.163706325759138,1208.22599888755
-0.176207327973437,1208.23599888755
-0.189374189324265,1208.24599888755
-0.202324404625425,1208.25599888755
-0.216127216738511,1208.26599888755
-0.229168082553767,1208.27599888755
-0.239029092130741,1208.28599888755
-0.240352379572877,1208.29599888755
-0.227027517058479,1208.30599888755
-0.193438897008567,1208.31599888755
-0.13587027160494,1208.32599888755
-0.0534830199593238,1208.33599888755
0.0479870136243256,1208.34599888755
0.162973206939559,1208.35599888755
0.28417556797718,1208.36599888755
0.402389426860033,1208.37599888755
0.510680529107868,1208.38599888755
0.602905683428152,1208.39599888755
0.676408853417166,1208.40599888755
0.729133679171367,1208.41599888755
0.762177175865171,1208.42599888755
0.777345425975423,1208.43599888755
0.777465867109461,1208.44599888755
0.765288419762756,1208.45599888755
0.744307989482007,1208.46599888755
0.717513080929857,1208.47599888755
0.687304678945117,1208.48599888755
0.65526337085521,1208.49599888755
0.622645822489246,1208.50599888755
0.589889200298567,1208.51599888755
0.557390615825938,1208.52599888755
0.524571902240048,1208.53599888755
0.49202230236162,1208.54599888755
0.45921556714009,1208.55599888755
0.427206049380852,1208.56599888755
0.396808419613674,1208.57599888755
0.368650438365155,1208.58599888755
0.344392902247711,1208.59599888755
0.324884681573856,1208.60599888755
0.310623472564334,1208.61599888755
0.301993670895994,1208.62599888755
0.298892584600302,1208.63599888755
0.300827876526849,1208.64599888755
0.306093354486315,1208.65599888755
0.313677634024893,1208.66599888755
0.32209134004739,1208.67599888755
0.33001132433077,1208.68599888755
0.336889683655406,1208.69599888755
0.341302827443904,1208.70599888755
0.342575003661843,1208.71599888755
0.340197378230442,1208.72599888755
0.33439442173214,1208.73599888755
0.325354039865305,1208.74599888755
0.313227030090347,1208.75599888755
0.299054993557397,1208.76599888755
0.283159305119888,1208.77599888755
0.266076629036372,1208.78599888755
0.248253430843236,1208.79599888755
0.22933269934305,1208.80599888755
0.209796729253919,1208.81599888755
0.190599222190574,1208.82599888755
0.171337608055672,1208.83599888755
0.152144050743693,1208.84599888755
0.133635942711031,1208.85599888755
0.116073624926222,1208.86599888755
0.099615436508247,1208.87599888755
0.0834274561563285,1208.88599888755
0.067594704762244,1208.89599888755
0.0522330057348356,1208.90599888755
0.0374070573833134,1208.91599888755
0.0225537798337204,1208.92599888755
0.00806983282281944,1208.93599888755
-0.00592046687993635,1208.94599888755
-0.0204139465854643,1208.95599888755
-0.0348800368409559,1208.96599888755
-0.0498974423734608,1208.97599888755
-0.0652618872158233,1208.98599888755
-0.0804407237359126,1208.99599888755
-0.0950475311769983,1209.00599888755
-0.109646555633778,1209.01599888755
-0.124102332964685,1209.02599888755
-0.138596082762457,1209.03599888755
-0.152658155150955,1209.04599888755
-0.166133441882041,1209.05599888755
-0.179751444153429,1209.06599888755
-0.193391860366398,1209.07599888755
-0.207364232024015,1209.08599888755
-0.221315215346408,1209.09599888755
-0.235630569155085,1209.10599888755
-0.248050405580308,1209.11599888755
-0.255069600986083,1209.12599888755
-0.25125899015189,1209.13599888755
-0.229468437396033,1209.14599888755
-0.184600129528622,1209.15599888755
-0.114429078523364,1209.16599888755
-0.0210262130219778,1209.17599888755
0.0894908837855633,1209.18599888755
0.209763330477493,1209.19599888755
0.331506706011584,1209.20599888755
0.447941912214999,1209.21599888755
0.552400207145453,1209.22599888755
0.640209316171264,1209.23599888755
0.708239242354746,1209.24599888755
0.755732552881823,1209.25599888755
0.78384779402307,1209.26599888755
0.794513403397217,1209.27599888755
0.790994151992238,1209.28599888755
0.776269292349413,1209.29599888755
0.753564728974972,1209.30599888755
0.726502948610582,1209.31599888755
0.696582728437422,1209.32599888755
0.665135837364254,1209.33599888755
0.634111649212806,1209.34599888755
0.603647302584294,1209.35599888755
0.57432504512895,1209.36599888755
0.545798549032014,1209.37599888755
0.516769398064853,1209.38599888755
0.48818188769915,1209.39599888755
0.459705801331564,1209.40599888755
0.432088323093393,1209.41599888755
0.406408580837953,1209.42599888755
0.383376848922666,1209.43599888755
0.364600150962178,1209.44599888755
0.350374496158733,1209.45599888755
0.340901894913967,1209.46599888755
0.336200955806051,1209.47599888755
0.335728120272642,1209.48599888755
0.338684551294962,1209.49599888755
0.344333002315971,1209.50599888755
0.35148011196177,1209.51599888755
0.358556841704216,1209.52599888755
0.36367348359155,1209.53599888755
0.367148090828819,1209.54599888755
0.367076448158843,1209.55599888755
0.364101289296993,1209.56599888755
0.357595790086811,1209.57599888755
0.348319596492005,1209.58599888755
0.335993173034216,1209.59599888755
0.321664317697511,1209.60599888755
0.30578274179281,1209.61599888755
0.28806295414575,1209.62599888755
0.26987230228393,1209.63599888755
0.251195272423677,1209.64599888755
0.232480126417299,1209.65599888755
0.214043162032903,1209.66599888755
0.195730996642652,1209.67599888755
0.17771609811728,1209.68599888755
0.159760889881249,1209.69599888755
0.142659585381317,1209.70599888755
0.125710055819787,1209.71599888755
0.108481296658115,1209.72599888755
0.0922440769856594,1209.73599888755
0.0758800287142034,1209.74599888755
0.0594118928269675,1209.75599888755
0.0430197802293184,1209.76599888755
0.0268408580752324,1209.77599888755
0.0108883197401792,1209.78599888755
-0.00457712992413838,1209.79599888755
-0.0198085775847869,1209.80599888755
-0.0349443560223188,1209.81599888755
-0.0494851827158695,1209.82599888755
-0.0638765414965047,1209.83599888755
-0.0783182865044631,1209.84599888755
-0.0920291522652145,1209.85599888755
-0.10612752448952,1209.86599888755
-0.119873620180402,1209.87599888755
-0.13405156315151,1209.88599888755
-0.148313980463766,1209.89599888755
-0.162337160308447,1209.90599888755
-0.176291939087024,1209.91599888755
-0.190163176496699,1209.92599888755
-0.204427528166137,1209.93599888755
-0.219055167315262,1209.94599888755
-0.234542748193279,1209.95599888755
-0.24819764284657,1209.96599888755
-0.259912809386025,1209.97599888755
-0.265543386281168,1209.98599888755
-0.258623415290603,1209.99599888755
-0.232428603507837,1210.00599888755
-0.181912266774407,1210.01599888755
-0.106151509838051,1210.02599888755
-0.00722692452240115,1210.03599888755
0.107581092978787,1210.04599888755
0.230612821861312,1210.05599888755
0.3535005682267,1210.06599888755
0.468344447285843,1210.07599888755
0.568482771170156,1210.08599888755
0.650813465101215,1210.09599888755
0.712701657081976,1210.10599888755
0.754421414321337,1210.11599888755
0.777027181771528,1210.12599888755
0.782603737710013,1210.13599888755
0.775148992084487,1210.14599888755
0.757902972290091,1210.15599888755
0.733768596322088,1210.16599888755
0.705861628679653,1210.17599888755
0.675848626376329,1210.18599888755
0.645144884040898,1210.19599888755
0.615004508964106,1210.20599888755
0.585540732874744,1210.21599888755
0.556393900625026,1210.22599888755
0.527632195169887,1210.23599888755
0.49811637516824,1210.24599888755
0.468440557928703,1210.25599888755
0.439703263054343,1210.26599888755
0.412986034126152,1210.27599888755
0.389527414611283,1210.28599888755
0.369565011820986,1210.29599888755
0.354454763152991,1210.30599888755
0.344457301039922,1210.31599888755
0.339394445123956,1210.32599888755
0.338678713900702,1210.33599888755
0.341848667961957,1210.34599888755
0.347891884712689,1210.35599888755
0.356249658953711,1210.36599888755
0.365074007994966,1210.37599888755
0.372887741524195,1210.38599888755
0.378259107991364,1210.39599888755
0.380501019932447,1210.40599888755
0.379233426581935,1210.41599888755
0.374726840303336,1210.42599888755
0.367298314374221,1210.43599888755
0.357448203336277,1210.44599888755
0.344845068223416,1210.45599888755
0.330564093841211,1210.46599888755
0.314348388321924,1210.47599888755
0.296746061517812,1210.48599888755
0.278523075139824,1210.49599888755
0.26073344402255,1210.50599888755
0.242727731018043,1210.51599888755
0.224686721317351,1210.52599888755
0.207241778346856,1210.53599888755
0.189693390640575,1210.54599888755
0.173154215670175,1210.55599888755
0.157040364571025,1210.56599888755
0.141380494474016,1210.57599888755
0.126226474525348,1210.58599888755
0.110766772909514,1210.59599888755
0.0956959033144555,1210.60599888755
0.0810116281686181,1210.61599888755
0.0661073387000347,1210.62599888755
0.0511839413586664,1210.63599888755
0.0361766956404081,1210.64599888755
0.0212088619695893,1210.65599888755
0.00651689957496966,1210.66599888755
-0.00785698684236663,1210.67599888755
-0.0217453930070271,1210.68599888755
-0.0356816663929408,1210.69599888755
-0.049525038048154,1210.70599888755
-0.0628725060287589,1210.71599888755
-0.0753203264670612,1210.72599888755
-0.0876356212259633,1210.73599888755
-0.0994357819865948,1210.74599888755
-0.11187310114519,1210.75599888755
-0.124348955398937,1210.76599888755
-0.137507687068772,1210.77599888755
-0.150827223850563,1210.78599888755
-0.164394490484035,1210.79599888755
-0.178537667473865,1210.80599888755
-0.191183665542101,1210.81599888755
-0.2011154895969,1210.82599888755
-0.204352781317893,1210.83599888755
-0.194488291783976,1210.84599888755
-0.166170294751398,1210.85599888755
-0.114691128462803,1210.86599888755
-0.0387195644491318,1210.87599888755
0.0579514099753566,1210.88599888755
0.169368613802125,1210.89599888755
0.288051290043207,1210.90599888755
0.405909991171035,1210.91599888755
0.515353657094181,1210.92599888755
0.61085908307397,1210.93599888755
0.68790426711175,1210.94599888755
0.744423920385448,1210.95599888755
0.78012797830687,1210.96599888755
0.796681765276655,1210.97599888755
0.797139217633477,1210.98599888755
0.784902085122997,1210.99599888755
0.76315463047785,1211.00599888755
0.735378347226153,1211.01599888755
0.703932795601093,1211.02599888755
0.670673284531562,1211.03599888755
0.636961689341309,1211.04599888755
0.603438232182692,1211.05599888755
0.57042367750944,1211.06599888755
0.537506130896426,1211.07599888755
0.504303469560667,1211.08599888755
0.471580768044183,1211.09599888755
0.440159578171137,1211.10599888755
0.410902462322574,1211.11599888755
0.385301297026546,1211.12599888755
0.363888183973502,1211.13599888755
0.347731085248683,1211.14599888755
0.337085684844972,1211.15599888755
0.332487884076247,1211.16599888755
0.333305180824372,1211.17599888755
0.338722552238861,1211.18599888755
0.347744737494927,1211.19599888755
0.358646622899232,1211.20599888755
0.370048009009065,1211.21599888755
0.380338323276936,1211.22599888755
0.388606831707104,1211.23599888755
0.393536882866101,1211.24599888755
0.3943228712752,1211.25599888755
0.391718284664997,1211.26599888755
0.384816226915694,1211.27599888755
0.374680559570956,1211.28599888755
0.361887150624853,1211.29599888755
0.347171793853783,1211.30599888755
0.331002896063359,1211.31599888755
0.314118594801011,1211.32599888755
0.296001218102437,1211.33599888755
0.277949734625986,1211.34599888755
0.259457941168907,1211.35599888755
0.241041167508308,1211.36599888755
0.223236314500151,1211.37599888755
0.206252678028116,1211.38599888755
0.189863854093225,1211.39599888755
0.173574875755853,1211.40599888755
0.158148208712867,1211.41599888755
0.14295873704582,1211.42599888755
0.128039444392904,1211.43599888755
0.113634587154915,1211.44599888755
0.0993481797636769,1211.45599888755
0.0854715487805893,1211.46599888755
0.0715066894722992,1211.47599888755
0.0568903817448492,1211.48599888755
0.0421247869795155,1211.49599888755
0.0271320405536781,1211.50599888755
0.012620740878264,1211.51599888755
-0.00168320679584445,1211.52599888755
-0.0156964291004969,1211.53599888755
-0.0299418399685699,1211.54599888755
-0.0438408131125953,1211.55599888755
-0.0584520426882853,1211.56599888755
-0.0724581421055362,1211.57599888755
-0.086578619680624,1211.58599888755
-0.100368794108456,1211.59599888755
-0.113347554816155,1211.60599888755
-0.12619658763322,1211.61599888755
-0.139072170280109,1211.62599888755
-0.151553209493904,1211.63599888755
-0.164417117372419,1211.64599888755
-0.177195316877819,1211.65599888755
-0.190463410189449,1211.66599888755
-0.203310296217725,1211.67599888755
-0.215505400130485,1211.68599888755
-0.224755160937836,1211.69599888755
-0.227106532843647,1211.70599888755
-0.216649437734439,1211.71599888755
-0.186897808033945,1211.72599888755
-0.132198685118513,1211.73599888755
-0.0513424675346174,1211.74599888755
0.051677429063453,1211.75599888755
0.170837295855297,1211.76599888755
0.298186992166986,1211.77599888755
0.425124014376815,1211.78599888755
0.542938213627729,1211.79599888755
0.645825338859282,1211.80599888755
0.728576770576795,1211.81599888755
0.790434353197334,1211.82599888755
0.830646848499829,1211.83599888755
0.851835687904523,1211.84599888755
0.856061975648258,1211.85599888755
0.847506169129734,1211.86599888755
0.829124898757866,1211.87599888755
0.804798017279645,1211.88599888755
0.777083968242368,1211.89599888755
0.748445856325866,1211.90599888755
0.71958272361547,1211.91599888755
0.691004340251549,1211.92599888755
0.662794597079633,1211.93599888755
0.634352999848777,1211.94599888755
0.606024756382279,1211.95599888755
0.577252166308884,1211.96599888755
0.548572822912347,1211.97599888755
0.520688305795343,1211.98599888755
0.494396434371037,1211.99599888755
0.470699338176535,1212.00599888755
0.45034006905355,1212.01599888755
0.433976545346468,1212.02599888755
0.42243477036285,1212.03599888755
0.415416781146452,1212.04599888755
0.413618872707389,1212.05599888755
0.41550005243909,1212.06599888755
0.421283388581669,1212.07599888755
0.429049636641348,1212.08599888755
0.43704288246165,1212.09599888755
0.443672190898246,1212.10599888755
0.447681930512756,1212.11599888755
0.448725961206487,1212.12599888755
0.446528512538435,1212.13599888755
0.441368358233683,1212.14599888755
0.434235037553803,1212.15599888755
0.424492820634365,1212.16599888755
0.412968684464888,1212.17599888755
0.399043653284976,1212.18599888755
0.382510952849328,1212.19599888755
0.364791667217008,1212.20599888755
0.345206038651183,1212.21599888755
0.32537237194911,1212.22599888755
0.305777201788495,1212.23599888755
0.286435654786414,1212.24599888755
0.268707701529579,1212.25599888755
0.251406175025817,1212.26599888755
0.233988841751895,1212.27599888755
0.216268089035844,1212.28599888755
0.199046345767847,1212.29599888755
0.182487067584066,1212.30599888755
0.166333554312595,1212.31599888755
0.150695095357575,1212.32599888755
0.134847061749303,1212.33599888755
0.119867065554607,1212.34599888755
0.105548647651414,1212.35599888755
0.0914640964910893,1212.36599888755
0.0776176264362771,1212.37599888755
0.0637895700477989,1212.38599888755
0.0495345194436765,1212.39599888755
0.0351257243722702,1212.40599888755
0.0204083012284114,1212.41599888755
0.00509946425283252,1212.42599888755
-0.0103954027352832,1212.43599888755
-0.0254760877720142,1212.44599888755
-0.0408977947943734,1212.45599888755
-0.0559227205411403,1212.46599888755
-0.070671914242847,1212.47599888755
-0.0850556203794067,1212.48599888755
-0.0992757180426286,1212.49599888755
-0.113769831472152,1212.50599888755
-0.128600946251024,1212.51599888755
-0.143066840831613,1212.52599888755
-0.157135722589587,1212.53599888755
-0.171132064486383,1212.54599888755
-0.185372755444954,1212.55599888755
-0.198880295663405,1212.56599888755
-0.212191346561269,1212.57599888755
-0.223080605289931,1212.58599888755
-0.22735849181467,1212.59599888755
-0.2189638852531,1212.60599888755
-0.189942219921476,1212.61599888755
-0.136175492999009,1212.62599888755
-0.0556354324050871,1212.63599888755
0.0483401790648124,1212.64599888755
0.168723133935869,1212.65599888755
0.297487835536131,1212.66599888755
0.425431984558631,1212.67599888755
0.544261775928137,1212.68599888755
0.647536631381938,1212.69599888755
0.731543389828653,1212.70599888755
0.793838734949839,1212.71599888755
0.834862584776106,1212.72599888755
0.856249532683558,1212.73599888755
0.861123550214807,1212.74599888755
0.852524678226512,1212.75599888755
0.834357977057349,1212.76599888755
0.809460582462898,1212.77599888755
0.780556476730013,1212.78599888755
0.75040613402784,1212.79599888755
0.72026991966161,1212.80599888755
0.690879075119125,1212.81599888755
0.663080059707926,1212.82599888755
0.63555056560874,1212.83599888755
0.608086115809255,1212.84599888755
0.57989237101737,1212.85599888755
0.5517504340809,1212.86599888755
0.523203560444314,1212.87599888755
0.496517866901484,1212.88599888755
0.472039924696089,1212.89599888755
0.450631750996206,1212.90599888755
0.433849668366798,1212.91599888755
0.42159708429343,1212.92599888755
0.414586752594841,1212.93599888755
0.412218641657126,1212.94599888755
0.414307757493966,1212.95599888755
0.419711456979681,1212.96599888755
0.427142598865495,1212.97599888755
0.434838099746743,1212.98599888755
0.441481949346036,1212.99599888755
0.446185309366963,1213.00599888755
0.447977871677806,1213.01599888755
0.446980623638273,1213.02599888755
0.442342577711851,1213.03599888755
0.433976215354487,1213.04599888755
0.42273042973381,1213.05599888755
0.408358030834589,1213.06599888755
0.392319419452849,1213.07599888755
0.375225517837137,1213.08599888755
0.357088633249635,1213.09599888755
0.338009744384406,1213.10599888755
0.318500067923978,1213.11599888755
0.299071037166388,1213.12599888755
0.279816205073854,1213.13599888755
0.260733332867586,1213.14599888755
0.241444449242816,1213.15599888755
0.22295555423049,1213.16599888755
0.205476817134822,1213.17599888755
0.188857206173643,1213.18599888755
0.172857133815778,1213.19599888755
0.156945157643449,1213.20599888755
0.141318417996588,1213.21599888755
0.12570689481672,1213.22599888755
0.110431264653432,1213.23599888755
0.0951964823220531,1213.24599888755
0.0802067298696657,1213.25599888755
0.0648048523286375,1213.26599888755
0.0493665969449796,1213.27599888755
0.0339337363192993,1213.28599888755
0.0181555238392517,1213.29599888755
0.00293599130387412,1213.30599888755
-0.0121071821238795,1213.31599888755
-0.0273487306355643,1213.32599888755
-0.04305553764077,1213.33599888755
-0.058251881259612,1213.34599888755
-0.0731266649250232,1213.35599888755
-0.0874955753734721,1213.36599888755
-0.101329561355125,1213.37599888755
-0.114999061012817,1213.38599888755
-0.128246913860747,1213.39599888755
-0.141772897924483,1213.40599888755
-0.155447887616991,1213.41599888755
-0.169126475133641,1213.42599888755
-0.183125604401988,1213.43599888755
-0.197368151903483,1213.44599888755
-0.211388450094796,1213.45599888755
-0.224059239134427,1213.46599888755
-0.232613395549129,1213.47599888755
-0.232361330230628,1213.48599888755
-0.215641540371122,1213.49599888755
-0.176572855855572,1213.50599888755
-0.111438098964521,1213.51599888755
-0.0221593593461178,1213.52599888755
0.086764707954094,1213.53599888755
0.207900728769693,1213.54599888755
0.332648972967421,1213.55599888755
0.452237140858434,1213.56599888755
0.55956027794317,1213.57599888755
0.649222157671721,1213.58599888755
0.71799089617021,1213.59599888755
0.764828144900631,1213.60599888755
0.791366319674695,1213.61599888755
0.800149624037934,1213.62599888755
0.794662069819441,1213.63599888755
0.778258989623422,1213.64599888755
0.753764271077006,1213.65599888755
0.724035605410594,1213.66599888755
0.691799430360895,1213.67599888755
0.657931574736998,1213.68599888755
0.624212694599492,1213.69599888755
0.59065991703453,1213.70599888755
0.557364268768173,1213.71599888755
0.524408344363677,1213.72599888755
0.491027070295645,1213.73599888755
0.457799503385886,1213.74599888755
0.426154687797006,1213.75599888755
0.396371954448391,1213.76599888755
0.37072856244544,1213.77599888755
0.350087218961853,1213.78599888755
0.335269346126833,1213.79599888755
0.326542794594532,1213.80599888755
0.323180276001084,1213.81599888755
0.325250637532733,1213.82599888755
0.331241301890959,1213.83599888755
0.339907011782199,1213.84599888755
0.350337437318327,1213.85599888755
0.360657551709172,1213.86599888755
0.369620249938222,1213.87599888755
0.376188875688377,1213.88599888755
0.379720203322595,1213.89599888755
0.379681596496847,1213.90599888755
0.375764089432257,1213.91599888755
0.368217629537424,1213.92599888755
0.357057604924086,1213.93599888755
0.343181886382375,1213.94599888755
0.326935936573078,1213.95599888755
0.309253518566138,1213.96599888755
0.290345913708235,1213.97599888755
0.271290109543708,1213.98599888755
0.252343149366865,1213.99599888755
0.23278803522174,1214.00599888755
0.212938925674208,1214.01599888755
0.193649874283366,1214.02599888755
0.175036484242569,1214.03599888755
0.157009217856725,1214.04599888755
0.139996577966631,1214.05599888755
0.123851420296438,1214.06599888755
0.1085791195325,1214.07599888755
0.0942632924944897,1214.08599888755
0.0800535504672956,1214.09599888755
0.0655788535204562,1214.10599888755
0.0508229318779797,1214.11599888755
0.0357669451902628,1214.12599888755
0.0211505416103378,1214.13599888755
0.00655697928737357,1214.14599888755
-0.00743492789878265,1214.15599888755
-0.021641150145585,1214.16599888755
-0.035571069251842,1214.17599888755
-0.0499931639578908,1214.18599888755
-0.0650903515145747,1214.19599888755
-0.0805388429217202,1214.20599888755
-0.0962068950131445,1214.21599888755
-0.111860677866953,1214.22599888755
-0.127555160451471,1214.23599888755
-0.143506798128656,1214.24599888755
-0.158529443411066,1214.25599888755
-0.172981917017913,1214.26599888755
-0.186768845838784,1214.27599888755
-0.199791015149072,1214.28599888755
-0.212809461924213,1214.29599888755
-0.225429769038938,1214.30599888755
-0.237996065453364,1214.31599888755
-0.250842824365415,1214.32599888755
-0.264426150579686,1214.33599888755
-0.278394754682533,1214.34599888755
-0.291352302584159,1214.35599888755
-0.301370065887152,1214.36599888755
-0.304256303882183,1214.37599888755
-0.292341844512329,1214.38599888755
-0.259022464010525,1214.39599888755
-0.199830365312295,1214.40599888755
-0.113899170013374,1214.41599888755
-0.00509019273516421,1214.42599888755
0.118522055360634,1214.43599888755
0.249447590900175,1214.44599888755
0.378853115576775,1214.45599888755
0.498156348207428,1214.46599888755
0.601014405096852,1214.47599888755
0.683673313667782,1214.48599888755
0.74422178520031,1214.49599888755
0.783703913093538,1214.50599888755
0.80395564626771,1214.51599888755
0.808445934996143,1214.52599888755
0.799435050754509,1214.53599888755
0.781324495137936,1214.54599888755
0.757160590961315,1214.55599888755
0.729113662904604,1214.56599888755
0.699270605436963,1214.57599888755
0.669121803997499,1214.58599888755
0.639741767667818,1214.59599888755
0.610982025425097,1214.60599888755
0.582752392249274,1214.61599888755
0.554347714818353,1214.62599888755
0.526014990498768,1214.63599888755
0.497642327145912,1214.64599888755
0.470120175390421,1214.65599888755
0.443697875703257,1214.66599888755
0.419356450504411,1214.67599888755
0.398361164416982,1214.68599888755
0.380794955152498,1214.69599888755
0.368354131451787,1214.70599888755
0.361392122385155,1214.71599888755
0.358845342545089,1214.72599888755
0.36088483123992,1214.73599888755
0.36585842017311,1214.74599888755
0.373112968909978,1214.75599888755
0.381037298185059,1214.76599888755
0.388617456902201,1214.77599888755
0.394320040793124,1214.78599888755
0.39712599673038,1214.79599888755
0.396161410921413,1214.80599888755
0.391679461529201,1214.81599888755
0.384171189330578,1214.82599888755
0.373858286245609,1214.83599888755
0.361249093052319,1214.84599888755
0.346002259081502,1214.85599888755
0.328575879979494,1214.86599888755
0.309347846293235,1214.87599888755
0.289962709900015,1214.88599888755
0.270158021335822,1214.89599888755
0.250901887384309,1214.90599888755
0.232125791064745,1214.91599888755
0.213694595464626,1214.92599888755
0.196449840800632,1214.93599888755
0.179062570037142,1214.94599888755
0.161982248047469,1214.95599888755
0.144540503264334,1214.96599888755
0.127637434545583,1214.97599888755
0.111089230745681,1214.98599888755
0.0948524555000383,1214.99599888755
0.0790617855312007,1215.00599888755
0.0631626027404633,1215.01599888755
0.0479896258232973,1215.02599888755
0.0327625406370532,1215.03599888755
0.0174216601853094,1215.04599888755
0.00243003795397838,1215.05599888755
-0.0126209123299857,1215.06599888755
-0.0283871858856655,1215.07599888755
-0.043888633700409,1215.08599888755
-0.0600058593661505,1215.09599888755
-0.076329234532001,1215.10599888755
-0.0921846963227296,1215.11599888755
-0.108391271252317,1215.12599888755
-0.124072375923365,1215.13599888755
-0.139546560024682,1215.14599888755
-0.154264537290103,1215.15599888755
-0.168360506821628,1215.16599888755
-0.182303971449795,1215.17599888755
-0.196436526152047,1215.18599888755
-0.210393229297657,1215.19599888755
-0.224127153498273,1215.20599888755
-0.236824392280313,1215.21599888755
-0.24901065156485,1215.22599888755
-0.260768828430957,1215.23599888755
-0.273197363631622,1215.24599888755
-0.285933316387597,1215.25599888755
-0.299270657339022,1215.26599888755
-0.312515135730386,1215.27599888755
-0.323036714641977,1215.28599888755
-0.326686580825487,1215.29599888755
-0.315775574092015,1215.30599888755
-0.283753340550799,1215.31599888755
-0.224538245433017,1215.32599888755
-0.138622381267142,1215.33599888755
-0.0299357833353638,1215.34599888755
0.0943205523973581,1215.35599888755
0.225490297303013,1215.36599888755
0.355024542553537,1215.37599888755
0.474480466839441,1215.38599888755
0.577363684100417,1215.39599888755
0.66005517021975,1215.40599888755
0.720991936610648,1215.41599888755
0.760441821316834,1215.42599888755
0.781095178040651,1215.43599888755
0.785513581880575,1215.44599888755
0.776583113559225,1215.45599888755
0.758679076088792,1215.46599888755
0.734632487441777,1215.47599888755
0.707432395098062,1215.48599888755
0.678629677121381,1215.49599888755
0.649273332814853,1215.50599888755
0.620554768623107,1215.51599888755
0.592101310563866,1215.52599888755
0.563894480252785,1215.53599888755
0.535192325297206,1215.54599888755
0.506652230925677,1215.55599888755
0.477376070799236,1215.56599888755
0.447968220145265,1215.57599888755
0.420139961895999,1215.58599888755
0.394459355716441,1215.59599888755
0.372247129844083,1215.60599888755
0.354226843434785,1215.61599888755
0.340888914966514,1215.62599888755
0.332213829298961,1215.63599888755
0.328306611416805,1215.64599888755
0.328226016403806,1215.65599888755
0.332815828390195,1215.66599888755
0.339892726596664,1215.67599888755
0.348121941129148,1215.68599888755
0.356385985393936,1215.69599888755
0.362899809195113,1215.70599888755
0.366979654252057,1215.71599888755
0.367408149732697,1215.72599888755
0.364003954432657,1215.73599888755
0.356808796328742,1215.74599888755
0.346487292608829,1215.75599888755
0.333376202488154,1215.76599888755
0.317726425312323,1215.77599888755
0.300503876982731,1215.78599888755
0.281624005784578,1215.79599888755
0.262248701213384,1215.80599888755
0.24284509846657,1215.81599888755
0.222598386097391,1215.82599888755
0.202491422476201,1215.83599888755
0.182303025935342,1215.84599888755
0.162725093780485,1215.85599888755
0.143417394831108,1215.86599888755
0.12529775034122,1215.87599888755
0.107524938261632,1215.88599888755
0.0907054581736886,1215.89599888755
0.0742667804296553,1215.90599888755
0.0579669443150298,1215.91599888755
0.0419455544582902,1215.92599888755
0.0262874820751696,1215.93599888755
0.0105175878068378,1215.94599888755
-0.00534432184691575,1215.95599888755
-0.0209558611910891,1215.96599888755
-0.0369575081528894,1215.97599888755
-0.0535617891929515,1215.98599888755
-0.0704930948011724,1215.99599888755
-0.0877474616292088,1216.00599888755
-0.104958174737645,1216.01599888755
-0.121711540414596,1216.02599888755
-0.137421449916935,1216.03599888755
-0.15265273385933,1216.04599888755
-0.167355869432428,1216.05599888755
-0.181462442890553,1216.06599888755
-0.195943820776095,1216.07599888755
-0.210128324321558,1216.08599888755
-0.224244446760371,1216.09599888755
-0.23838607655549,1216.10599888755
-0.252449973986794,1216.11599888755
-0.266961543674949,1216.12599888755
-0.281560566121404,1216.13599888755
-0.29654345352817,1216.14599888755
-0.31122433523533,1216.15599888755
-0.32565610916439,1216.16599888755
-0.337216545491253,1216.17599888755
-0.34289270576383,1216.18599888755
-0.335997730373236,1216.19599888755
-0.30926424567012,1216.20599888755
-0.258189700216714,1216.21599888755
-0.180289294213754,1216.22599888755
-0.0791583800419078,1216.23599888755
0.0379357943651939,1216.24599888755
0.162421930021473,1216.25599888755
0.285391850117409,1216.26599888755
0.399457107113106,1216.27599888755
0.498130637494495,1216.28599888755
0.577546405400431,1216.29599888755
0.63630010286487,1216.30599888755
0.674640781147029,1216.31599888755
0.69394077083653,1216.32599888755
0.696826160763605,1216.33599888755
0.686771434277228,1216.34599888755
0.666385101454464,1216.35599888755
0.638641237981634,1216.36599888755
0.606309282719022,1216.37599888755
0.571607669190743,1216.38599888755
0.53618015246347,1216.39599888755
0.501079123039295,1216.40599888755
0.465852970372667,1216.41599888755
0.43058882454634,1216.42599888755
0.395466354781557,1216.43599888755
0.360014957809854,1216.44599888755
0.325813797443037,1216.45599888755
0.29333956387601,1216.46599888755
0.264231634059117,1216.47599888755
0.239507939171231,1216.48599888755
0.219490952549611,1216.49599888755
0.206245720708829,1216.50599888755
0.199209853157596,1216.51599888755
0.198296311346539,1216.52599888755
0.203017934596127,1216.53599888755
0.212153726357373,1216.54599888755
0.223815248262089,1216.55599888755
0.237268220588739,1216.56599888755
0.249968492254133,1216.57599888755
0.261246678275098,1216.58599888755
0.269616667847394,1216.59599888755
0.2742028349414,1216.60599888755
0.274661893077421,1216.61599888755
0.270391331618624,1216.62599888755
0.262042141931363,1216.63599888755
0.249629480448182,1216.64599888755
0.234203225029228,1216.65599888755
0.216587716372967,1216.66599888755
0.197417739424207,1216.67599888755
0.177887005897046,1216.68599888755
0.158092500646107,1216.69599888755
0.138365516998892,1216.70599888755
0.119357617708121,1216.71599888755
0.101182680575276,1216.72599888755
0.083447022012514,1216.73599888755
0.0662218230586684,1216.74599888755
0.0495182441238925,1216.75599888755
0.0335069256532951,1216.76599888755
0.0179747976172741,1216.77599888755
0.0031504179693362,1216.78599888755
-0.0111990904000051,1216.79599888755
-0.0253656381028818,1216.80599888755
-0.0391940460926726,1216.81599888755
-0.0537999150309032,1216.82599888755
-0.0682054380287733,1216.83599888755
-0.0832252209448054,1216.84599888755
-0.0983562441399851,1216.85599888755
-0.11307534116038,1216.86599888755
-0.12765634648692,1216.87599888755
-0.142013230005963,1216.88599888755
-0.155737109607422,1216.89599888755
-0.169434851971464,1216.90599888755
-0.182998129401578,1216.91599888755
-0.19656711576047,1216.92599888755
-0.210672890475518,1216.93599888755
-0.224859136950227,1216.94599888755
-0.239251565255765,1216.95599888755
-0.25347347443383,1216.96599888755
-0.268163340236798,1216.97599888755
-0.283022799248405,1216.98599888755
-0.296958874261926,1216.99599888755
-0.308339363727594,1217.00599888755
-0.311986995669848,1217.01599888755
-0.302525786974784,1217.02599888755
-0.273781734388715,1217.03599888755
-0.220248782225975,1217.04599888755
-0.141461346651007,1217.05599888755
-0.0412022650490748,1217.06599888755
0.0734986475415047,1217.07599888755
0.194685837655372,1217.08599888755
0.313898943023108,1217.09599888755
0.42359759622421,1217.10599888755
0.518499035616061,1217.11599888755
0.594001341591892,1217.12599888755
0.649385119777611,1217.13599888755
0.684155531717002,1217.14599888755
0.70045959473948,1217.15599888755
0.701744284214816,1217.16599888755
0.691008879676227,1217.17599888755
0.671318945866721,1217.18599888755
0.645274236680252,1217.19599888755
0.615535247158395,1217.20599888755
0.583399366027997,1217.21599888755
0.55103729029942,1217.22599888755
0.518699337918131,1217.23599888755
0.486513865018187,1217.24599888755
0.454385901632499,1217.25599888755
0.421322336214776,1217.26599888755
0.38813719662269,1217.27599888755
0.354630266093337,1217.28599888755
0.322963868739711,1217.29599888755
0.293884085018257,1217.30599888755
0.269095940976569,1217.31599888755
0.249360799213869,1217.32599888755
0.234747471776669,1217.33599888755
0.225629694437568,1217.34599888755
0.222158639213457,1217.35599888755
0.223788089188211,1217.36599888755
0.2288451613001,1217.37599888755
0.236298340965909,1217.38599888755
0.244434625148251,1217.39599888755
0.252585682756843,1217.40599888755
0.259241417497554,1217.41599888755
0.263918583253511,1217.42599888755
0.265222937341287,1217.43599888755
0.263133933702371,1217.44599888755
0.257109509792124,1217.45599888755
0.247283408394559,1217.46599888755
0.234412616578434,1217.47599888755
0.219212715282419,1217.48599888755
0.201751002484562,1217.49599888755
0.183417279473745,1217.50599888755
0.164109828883841,1217.51599888755
0.144253547812609,1217.52599888755
0.124572766694958,1217.53599888755
0.104646763235693,1217.54599888755
0.0849278380261012,1217.55599888755
0.0660267624942733,1217.56599888755
0.0478063912376844,1217.57599888755
0.0304741857499384,1217.58599888755
0.0140768692781129,1217.59599888755
-0.00162498551001729,1217.60599888755
-0.0167195480350922,1217.61599888755
-0.0314364259152376,1217.62599888755
-0.0461346576494166,1217.63599888755
-0.060777314283076,1217.64599888755
-0.0754464409982631,1217.65599888755
-0.0902858954572072,1217.66599888755
-0.105604602761763,1217.67599888755
-0.120108418784467,1217.68599888755
-0.134979209468582,1217.69599888755
-0.149196628575745,1217.70599888755
-0.163474634173244,1217.71599888755
-0.177502817216243,1217.72599888755
-0.191955567600069,1217.73599888755
-0.205998349833877,1217.74599888755
-0.220117792547821,1217.75599888755
-0.234219525469284,1217.76599888755
-0.247864171787909,1217.77599888755
-0.261075560870746,1217.78599888755
-0.274458110749556,1217.79599888755
-0.287813892676959,1217.80599888755
-0.301631710250492,1217.81599888755
-0.315925513556803,1217.82599888755
-0.330097040162033,1217.83599888755
-0.341371409526663,1217.84599888755
-0.345439323432074,1217.85599888755
-0.335419247080413,1217.86599888755
-0.304215858820386,1217.87599888755
-0.247031063717504,1217.88599888755
-0.163165869811055,1217.89599888755
-0.0568380599829363,1217.90599888755
0.0641891400923922,1217.91599888755
0.191435946533525,1217.92599888755
0.316584593780351,1217.93599888755
0.431647117670887,1217.94599888755
0.531496864233018,1217.95599888755
0.613022463201546,1217.96599888755
0.674748257745489,1217.97599888755
0.716795332175662,1217.98599888755
0.740882713862153,1217.99599888755
0.749433840627131,1218.00599888755
0.74604104613317,1218.01599888755
0.732929389806779,1218.02599888755
0.713736354203214,1218.03599888755
0.689488766533966,1218.04599888755
0.663599362415223,1218.05599888755
0.637800024729583,1218.06599888755
0.612490228634892,1218.07599888755
0.588425009881848,1218.08599888755
0.564639117193492,1218.09599888755
0.54033998614129,1218.10599888755
0.515615659152448,1218.11599888755
0.489953832653808,1218.12599888755
0.463272292596448,1218.13599888755
0.436805940310623,1218.14599888755
0.411870349578978,1218.15599888755
0.389671617491259,1218.16599888755
0.371024573490819,1218.17599888755
0.357008242430073,1218.18599888755
0.347585503479623,1218.19599888755
0.343025307452135,1218.20599888755
0.342044518933975,1218.21599888755
0.343847296270583,1218.22599888755
0.348164118890373,1218.23599888755
0.353347884744558,1218.24599888755
0.358605042392201,1218.25599888755
0.363184595723243,1218.26599888755
0.364999638803527,1218.27599888755
0.364567443880178,1218.28599888755
0.361178495467289,1218.29599888755
0.354106461182722,1218.30599888755
0.343703505971174,1218.31599888755
0.330282186168743,1218.32599888755
0.314811834467386,1218.33599888755
0.29734451057434,1218.34599888755
0.279064403320352,1218.35599888755
0.260374604186108,1218.36599888755
0.241102931300528,1218.37599888755
0.221856843607926,1218.38599888755
0.202373766862839,1218.39599888755
0.183118450951727,1218.40599888755
0.16417534710066,1218.41599888755
0.145328307833277,1218.42599888755
0.127451918098696,1218.43599888755
0.110295565165941,1218.44599888755
0.0939864455341634,1218.45599888755
0.0785722664542948,1218.46599888755
0.0634649371537061,1218.47599888755
0.0473318134707368,1218.48599888755
0.0310803810070805,1218.49599888755
0.0139414978901862,1218.50599888755
-0.00307505373199186,1218.51599888755
-0.0193260122246446,1218.52599888755
-0.0353249886167402,1218.53599888755
-0.0514009940841501,1218.54599888755
-0.0672980405137289,1218.55599888755
-0.0831499874365289,1218.56599888755
-0.0982835676820978,1218.57599888755
-0.112916470483882,1218.58599888755
-0.127519434569967,1218.59599888755
-0.141663345991538,1218.60599888755
-0.156798987421644,1218.61599888755
-0.172525202352288,1218.62599888755
-0.188620726521773,1218.63599888755
-0.205221074411418,1218.64599888755
-0.222275016798298,1218.65599888755
-0.239333871386306,1218.66599888755
-0.256145288129992,1218.67599888755
-0.270683570203992,1218.68599888755
-0.281189250588723,1218.69599888755
-0.282058565958332,1218.70599888755
-0.268288679595865,1218.71599888755
-0.234476135762276,1218.72599888755
-0.179283910830732,1218.73599888755
-0.10500622318769,1218.74599888755
-0.015969745106694,1218.75599888755
0.0812641884518206,1218.76599888755
0.179861711780037,1218.77599888755
0.273304304512047,1218.78599888755
0.356749965277788,1218.79599888755
0.426440544694549,1218.80599888755
0.480952163952942,1218.81599888755
0.519682821618773,1218.82599888755
0.544100774980533,1218.83599888755
0.554887728066569,1218.84599888755
0.554521195508785,1218.85599888755
0.545910452798218,1218.86599888755
0.530012994380077,1218.87599888755
0.510221148114254,1218.88599888755
0.487227329598892,1218.89599888755
0.462813091573394,1218.90599888755
0.43927560479614,1218.91599888755
0.415718484499395,1218.92599888755
0.392931423788282,1218.93599888755
0.369465816485561,1218.94599888755
0.345777815385635,1218.95599888755
0.32092617573292,1218.96599888755
0.294842907076038,1218.97599888755
0.268449097566111,1218.98599888755
0.242787395271753,1218.99599888755
0.21973043808547,1219.00599888755
0.199813045469786,1219.01599888755
0.184313532760859,1219.02599888755
0.172442643627609,1219.03599888755
0.16462339599261,1219.04599888755
0.159269457357678,1219.05599888755
0.156396276230319,1219.06599888755
0.155012025645154,1219.07599888755
0.155100519805431,1219.08599888755
0.154898527712359,1219.09599888755
0.154055966806547,1219.10599888755
0.152086476596485,1219.11599888755
0.148252279858031,1219.12599888755
0.141956651158398,1219.13599888755
0.13330665976819,1219.14599888755
0.121982772839547,1219.15599888755
0.108633476167707,1219.16599888755
0.0939005393182307,1219.17599888755
0.0786884107653808,1219.18599888755
0.0626125475446303,1219.19599888755
0.046255065644422,1219.20599888755
0.0294496081226172,1219.21599888755
0.0119449788412918,1219.22599888755
-0.00548648329759675,1219.23599888755
-0.0232750385055156,1219.24599888755
-0.0417569544504984,1219.25599888755
-0.0597563979261658,1219.26599888755
-0.0778056733529666,1219.27599888755
-0.0957495433258884,1219.28599888755
-0.113122485075067,1219.29599888755
-0.129834953167581,1219.30599888755
-0.146080491420971,1219.31599888755
-0.162052373021475,1219.32599888755
-0.177972899014355,1219.33599888755
-0.194072152235605,1219.34599888755
-0.210340604486831,1219.35599888755
-0.226665505416973,1219.36599888755
-0.243331530882546,1219.37599888755
-0.260074098965939,1219.38599888755
-0.277128323945647,1219.39599888755
-0.293452658616142,1219.40599888755
-0.309673155869545,1219.41599888755
-0.325155676873039,1219.42599888755
-0.340293808669138,1219.43599888755
-0.35523333392255,1219.44599888755
-0.370169787535594,1219.45599888755
-0.385287339357677,1219.46599888755
-0.400722450709156,1219.47599888755
-0.415793778118019,1219.48599888755
-0.43112367470777,1219.49599888755
-0.447029707488408,1219.50599888755
-0.463184724827379,1219.51599888755
-0.478232714712404,1219.52599888755
-0.490608031204143,1219.53599888755
-0.496406132704816,1219.54599888755
-0.492273340686249,1219.55599888755
-0.475000206814673,1219.56599888755
-0.443312812165211,1219.57599888755
-0.3974798233018,1219.58599888755
-0.340991418932119,1219.59599888755
-0.278635329722553,1219.60599888755
-0.215318725732376,1219.61599888755
-0.155287434220558,1219.62599888755
-0.1024269003844,1219.63599888755
-0.0586191792923755,1219.64599888755
-0.024846016266902,1219.65599888755
-0.00145581531224064,1219.66599888755
0.0126310805641776,1219.67599888755
0.0186895000146484,1219.68599888755
0.0177368562842009,1219.69599888755
0.0109424863956463,1219.70599888755
-0.000828952568637986,1219.71599888755
-0.0149559539397329,1219.72599888755
-0.030922553796835,1219.73599888755
-0.0475452347735077,1219.74599888755
-0.064144268800139,1219.75599888755
-0.0811628041303099,1219.76599888755
-0.0994089550310465,1219.77599888755
-0.118245501701835,1219.78599888755
-0.138119183669392,1219.79599888755
-0.158547005872418,1219.80599888755
-0.178365392720851,1219.81599888755
-0.196981656338783,1219.82599888755
-0.21373966733043,1219.83599888755
-0.227935306695685,1219.84599888755
-0.239654773615441,1219.85599888755
-0.249014313521966,1219.86599888755
-0.255317970905384,1219.87599888755
-0.259311957501648,1219.88599888755
-0.261108501513901,1219.89599888755
-0.261059848699384,1219.90599888755
-0.260142932467264,1219.91599888755
-0.259160250894722,1219.92599888755
-0.259121735411647,1219.93599888755
-0.260427083750495,1219.94599888755
-0.263813038906201,1219.95599888755
-0.269050033398051,1219.96599888755
-0.275672665736505,1219.97599888755
-0.284774766953535,1219.98599888755
-0.295370274448434,1219.99599888755
-0.307481091541455,1220.00599888755
-0.32064200675169,1220.01599888755
-0.334469640400561,1220.02599888755
-0.34908227496328,1220.03599888755
-0.363739063954578,1220.04599888755
-0.378323200890276,1220.05599888755
-0.392248602827187,1220.06599888755
-0.405822183914696,1220.07599888755
-0.41933114426345,1220.08599888755
-0.432638471916563,1220.09599888755
-0.445624483033678,1220.10599888755
-0.458898429382031,1220.11599888755
-0.471386485132171,1220.12599888755
-0.483860518784354,1220.13599888755
-0.4961313719767,1220.14599888755
-0.508342520939028,1220.15599888755
-0.52088252638083,1220.16599888755
-0.533951628872562,1220.17599888755
-0.547229473685674,1220.18599888755
-0.56014091495453,1220.19599888755
-0.572639679200937,1220.20599888755
-0.584442590609063,1220.21599888755
-0.596088020025909,1220.22599888755
-0.607750744947354,1220.23599888755
-0.619733708345272,1220.24599888755
-0.63190355831786,1220.25599888755
-0.644451616889833,1220.26599888755
-0.656872604177104,1220.27599888755
-0.669389404704749,1220.28599888755
-0.68162877066038,1220.29599888755
-0.69402281315592,1220.30599888755
-0.706315435966861,1220.31599888755
-0.718622076275463,1220.32599888755
-0.73027297736316,1220.33599888755
-0.742004207899536,1220.34599888755
-0.753559201887146,1220.35599888755
-0.765281908222467,1220.36599888755
-0.776799430292196,1220.37599888755
-0.785573710219482,1220.38599888755
-0.788686619374475,1220.39599888755
-0.78321615534601,1220.40599888755
-0.76640685216473,1220.41599888755
-0.737550948790067,1220.42599888755
-0.698327613966383,1220.43599888755
-0.650842485593221,1220.44599888755
-0.599621646012862,1220.45599888755
-0.548041203651042,1220.46599888755
-0.499265585750687,1220.47599888755
-0.45593310121327,1220.48599888755
-0.419296932156499,1220.49599888755
-0.390595386290669,1220.50599888755
-0.370070383760498,1220.51599888755
-0.357323389192984,1220.52599888755
-0.351065296847643,1220.53599888755
-0.350278732051989,1220.54599888755
-0.353476969448829,1220.55599888755
-0.359791792553979,1220.56599888755
-0.368127839680705,1220.57599888755
-0.37741014008036,1220.58599888755
-0.387101748449163,1220.59599888755
-0.396803582433945,1220.60599888755
-0.405898490736136,1220.61599888755
-0.414095433663246,1220.62599888755
-0.422547671533615,1220.63599888755
-0.431337499085654,1220.64599888755
-0.440836027333224,1220.65599888755
-0.451356246295336,1220.66599888755
-0.462514245889052,1220.67599888755
-0.473575844795749,1220.68599888755
-0.483572269833499,1220.69599888755
-0.492061072829463,1220.70599888755
-0.498842698329548,1220.71599888755
-0.503412996071626,1220.72599888755
-0.506017207892617,1220.73599888755
-0.506964783151053,1220.74599888755
-0.506205987471694,1220.75599888755
-0.504705168903955,1220.76599888755
-0.502755017931059,1220.77599888755
-0.501107483849467,1220.78599888755
-0.50033111401388,1220.79599888755
-0.500496659891983,1220.80599888755
-0.501732089840807,1220.81599888755
-0.504270405598842,1220.82599888755
-0.507952901488985,1220.83599888755
-0.512866673647061,1220.84599888755
-0.518687914339464,1220.85599888755
-0.52593365022684,1220.86599888755
-0.534430879824096,1220.87599888755
-0.543740130376088,1220.88599888755
-0.55358069890373,1220.89599888755
-0.563171373873306,1220.90599888755
-0.57287493259531,1220.91599888755
-0.582087022290805,1220.92599888755
-0.591630822455241,1220.93599888755
-0.601456688260178,1220.94599888755
-0.61076105240866,1220.95599888755
-0.619962846768244,1220.96599888755
-0.629161760311321,1220.97599888755
-0.637441072628714,1220.98599888755
-0.646132450010609,1220.99599888755
-0.654943025039674,1221.00599888755
-0.664099516416281,1221.01599888755
-0.673986844119027,1221.02599888755
-0.683339676081388,1221.03599888755
-0.692625159010909,1221.04599888755
-0.701510421266597,1221.05599888755
-0.71015211143682,1221.06599888755
-0.717881909515321,1221.07599888755
-0.725881677904121,1221.08599888755
-0.733350418190711,1221.09599888755
-0.741334415513269,1221.10599888755
-0.749890842085258,1221.11599888755
-0.758865702422438,1221.12599888755
-0.768343364886293,1221.13599888755
-0.777392699238038,1221.14599888755
-0.786029110956546,1221.15599888755
-0.794446922463222,1221.16599888755
-0.801996048777425,1221.17599888755
-0.809754618901601,1221.18599888755
-0.81784416099381,1221.19599888755
-0.826690261139962,1221.20599888755
-0.835996532342549,1221.21599888755
-0.84563993127017,1221.22599888755
-0.855831097557579,1221.23599888755
-0.865367263014306,1221.24599888755
-0.874220754814142,1221.25599888755
-0.882374695024107,1221.26599888755
-0.889160983471557,1221.27599888755
-0.893517892605935,1221.28599888755
-0.892936907619639,1221.29599888755
-0.884377327616325,1221.30599888755
-0.865515426826115,1221.31599888755
-0.836066488980574,1221.32599888755
-0.796979573756572,1221.33599888755
-0.750858668411528,1221.34599888755
-0.700032809500209,1221.35599888755
-0.648780774637974,1221.36599888755
-0.599922711081514,1221.37599888755
-0.555924831999461,1221.38599888755
-0.517960017831532,1221.39599888755
-0.486646580472198,1221.40599888755
-0.462268602312475,1221.41599888755
-0.443290330345956,1221.42599888755
-0.429968083874354,1221.43599888755
-0.421309940067285,1221.44599888755
-0.416000411248788,1221.45599888755
-0.413583617357718,1221.46599888755
-0.413620092605801,1221.47599888755
-0.415306548893288,1221.48599888755
-0.41817640038902,1221.49599888755
-0.421242475785893,1221.50599888755
-0.424685847580231,1221.51599888755
-0.428361507947622,1221.52599888755
-0.433146215108604,1221.53599888755
-0.438993037974757,1221.54599888755
-0.446058096292417,1221.55599888755
-0.453623769283768,1221.56599888755
-0.461410216431163,1221.57599888755
-0.468332038372517,1221.58599888755
-0.473996549633118,1221.59599888755
-0.478325532701303,1221.60599888755
-0.481362470621879,1221.61599888755
-0.48256876720968,1221.62599888755
-0.482507943255479,1221.63599888755
-0.480585069341266,1221.64599888755
-0.477497130185732,1221.65599888755
-0.473840585335873,1221.66599888755
-0.469761320452946,1221.67599888755
-0.465895650832985,1221.68599888755
-0.462490371209917,1221.69599888755
-0.459271123887752,1221.70599888755
-0.456935991164915,1221.71599888755
-0.455720229298356,1221.72599888755
-0.456111971553488,1221.73599888755
-0.458143521847101,1221.74599888755
-0.461459152152487,1221.75599888755
-0.466271957861682,1221.76599888755
-0.472165220232473,1221.77599888755
-0.478731354177775,1221.78599888755
-0.485428848980644,1221.79599888755
-0.492049433538232,1221.80599888755
-0.498337655009042,1221.81599888755
-0.50464131781772,1221.82599888755
-0.511023260376994,1221.83599888755
-0.517592046695145,1221.84599888755
-0.524014735394556,1221.85599888755
-0.53084922538159,1221.86599888755
-0.537819351763208,1221.87599888755
-0.545005476599676,1221.88599888755
-0.55228422290761,1221.89599888755
-0.558714690055931,1221.90599888755
-0.565642421437146,1221.91599888755
-0.572487331496433,1221.92599888755
-0.579546980062375,1221.93599888755
-0.586034278285327,1221.94599888755
-0.59265029237737,1221.95599888755
-0.599399554098079,1221.96599888755
-0.606044044450919,1221.97599888755
-0.612780468645118,1221.98599888755
-0.61981492788974,1221.99599888755
-0.626865010638595,1222.00599888755
-0.634184690886987,1222.01599888755
-0.641502279605912,1222.02599888755
-0.649038703005124,1222.03599888755
-0.656195459960414,1222.04599888755
-0.663897051899689,1222.05599888755
-0.671767889963394,1222.06599888755
-0.679458571843519,1222.07599888755
-0.687435160383153,1222.08599888755
-0.6951608452085,1222.09599888755
-0.703050572842533,1222.10599888755
-0.710275001392272,1222.11599888755
-0.716827055326866,1222.12599888755
-0.723460577023086,1222.13599888755
-0.729626975178461,1222.14599888755
-0.735731829491962,1222.15599888755
-0.742041329196314,1222.16599888755
-0.748120005040174,1222.17599888755
-0.754500882108063,1222.18599888755
-0.761272931680789,1222.19599888755
-0.767921081463712,1222.20599888755
-0.772922802862014,1222.21599888755
-0.775397926103493,1222.22599888755
-0.771841853645783,1222.23599888755
-0.758923430944503,1222.24599888755
-0.735345549769964,1222.25599888755
-0.699616152952985,1222.26599888755
-0.6534901812436,1222.27599888755
-0.599627700697779,1222.28599888755
-0.540202876409935,1222.29599888755
-0.47921415212774,1222.30599888755
-0.419503288427992,1222.31599888755
-0.364147759058457,1222.32599888755
-0.314427545880672,1222.33599888755
-0.273004200895989,1222.34599888755
-0.239247218360702,1222.35599888755
-0.213514319098472,1222.36599888755
-0.195092579318236,1222.37599888755
-0.183474280303611,1222.38599888755
-0.176440589688106,1222.39599888755
-0.172457264345143,1222.40599888755
-0.171017461924691,1222.41599888755
-0.170695288267652,1222.42599888755
-0.171516845317243,1222.43599888755
-0.172605085538385,1222.44599888755
-0.174164834273942,1222.45599888755
-0.176305571246043,1222.46599888755
-0.179603165635463,1222.47599888755
-0.183950896054292,1222.48599888755
-0.189169732076129,1222.49599888755
-0.195655022785445,1222.50599888755
-0.202373383888023,1222.51599888755
-0.208323889188787,1222.52599888755
-0.213097768544555,1222.53599888755
-0.21561749102026,1222.54599888755
-0.216072922951905,1222.55599888755
-0.214920826898347,1222.56599888755
-0.212147472249909,1222.57599888755
-0.208501223351243,1222.58599888755
-0.203533210160055,1222.59599888755
-0.197555397509723,1222.60599888755
-0.190905217010179,1222.61599888755
-0.184335011140426,1222.62599888755
-0.178394413841337,1222.63599888755
-0.173481983036874,1222.64599888755
-0.170133325812947,1222.65599888755
-0.168385198727757,1222.66599888755
-0.168718824526315,1222.67599888755
-0.170693373267232,1222.68599888755
-0.174127555539284,1222.69599888755
-0.178525128013557,1222.70599888755
-0.18337539694129,1222.71599888755
-0.188955426108424,1222.72599888755
-0.195615224820269,1222.73599888755
-0.202332562988127,1222.74599888755
-0.209596507118799,1222.75599888755
-0.216756299158265,1222.76599888755
-0.224465717064124,1222.77599888755
-0.232527053813755,1222.78599888755
-0.240782873981261,1222.79599888755
-0.249620926759742,1222.80599888755
-0.25845016233947,1222.81599888755
-0.267694301335953,1222.82599888755
-0.27594553381073,1222.83599888755
-0.28407402354098,1222.84599888755
-0.291943674237852,1222.85599888755
-0.299980066527084,1222.86599888755
-0.307249219488358,1222.87599888755
-0.314131938733921,1222.88599888755
-0.321075764751365,1222.89599888755
-0.328551287743958,1222.90599888755
-0.336699806818407,1222.91599888755
-0.34497562604613,1222.92599888755
-0.353738151790916,1222.93599888755
-0.362773112950967,1222.94599888755
-0.37205748137192,1222.95599888755
-0.380940426253239,1222.96599888755
-0.389296214742165,1222.97599888755
-0.397758051791124,1222.98599888755
-0.405173446894128,1222.99599888755
-0.412300778276156,1223.00599888755
-0.419008726166449,1223.01599888755
-0.425313729892958,1223.02599888755
-0.431826396621722,1223.03599888755
-0.438084713650784,1223.04599888755
-0.44514880258211,1223.05599888755
-0.452124294631006,1223.06599888755
-0.459506010598407,1223.07599888755
-0.467037022826726,1223.08599888755
-0.474265254789676,1223.09599888755
-0.481249918382239,1223.10599888755
-0.487850133749551,1223.11599888755
-0.494966167432032,1223.12599888755
-0.502107865707601,1223.13599888755
-0.509482168215332,1223.14599888755
-0.515002082141731,1223.15599888755
-0.516187665281803,1223.16599888755
-0.509786977006341,1223.17599888755
-0.491895353317818,1223.18599888755
-0.460609476943132,1223.19599888755
-0.416091712378731,1223.20599888755
-0.360021173626901,1223.21599888755
-0.296355688584903,1223.22599888755
-0.228359317670121,1223.23599888755
-0.160640898955495,1223.24599888755
-0.0958569457363187,1223.25599888755
-0.0367159938277844,1223.26599888755
0.0135350812827711,1223.27599888755
0.0551472738101715,1223.28599888755
0.0865706300151162,1223.29599888755
0.108468342313042,1223.30599888755
0.122018087806401,1223.31599888755
0.128545387127662,1223.32599888755
0.129721315450912,1223.33599888755
0.126760178278428,1223.34599888755
0.121534046676468,1223.35599888755
0.114439624343319,1223.36599888755
0.106593204448506,1223.37599888755
0.0984465108396872,1223.38599888755
0.089430001670208,1223.39599888755
0.0799056448814494,1223.40599888755
0.0688762893463349,1223.41599888755
0.0570567917608936,1223.42599888755
0.0444795449456162,1223.43599888755
0.0318462193868409,1223.44599888755
0.0208229229745114,1223.45599888755
0.0122908197349986,1223.46599888755
0.00689061122175807,1223.47599888755
0.00450214828663111,1223.48599888755
0.00506685223547669,1223.49599888755
0.00810548913992703,1223.50599888755
0.0131044560276917,1223.51599888755
0.020143348479629,1223.52599888755
0.0273998319494211,1223.53599888755
0.0351332727963838,1223.54599888755
0.0419973107776298,1223.55599888755
0.0470201117722053,1223.56599888755
0.0506510094738597,1223.57599888755
0.0518607456260713,1223.58599888755
0.0516421749655552,1223.59599888755
0.0494432209911976,1223.60599888755
0.0453827971679922,1223.61599888755
0.039211705165408,1223.62599888755
0.0315242153382445,1223.63599888755
0.0232810101595666,1223.64599888755
0.0138186004004522,1223.65599888755
0.00445281918801392,1223.66599888755
-0.00504762921140586,1223.67599888755
-0.0143033762955674,1223.68599888755
-0.0245701231791822,1223.69599888755
-0.0343806573133315,1223.70599888755
-0.0444202534320123,1223.71599888755
-0.0542231847693508,1223.72599888755
-0.0637736323041944,1223.73599888755
-0.0730850337326319,1223.74599888755
-0.0821895996315596,1223.75599888755
-0.0915331736221963,1223.76599888755
-0.100949328019446,1223.77599888755
-0.110167899457185,1223.78599888755
-0.11885811443521,1223.79599888755
-0.127194032766689,1223.80599888755
-0.135435630378953,1223.81599888755
-0.143396134572086,1223.82599888755
-0.152015835604431,1223.83599888755
-0.161294965440192,1223.84599888755
-0.170909206383959,1223.85599888755
-0.180864337701614,1223.86599888755
-0.191132027463634,1223.87599888755
-0.201300525739247,1223.88599888755
-0.211425942025773,1223.89599888755
-0.2207851102984,1223.90599888755
-0.229278400131204,1223.91599888755
-0.237601835861123,1223.92599888755
-0.245909333190083,1223.93599888755
-0.254199022284999,1223.94599888755
-0.262688382612712,1223.95599888755
-0.27086004835614,1223.96599888755
-0.278862498020516,1223.97599888755
-0.286749834219432,1223.98599888755
-0.294657297083045,1223.99599888755
-0.302781982926288,1224.00599888755
-0.311570153557654,1224.01599888755
-0.32034732214989,1224.02599888755
-0.329050164033965,1224.03599888755
-0.337779210002588,1224.04599888755
-0.345971894607116,1224.05599888755
-0.352136942467975,1224.06599888755
-0.35410142061746,1224.07599888755
-0.348603902201491,1224.08599888755
-0.331896166010537,1224.09599888755
-0.301763559017446,1224.10599888755
-0.25660606197701,1224.11599888755
-0.19643344591654,1224.12599888755
-0.124801300563709,1224.13599888755
-0.045118317389251,1224.14599888755
0.0364999810404957,1224.15599888755
0.117085743875682,1224.16599888755
0.192420677038173,1224.17599888755
0.259017802308238,1224.18599888755
0.314775352720112,1224.19599888755
0.358271949631235,1224.20599888755
0.389450225216972,1224.21599888755
0.409015173267636,1224.22599888755
0.418506273601559,1224.23599888755
0.420181832531808,1224.24599888755
0.416016786653098,1224.25599888755
0.408077323168915,1224.26599888755
0.397618867833367,1224.27599888755
0.385671737023877,1224.28599888755
0.3732200780137,1224.29599888755
0.360663642304457,1224.30599888755
0.347671223545591,1224.31599888755
0.333256241613059,1224.32599888755
0.318013162927972,1224.33599888755
0.301513848969769,1224.34599888755
0.284979116433739,1224.35599888755
0.269652607389987,1224.36599888755
0.255406513179534,1224.37599888755
0.243898422258187,1224.38599888755
0.234936367533544,1224.39599888755
0.229728273415461,1224.40599888755
0.2275328694045,1224.41599888755
0.228354695655082,1224.42599888755
0.231853133888737,1224.43599888755
0.236606344564916,1224.44599888755
0.242668288098719,1224.45599888755
0.248938388362118,1224.46599888755
0.25446787286451,1224.47599888755
0.258501508634684,1224.48599888755
0.260277469476357,1224.49599888755
0.259419852587026,1224.50599888755
0.255890660644724,1224.51599888755
0.249461323977174,1224.52599888755
0.240941084274852,1224.53599888755
0.230795614567394,1224.54599888755
0.220147289921984,1224.55599888755
0.208907190714309,1224.56599888755
0.19730817035419,1224.57599888755
0.185754362571961,1224.58599888755
0.173449780968617,1224.59599888755
0.161216292895414,1224.60599888755
0.1491481808022,1224.61599888755
0.137537352686046,1224.62599888755
0.125967089060688,1224.63599888755
0.114659790400435,1224.64599888755
0.103475276577074,1224.65599888755
0.092042334567852,1224.66599888755
0.0800641465199881,1224.67599888755
0.068102338881696,1224.68599888755
0.0553539643349765,1224.69599888755
0.0435142891392318,1224.70599888755
0.0316149856925052,1224.71599888755
0.0203458775376161,1224.72599888755
0.00908956698056373,1224.73599888755
-0.00183814817218854,1224.74599888755
-0.0122728229383468,1224.75599888755
-0.0229755631565702,1224.76599888755
-0.0341322294097058,1224.77599888755
-0.0457853951802156,1224.78599888755
-0.0570361478785881,1224.79599888755
-0.0675712349887848,1224.80599888755
-0.0779761244733157,1224.81599888755
-0.0883715584582343,1224.82599888755
-0.0990137149252527,1224.83599888755
-0.110471547019873,1224.84599888755
-0.12254206764485,1224.85599888755
-0.134383130572593,1224.86599888755
-0.145798584525482,1224.87599888755
-0.156218142851407,1224.88599888755
-0.165635171558935,1224.89599888755
-0.174056797112619,1224.90599888755
-0.181999473282811,1224.91599888755
-0.18982703758587,1224.92599888755
-0.198123664836068,1224.93599888755
-0.206719620952507,1224.94599888755
-0.215662031138728,1224.95599888755
-0.225252707349981,1224.96599888755
-0.235176062444377,1224.97599888755
-0.245033766490839,1224.98599888755
-0.254430397303359,1224.99599888755
-0.262097089480484,1225.00599888755
-0.26543157716581,1225.01599888755
-0.259962140442069,1225.02599888755
-0.242017578028834,1225.03599888755
-0.208175863893437,1225.04599888755
-0.157797945850462,1225.05599888755
-0.0902869278772218,1225.06599888755
-0.00831378902205096,1225.07599888755
0.0829155357367967,1225.08599888755
0.17873151933767,1225.09599888755
0.273196710237998,1225.10599888755
0.36108609555654,1225.11599888755
0.438038248622371,1225.12599888755
0.501347618660584,1225.13599888755
0.54962651167685,1225.14599888755
0.583720402368134,1225.15599888755
0.604822422922389,1225.16599888755
0.614898754533079,1225.17599888755
0.616457394934857,1225.18599888755
0.610997650752724,1225.19599888755
0.600790715342718,1225.20599888755
0.587719733512862,1225.21599888755
0.572945401299088,1225.22599888755
0.557988771751165,1225.23599888755
0.543493805972515,1225.24599888755
0.528289735975862,1225.25599888755
0.513182251403215,1225.26599888755
0.497623448728425,1225.27599888755
0.481294990143397,1225.28599888755
0.464127823022592,1225.29599888755
0.44635308571353,1225.30599888755
0.429131970707884,1225.31599888755
0.413438234799607,1225.32599888755
0.399884986137727,1225.33599888755
0.389112914109604,1225.34599888755
0.380926189207208,1225.35599888755
0.375228896976946,1225.36599888755
0.372096489391618,1225.37599888755
0.370884309037543,1225.38599888755
0.371169724188056,1225.39599888755
0.372353805876651,1225.40599888755
0.374363586685725,1225.41599888755
0.376394481547255,1225.42599888755
0.377546518585908,1225.43599888755
0.377427957393189,1225.44599888755
0.375243790060771,1225.45599888755
0.371004781322911,1225.46599888755
0.364114371973181,1225.47599888755
0.35463767012843,1225.48599888755
0.343070678861684,1225.49599888755
0.329295666723172,1225.50599888755
0.314549222812224,1225.51599888755
0.298691566771558,1225.52599888755
0.28224713319192,1225.53599888755
0.265463641465257,1225.54599888755
0.248310150265591,1225.55599888755
0.231489049643454,1225.56599888755
0.215239354804429,1225.57599888755
0.199842649588863,1225.58599888755
0.184853750891953,1225.59599888755
0.170115971929638,1225.60599888755
0.155406491556405,1225.61599888755
0.140576489001959,1225.62599888755
0.125816368601476,1225.63599888755
0.110243131050947,1225.64599888755
0.0948606199384819,1225.65599888755
0.0795729054130692,1225.66599888755
0.0643132507351802,1225.67599888755
0.0500503454190554,1225.68599888755
0.0354744106910668,1225.69599888755
0.0216457067597212,1225.70599888755
0.00775688287163542,1225.71599888755
-0.00652046957040473,1225.72599888755
-0.0209749200681423,1225.73599888755
-0.0356522307029459,1225.74599888755
-0.0502705400942881,1225.75599888755
-0.0654275684763692,1225.76599888755
-0.0811013979622839,1225.77599888755
-0.0962570720419269,1225.78599888755
-0.111957007284943,1225.79599888755
-0.127821512964727,1225.80599888755
-0.143023651096702,1225.81599888755
-0.158425242096588,1225.82599888755
-0.173099360414544,1225.83599888755
-0.187658238876015,1225.84599888755
-0.202398695281631,1225.85599888755
-0.216519588223528,1225.86599888755
-0.230129234660322,1225.87599888755
-0.243272117128377,1225.88599888755
-0.256488311651305,1225.89599888755
-0.269091262778738,1225.90599888755
-0.281744982705184,1225.91599888755
-0.294189236165282,1225.92599888755
-0.307342495287254,1225.93599888755
-0.320337949919888,1225.94599888755
-0.332869148135785,1225.95599888755
-0.34174025889544,1225.96599888755
-0.344157360302318,1225.97599888755
-0.336401748242149,1225.98599888755
-0.315859570736137,1225.99599888755
-0.281952085202779,1226.00599888755
-0.234910697415195,1226.01599888755
-0.177803745780591,1226.02599888755
-0.114966451075887,1226.03599888755
-0.0511464382585688,1226.04599888755
0.00951705673875286,1226.05599888755
0.0639587309106009,1226.06599888755
0.108320284281472,1226.07599888755
0.142509791983277,1226.08599888755
0.16574933980774,1226.09599888755
0.178887468652507,1226.10599888755
0.18366956938778,1226.11599888755
0.180779064857623,1226.12599888755
0.172593305204282,1226.13599888755
0.160451575791029,1226.14599888755
0.145101628569657,1226.15599888755
0.128685228789737,1226.16599888755
0.111908662610971,1226.17599888755
0.0950178453999111,1226.18599888755
0.0783163991860584,1226.19599888755
0.0619841792907327,1226.20599888755
0.0459781752497646,1226.21599888755
0.0291071074302023,1226.22599888755
0.0117690182981315,1226.23599888755
-0.00636500867940647,1226.24599888755
-0.0246825255688499,1226.25599888755
-0.0423030914830371,1226.26599888755
-0.0576841942081864,1226.27599888755
-0.0710026246894167,1226.28599888755
-0.0816735852424432,1226.29599888755
-0.0895243859736742,1226.30599888755
-0.0955460994516212,1226.31599888755
-0.0992910483845646,1226.32599888755
-0.101409864760041,1226.33599888755
-0.102147736149485,1226.34599888755
-0.102661804436766,1226.35599888755
-0.103644666502974,1226.36599888755
-0.10583897421109,1226.37599888755
-0.109734852689009,1226.38599888755
-0.115309880255691,1226.39599888755
-0.12276674720008,1226.40599888755
-0.131656061053694,1226.41599888755
-0.141984574537548,1226.42599888755
-0.152880377542606,1226.43599888755
-0.164556150521964,1226.44599888755
-0.177309137388635,1226.45599888755
-0.190486750136016,1226.46599888755
-0.204405596078349,1226.47599888755
-0.218777593231047,1226.48599888755
-0.233409929011097,1226.49599888755
-0.248087242803685,1226.50599888755
-0.262097588431834,1226.51599888755
-0.275939411112245,1226.52599888755
-0.289722186510502,1226.53599888755
-0.302977863134658,1226.54599888755
-0.31629145609582,1226.55599888755
-0.329619428323776,1226.56599888755
-0.342351622188086,1226.57599888755
-0.354817011010482,1226.58599888755
-0.367515322405882,1226.59599888755
-0.379922825257796,1226.60599888755
-0.392822494543813,1226.61599888755
-0.405679776406098,1226.62599888755
-0.418644397065354,1226.63599888755
-0.431837856174943,1226.64599888755
-0.44494904898059,1226.65599888755
-0.457993746188787,1226.66599888755
-0.470772353527187,1226.67599888755
-0.483422772354884,1226.68599888755
-0.495260439555165,1226.69599888755
-0.507428305417677,1226.70599888755
-0.51910169146364,1226.71599888755
-0.531092914687385,1226.72599888755
-0.543406515079829,1226.73599888755
-0.556122955444371,1226.74599888755
-0.568513722098768,1226.75599888755
-0.581037107241271,1226.76599888755
-0.592805747281664,1226.77599888755
-0.6045663744754,1226.78599888755
-0.615571634676265,1226.79599888755
-0.626147711372299,1226.80599888755
-0.636799994269111,1226.81599888755
-0.648120005448326,1226.82599888755
-0.659685595416482,1226.83599888755
-0.670070563549419,1226.84599888755
-0.677013109187533,1226.85599888755
-0.678308038667352,1226.86599888755
-0.671081703676648,1226.87599888755
-0.654888704254684,1226.88599888755
-0.629087083845667,1226.89599888755
-0.596375985831396,1226.90599888755
-0.559215190934267,1226.91599888755
-0.520465848856866,1226.92599888755
-0.483106569907498,1226.93599888755
-0.449686968326463,1226.94599888755
-0.421675785342457,1226.95599888755
-0.400084619295277,1226.96599888755
-0.38496070142391,1226.97599888755
-0.376564728761979,1226.98599888755
-0.374243727395381,1226.99599888755
-0.37711100739163,1227.00599888755
-0.383742587923819,1227.01599888755
-0.392772610110716,1227.02599888755
-0.403769239408308,1227.03599888755
-0.415846163551796,1227.04599888755
-0.427928324128479,1227.05599888755
-0.439906726110489,1227.06599888755
-0.451338833530353,1227.07599888755
-0.463427351105132,1227.08599888755
-0.474630121845751,1227.09599888755
-0.486539223556729,1227.10599888755
-0.498951178641592,1227.11599888755
-0.511518670372367,1227.12599888755
-0.523388325330725,1227.13599888755
-0.534273878548751,1227.14599888755
-0.543358677072083,1227.15599888755
-0.550137303131962,1227.16599888755
-0.555051243722041,1227.17599888755
-0.558424556054235,1227.18599888755
-0.560349314513324,1227.19599888755
-0.561143727771167,1227.20599888755
-0.561404810443526,1227.21599888755
-0.561173744602143,1227.22599888755
-0.560826347498199,1227.23599888755
-0.561030468483195,1227.24599888755
-0.562558625787512,1227.25599888755
-0.565007637673677,1227.26599888755
-0.568398816901527,1227.27599888755
-0.572536245969265,1227.28599888755
-0.577817259131216,1227.29599888755
-0.58393345547761,1227.30599888755
-0.590963136634486,1227.31599888755
-0.59883963216611,1227.32599888755
-0.607398000562571,1227.33599888755
-0.616643955249197,1227.34599888755
-0.626098309601857,1227.35599888755
-0.635772881994188,1227.36599888755
-0.645285174110191,1227.37599888755
-0.654052581802366,1227.38599888755
-0.662691712709469,1227.39599888755
-0.670694591174886,1227.40599888755
-0.678364532652829,1227.41599888755
-0.686071006759266,1227.42599888755
-0.693443056576047,1227.43599888755
-0.700657983286016,1227.44599888755
-0.707560159914115,1227.45599888755
-0.714383636136245,1227.46599888755
-0.721292588011576,1227.47599888755
-0.728681691616092,1227.48599888755
-0.736444294462353,1227.49599888755
-0.744270207904893,1227.50599888755
-0.75191869233958,1227.51599888755
-0.7593410883691,1227.52599888755
-0.766417018288746,1227.53599888755
-0.773129433189272,1227.54599888755
-0.780257709212545,1227.55599888755
-0.787954030014908,1227.56599888755
-0.795776568812367,1227.57599888755
-0.804033889268381,1227.58599888755
-0.811943367152813,1227.59599888755
-0.819649054995769,1227.60599888755
-0.82676762513947,1227.61599888755
-0.833088860535606,1227.62599888755
-0.838671551949147,1227.63599888755
-0.84410717104015,1227.64599888755
-0.849005386586029,1227.65599888755
-0.854594947769051,1227.66599888755
-0.860729840544972,1227.67599888755
-0.866751831795588,1227.68599888755
-0.872770061092041,1227.69599888755
-0.878879839588959,1227.70599888755
-0.885782011501433,1227.71599888755
-0.892324891494358,1227.72599888755
-0.897697706711793,1227.73599888755
-0.90035524077136,1227.74599888755
-0.897752610361991,1227.75599888755
-0.887830743862597,1227.76599888755
-0.869191291141585,1227.77599888755
-0.841054358832447,1227.78599888755
-0.805361760629114,1227.79599888755
-0.76423941382858,1227.80599888755
-0.720461690897348,1227.81599888755
-0.676948940021665,1227.82599888755
-0.636740918532829,1227.83599888755
-0.601778415330613,1227.84599888755
-0.572962636427062,1227.85599888755
-0.550591697757263,1227.86599888755
-0.534936917623176,1227.87599888755
-0.524763672952476,1227.88599888755
-0.519036090419622,1227.89599888755
-0.51683406361926,1227.90599888755
-0.517555385863021,1227.91599888755
-0.519762838803329,1227.92599888755
-0.523188005042832,1227.93599888755
-0.526934918055259,1227.94599888755
-0.530266562555651,1227.95599888755
-0.532988827371678,1227.96599888755
-0.534920055960182,1227.97599888755
-0.53750279047974,1227.98599888755
-0.541062914268352,1227.99599888755
-0.545703174757695,1228.00599888755
-0.551035038230251,1228.01599888755
-0.557107489119388,1228.02599888755
-0.563497505198412,1228.03599888755
-0.56884377902115,1228.04599888755
-0.573186518554255,1228.05599888755
-0.576262589987056,1228.06599888755
-0.577930237398527,1228.07599888755
-0.578474183080108,1228.08599888755
-0.578083445736783,1228.09599888755
-0.576907901357384,1228.10599888755
-0.57538090871803,1228.11599888755
-0.572452869839162,1228.12599888755
-0.568891474709941,1228.13599888755
-0.564642145594365,1228.14599888755
-0.56067047007133,1228.15599888755
-0.557252362158391,1228.16599888755
-0.555320614659115,1228.17599888755
-0.554848154595218,1228.18599888755
-0.555610014196529,1228.19599888755
-0.557240909524104,1228.20599888755
-0.56032831713657,1228.21599888755
-0.563941291475122,1228.22599888755
-0.567943785508947,1228.23599888755
-0.572560171505361,1228.24599888755
-0.577397201332431,1228.25599888755
-0.582452386988902,1228.26599888755
-0.586835715286776,1228.27599888755
-0.590807527264831,1228.28599888755
-0.594579579894613,1228.29599888755
-0.598781567895554,1228.30599888755
-0.603412753623203,1228.31599888755
-0.608086347048141,1228.32599888755
-0.613040550929703,1228.33599888755
-0.617968878095838,1228.34599888755
-0.622553935689596,1228.35599888755
-0.626540798521473,1228.36599888755
-0.631063403667838,1228.37599888755
-0.635844917700633,1228.38599888755
-0.64044995094045,1228.39599888755
-0.645096299830323,1228.40599888755
-0.649081080911445,1228.41599888755
-0.653272886475056,1228.42599888755
-0.657162380954636,1228.43599888755
-0.661134038958719,1228.44599888755
-0.664720495497358,1228.45599888755
-0.668908307995287,1228.46599888755
-0.673748494645639,1228.47599888755
-0.67883917481459,1228.48599888755
-0.683989859119242,1228.49599888755
-0.689063556421365,1228.50599888755
-0.6937854588221,1228.51599888755
-0.698538298912599,1228.52599888755
-0.703035781705482,1228.53599888755
-0.707250620520702,1228.54599888755
-0.711787399077832,1228.55599888755
-0.716035455066521,1228.56599888755
-0.720590400345363,1228.57599888755
-0.724931123158545,1228.58599888755
-0.729344553208181,1228.59599888755
-0.73393725050889,1228.60599888755
-0.738090143924197,1228.61599888755
-0.742384029126644,1228.62599888755
-0.747120674811166,1228.63599888755
-0.751178040006265,1228.64599888755
-0.7532299703282,1228.65599888755
-0.751358844949308,1228.66599888755
-0.743256214391117,1228.67599888755
-0.7260146134879,1228.68599888755
-0.69856070580448,1228.69599888755
-0.661521901458509,1228.70599888755
-0.616735640326453,1228.71599888755
-0.566807274060803,1228.72599888755
-0.514719075291756,1228.73599888755
-0.463557644133368,1228.74599888755
-0.415881918826164,1228.75599888755
-0.373800694942661,1228.76599888755
-0.338108853085256,1228.77599888755
-0.309824499559406,1228.78599888755
-0.288698434487378,1228.79599888755
-0.273510306626663,1228.80599888755
-0.264009047244075,1228.81599888755
-0.259242671715226,1228.82599888755
-0.257817861394009,1228.83599888755
-0.25942932733074,1228.84599888755
-0.262962174647471,1228.85599888755
-0.266928853960817,1228.86599888755
-0.271349650501742,1228.87599888755
-0.275081987169104,1228.88599888755
-0.278853906691281,1228.89599888755
-0.282466348764041,1228.90599888755
-0.286249350042774,1228.91599888755
-0.290998845551137,1228.92599888755
-0.296478119642511,1228.93599888755
-0.302427136580645,1228.94599888755
-0.307523867275211,1228.95599888755
-0.312274780672712,1228.96599888755
-0.315441465424137,1228.97599888755
-0.317223701621649,1228.98599888755
-0.317083854753423,1228.99599888755
-0.315088376060761,1229.00599888755
-0.311173594875699,1229.01599888755
-0.305523589908404,1229.02599888755
-0.299127087070271,1229.03599888755
-0.292297838112563,1229.04599888755
-0.285796829026307,1229.05599888755
-0.279527340726593,1229.06599888755
-0.274432431080719,1229.07599888755
-0.270172261023644,1229.08599888755
-0.266702271820552,1229.09599888755
-0.264907613982656,1229.10599888755
-0.265169795267987,1229.11599888755
-0.267213331526721,1229.12599888755
-0.269839225029063,1229.13599888755
-0.273163703759451,1229.14599888755
-0.276512451530273,1229.15599888755
-0.27998593675985,1229.16599888755
-0.283950333929175,1229.17599888755
-0.289002882146202,1229.18599888755
-0.294511971585327,1229.19599888755
-0.299941175870125,1229.20599888755
-0.305706690568858,1229.21599888755
-0.311345988487882,1229.22599888755
-0.316400562054237,1229.23599888755
-0.321046917259517,1229.24599888755
-0.325875082631117,1229.25599888755
-0.330880075256068,1229.26599888755
-0.335506673784668,1229.27599888755
-0.340347970275541,1229.28599888755
-0.345554278518203,1229.29599888755
-0.350508245123027,1229.30599888755
-0.355828512823678,1229.31599888755
-0.361208238372042,1229.32599888755
-0.366815965201696,1229.33599888755
-0.371978062272417,1229.34599888755
-0.377435854846431,1229.35599888755
-0.383258786665175,1229.36599888755
-0.389700443396417,1229.37599888755
-0.396137986803508,1229.38599888755
-0.402799948114546,1229.39599888755
-0.408777035539169,1229.40599888755
-0.415069363397841,1229.41599888755
-0.421087149373534,1229.42599888755
-0.426407816493523,1229.43599888755
-0.431508293242547,1229.44599888755
-0.436272018254221,1229.45599888755
-0.441027260395201,1229.46599888755
-0.44567346214506,1229.47599888755
-0.450896773965546,1229.48599888755
-0.45664460983388,1229.49599888755
-0.462431141304656,1229.50599888755
-0.468261591386526,1229.51599888755
-0.473983274983764,1229.52599888755
-0.479455389590318,1229.53599888755
-0.484950634840807,1229.54599888755
-0.489772707909947,1229.55599888755
-0.493671166135753,1229.56599888755
-0.493946116633256,1229.57599888755
-0.48741690533259,1229.58599888755
-0.471580384335952,1229.59599888755
-0.444736288505692,1229.60599888755
-0.406583458669913,1229.61599888755
-0.359659042689454,1229.62599888755
-0.306573052731918,1229.63599888755
-0.250578087557069,1229.64599888755
-0.194656616424706,1229.65599888755
-0.142140348966246,1229.66599888755
-0.0948439823249212,1229.67599888755
-0.0547903081175897,1229.68599888755
-0.0230872740319927,1229.69599888755
-3.21114074040078e-06,1229.70599888755
0.0145309823641941,1229.71599888755
0.0220965916040304,1229.72599888755
0.0238088387763401,1229.73599888755
0.0218010650621363,1229.74599888755
0.016387426213581,1229.75599888755
0.00926419129563514,1229.76599888755
0.00105935338084299,1229.77599888755
-0.00749928721333438,1229.78599888755
-0.0157544880078737,1229.79599888755
-0.0233908977726515,1229.80599888755
-0.0309573288435909,1229.81599888755
-0.0383340416274892,1229.82599888755
-0.045054238117744,1229.83599888755
-0.0512351368983485,1229.84599888755
-0.0563341849582857,1229.85599888755
-0.0600526221744521,1229.86599888755
-0.0617272823042939,1229.87599888755
-0.0611937314757942,1229.88599888755
-0.0588490196672973,1229.89599888755
-0.0553405573843432,1229.90599888755
-0.0506641684149049,1229.91599888755
-0.0460260797568379,1229.92599888755
-0.0411086188434392,1229.93599888755
-0.0369411184649323,1229.94599888755
-0.033649565112597,1229.95599888755
-0.030511798315423,1229.96599888755
-0.0279802179401095,1229.97599888755
-0.0263802617722188,1229.98599888755
-0.0263255950227357,1229.99599888755
-0.0280520541717563,1230.00599888755
-0.0318261937068176,1230.01599888755
-0.0376395618192252,1230.02599888755
-0.0442574927732826,1230.03599888755
-0.0513038002271792,1230.04599888755
-0.0578132232845348,1230.05599888755
-0.0644575710506801,1230.06599888755
-0.0707225254326196,1230.07599888755
-0.0770263131900156,1230.08599888755
-0.0839752439562215,1230.09599888755
-0.0904424706023838,1230.10599888755
-0.0974395407701106,1230.11599888755
-0.104177710900846,1230.12599888755
-0.110658836326391,1230.13599888755
-0.116746398209813,1230.14599888755
-0.122376314698695,1230.15599888755
-0.128159811393218,1230.16599888755
-0.134192039989,1230.17599888755
-0.140732763205146,1230.18599888755
-0.147370474227843,1230.19599888755
-0.154199133615666,1230.20599888755
-0.161199607423057,1230.21599888755
-0.168324901554512,1230.22599888755
-0.175807773826601,1230.23599888755
-0.183868627645773,1230.24599888755
-0.191920853816788,1230.25599888755
-0.199903371500057,1230.26599888755
-0.20747209350096,1230.27599888755
-0.214522474135312,1230.28599888755
-0.221055910148509,1230.29599888755
-0.22748086038221,1230.30599888755
-0.233946751275353,1230.31599888755
-0.241073130921289,1230.32599888755
-0.248455337700566,1230.33599888755
-0.256643585300477,1230.34599888755
-0.264476442325018,1230.35599888755
-0.272942760495088,1230.36599888755
-0.280823415025642,1230.37599888755
-0.288375028322776,1230.38599888755
-0.295537236306421,1230.39599888755
-0.30190441048904,1230.40599888755
-0.308121115044379,1230.41599888755
-0.314708628691242,1230.42599888755
-0.320984771536002,1230.43599888755
-0.327469453755655,1230.44599888755
-0.334089585171574,1230.45599888755
-0.340640155911965,1230.46599888755
-0.347861918825661,1230.47599888755
-0.354871820807953,1230.48599888755
-0.361155551559964,1230.49599888755
-0.366270421658444,1230.50599888755
-0.366787965616795,1230.51599888755
-0.359914368149022,1230.52599888755
-0.341836875250702,1230.53599888755
-0.310613622835835,1230.54599888755
-0.266263709619579,1230.55599888755
-0.210513969388614,1230.56599888755
-0.147792745226537,1230.57599888755
-0.0817449604529979,1230.58599888755
-0.0160383689347398,1230.59599888755
0.0459286577361463,1230.60599888755
0.100961674622807,1230.61599888755
0.147544198520201,1230.62599888755
0.185172670452962,1230.63599888755
0.21341163672724,1230.64599888755
0.233532827198057,1230.65599888755
0.24687716087775,1230.66599888755
0.253865667493662,1230.67599888755
0.255528443733547,1230.68599888755
0.252980092229477,1230.69599888755
0.247707700853194,1230.70599888755
0.240550885588913,1230.71599888755
0.232481874379718,1230.72599888755
0.224457750423317,1230.73599888755
0.216524283866983,1230.74599888755
0.209175719280544,1230.75599888755
0.20202696722898,1230.76599888755
0.194710299225779,1230.77599888755
0.187438707259936,1230.78599888755
0.180299568820859,1230.79599888755
0.173676868165813,1230.80599888755
0.168556309163933,1230.81599888755
0.166145010610179,1230.82599888755
0.166939432212821,1230.83599888755
0.172180695266772,1230.84599888755
0.181221518994467,1230.85599888755
0.19488520258902,1230.86599888755
0.212075363398092,1230.87599888755
0.231665765714683,1230.88599888755
0.252402688476045,1230.89599888755
0.272294387659988,1230.90599888755
0.290139366048425,1230.91599888755
0.304741702654113,1230.92599888755
0.315156822538509,1230.93599888755
0.321382106435175,1230.94599888755
0.322833464284466,1230.95599888755
0.320361450556041,1230.96599888755
0.314561919720143,1230.97599888755
0.305869946115553,1230.98599888755
0.295966675248274,1230.99599888755
0.284379800887278,1231.00599888755
0.27135634280921,1231.01599888755
0.258109167956191,1231.02599888755
0.243567774425079,1231.03599888755
0.229260688889634,1231.04599888755
0.215270283995231,1231.05599888755
0.201764041838852,1231.06599888755
0.188928950975883,1231.07599888755
0.177090035411401,1231.08599888755
0.16613138230169,1231.09599888755
0.156380203919917,1231.10599888755
0.14755227870596,1231.11599888755
0.139503669550754,1231.12599888755
0.132044700899651,1231.13599888755
0.125262058717679,1231.14599888755
0.119058072348348,1231.15599888755
0.113241747115036,1231.16599888755
0.107563974228148,1231.17599888755
0.101295116234228,1231.18599888755
0.0950615950890057,1231.19599888755
0.0881461415180297,1231.20599888755
0.0814704001369184,1231.21599888755
0.0744953589028092,1231.22599888755
0.0668651983814825,1231.23599888755
0.0590989814458053,1231.24599888755
0.0509365362374753,1231.25599888755
0.0426095865364767,1231.26599888755
0.0344181782676803,1231.27599888755
0.0259351961305112,1231.28599888755
0.0173850508088545,1231.29599888755
0.00835737994982843,1231.30599888755
-0.00100018600037513,1231.31599888755
-0.010640927106249,1231.32599888755
-0.0204204148109257,1231.33599888755
-0.0300826820087195,1231.34599888755
-0.0392435616615925,1231.35599888755
-0.0481383850032197,1231.36599888755
-0.0565391184752582,1231.37599888755
-0.064903985661052,1231.38599888755
-0.0727183673911805,1231.39599888755
-0.0790201264366294,1231.40599888755
-0.0800774557578418,1231.41599888755
-0.0718237980007349,1231.42599888755
-0.0500513116046334,1231.43599888755
-0.0126227986196836,1231.44599888755
0.0406021759189724,1231.45599888755
0.107775444453198,1231.46599888755
0.184887287670162,1231.47599888755
0.268705418179246,1231.48599888755
0.354084722464867,1231.49599888755
0.43631821208094,1231.50599888755
0.512050877219029,1231.51599888755
0.578179449243863,1231.52599888755
0.632538171481138,1231.53599888755
0.674696981024192,1231.54599888755
0.704187867084152,1231.55599888755
0.721974772957657,1231.56599888755
0.729768962924623,1231.57599888755
0.730065017576805,1231.58599888755
0.724415834785002,1231.59599888755
0.715318063193066,1231.60599888755
0.704900031139308,1231.61599888755
0.693828712235556,1231.62599888755
0.683351952596949,1231.63599888755
0.673777267427681,1231.64599888755
0.664210224590885,1231.65599888755
0.654630416530096,1231.66599888755
0.643559396805118,1231.67599888755
0.631598313095721,1231.68599888755
0.618925400320899,1231.69599888755
0.606467580643938,1231.70599888755
0.594683326848859,1231.71599888755
0.584437921766367,1231.72599888755
0.576441117347071,1231.73599888755
0.570538011670947,1231.74599888755
0.567252325965104,1231.75599888755
0.565418481571232,1231.76599888755
0.565043366786682,1231.77599888755
0.566389188921765,1231.78599888755
0.568789593749213,1231.79599888755
0.571909289161395,1231.80599888755
0.57512311015514,1231.81599888755
0.577882936387719,1231.82599888755
0.579197094034888,1231.83599888755
0.579137323897751,1231.84599888755
0.576987901961616,1231.85599888755
0.57269874417196,1231.86599888755
0.56684153419669,1231.87599888755
0.559088577183589,1231.88599888755
0.549307478353661,1231.89599888755
0.537525072165151,1231.90599888755
0.525306660936719,1231.91599888755
0.512360433509879,1231.92599888755
0.499490047564743,1231.93599888755
0.486064414286759,1231.94599888755
0.471890266383122,1231.95599888755
0.45792631992968,1231.96599888755
0.443750181739622,1231.97599888755
0.430327882271947,1231.98599888755
0.416855951354638,1231.99599888755
0.404551474917888,1232.00599888755
0.392562979882583,1232.01599888755
0.38021014031936,1232.02599888755
0.36824471211117,1232.03599888755
0.355556727263628,1232.04599888755
0.342845814461039,1232.05599888755
0.330073268058198,1232.06599888755
0.317571095598885,1232.07599888755
0.304924831845366,1232.08599888755
0.292408784906173,1232.09599888755
0.280201469913716,1232.10599888755
0.268056476676411,1232.11599888755
0.25625845816109,1232.12599888755
0.24439925326663,1232.13599888755
0.232779867278855,1232.14599888755
0.221847491077587,1232.15599888755
0.210811065016069,1232.16599888755
0.199646399079524,1232.17599888755
0.188240237541149,1232.18599888755
0.176410441901604,1232.19599888755
0.164487290211225,1232.20599888755
0.153213769567861,1232.21599888755
0.142234174664822,1232.22599888755
0.131305202229584,1232.23599888755
0.119926986252838,1232.24599888755
0.108473771332674,1232.25599888755
0.0969001933958295,1232.26599888755
0.0855694943893174,1232.27599888755
0.0749503813466932,1232.28599888755
0.0650266051426624,1232.29599888755
0.0546957145088702,1232.30599888755
0.0452349357416775,1232.31599888755
0.0364737896614388,1232.32599888755
0.0318069634757627,1232.33599888755
0.03510341955026,1232.34599888755
0.0508250289831698,1232.35599888755
0.0827189813514226,1232.36599888755
0.131244653285104,1232.37599888755
0.196871286510864,1232.38599888755
0.275929250300951,1232.39599888755
0.364278037285965,1232.40599888755
0.456890827216717,1232.41599888755
0.547493695941144,1232.42599888755
0.631357017215807,1232.43599888755
0.703920488118386,1232.44599888755
0.762863591272574,1232.45599888755
0.806958573993455,1232.46599888755
0.836531424495664,1232.47599888755
0.852610234577856,1232.48599888755
0.857256856796338,1232.49599888755
0.852342283806412,1232.50599888755
0.84111173148484,1232.51599888755
0.824634850962521,1232.52599888755
0.806162361729218,1232.53599888755
0.786931083944372,1232.54599888755
0.767975515792568,1232.55599888755
0.749797083538329,1232.56599888755
0.73207918675428,1232.57599888755
0.714119044524164,1232.58599888755
0.69507506005493,1232.59599888755
0.67530092265737,1232.60599888755
0.654658364620123,1232.61599888755
0.633948064681861,1232.62599888755
0.614111235656311,1232.63599888755
0.59605739519078,1232.64599888755
0.581408835336722,1232.65599888755
0.57020856714037,1232.66599888755
0.562861020189404,1232.67599888755
0.558626550116669,1232.68599888755
0.557398326177028,1232.69599888755
0.558230729643773,1232.70599888755
0.560593209297781,1232.71599888755
0.563702231146972,1232.72599888755
0.566626029826682,1232.73599888755
0.568029339332942,1232.74599888755
0.567732029848263,1232.75599888755
0.565048456007322,1232.76599888755
0.560397133197003,1232.77599888755
0.553610985908631,1232.78599888755
0.544363588291427,1232.79599888755
0.533653344348448,1232.80599888755
0.520837419018509,1232.81599888755
0.507589241866831,1232.82599888755
0.493065519691631,1232.83599888755
0.477542655624177,1232.84599888755
0.461062112099493,1232.85599888755
0.44427606268366,1232.86599888755
0.42780407913019,1232.87599888755
0.411198081122323,1232.88599888755
0.3962154318781,1232.89599888755
0.381504950936675,1232.90599888755
0.366780767581373,1232.91599888755
0.352753060418394,1232.92599888755
0.338474831867361,1232.93599888755
0.324173318393056,1232.94599888755
0.30937858542032,1232.95599888755
0.294738087772987,1232.96599888755
0.279537919640837,1232.97599888755
0.264985322345392,1232.98599888755
0.250279922206383,1232.99599888755
0.235954042385654,1233.00599888755
0.22158815300142,1233.01599888755
0.206943059796751,1233.02599888755
0.192745260151589,1233.03599888755
0.178225398003096,1233.04599888755
0.163672682447984,1233.05599888755
0.149126658367392,1233.06599888755
0.134730551138589,1233.07599888755
0.119797482057866,1233.08599888755
0.104471600926463,1233.09599888755
0.0886533613607665,1233.10599888755
0.0727968752297895,1233.11599888755
0.0571803623707871,1233.12599888755
0.0420813904351349,1233.13599888755
0.0277623235690995,1233.14599888755
0.0144582777538518,1233.15599888755
0.000982958518662073,1233.16599888755
-0.0120052924598763,1233.17599888755
-0.0254730311130819,1233.18599888755
-0.0395786808129067,1233.19599888755
-0.0536262237217118,1233.20599888755
-0.0678994723174363,1233.21599888755
-0.0817955442237708,1233.22599888755
-0.0946564244572661,1233.23599888755
-0.105182455358327,1233.24599888755
-0.111057007741599,1233.25599888755
-0.109041413307335,1233.26599888755
-0.0947528636545868,1233.27599888755
-0.0658787955674846,1233.28599888755
-0.0227225370886041,1233.29599888755
0.0317583667933914,1233.30599888755
0.0937620561494977,1233.31599888755
0.159245976662446,1233.32599888755
0.223746758323587,1233.33599888755
0.282567781400947,1233.34599888755
0.334081609146641,1233.35599888755
0.375511482771043,1233.36599888755
0.405516602182561,1233.37599888755
0.425193441494774,1233.38599888755
0.435411112154026,1233.39599888755
0.437303780909973,1233.40599888755
0.43324854703835,1233.41599888755
0.424540056127818,1233.42599888755
0.412374013574406,1233.43599888755
0.398000532384228,1233.44599888755
0.382398724585576,1233.45599888755
0.366335987607769,1233.46599888755
0.350408862675236,1233.47599888755
0.33486398619675,1233.48599888755
0.319515531236157,1233.49599888755
0.303452002953632,1233.50599888755
0.287085879459099,1233.51599888755
0.269842720081022,1233.52599888755
0.252782368886033,1233.53599888755
0.235450930211468,1233.54599888755
0.218620298495623,1233.55599888755
0.202995321944176,1233.56599888755
0.189333621174894,1233.57599888755
0.177976768797329,1233.58599888755
0.168905143621424,1233.59599888755
0.162219060079059,1233.60599888755
0.157483407024998,1233.61599888755
0.153771040698162,1233.62599888755
0.151641533896214,1233.63599888755
0.149844066304897,1233.64599888755
0.147840901522593,1233.65599888755
0.144585811249809,1233.66599888755
0.140331114901085,1233.67599888755
0.134330622542261,1233.68599888755
0.127125992619924,1233.69599888755
0.118441979142041,1233.70599888755
0.108443990557842,1233.71599888755
0.0971387182068051,1233.72599888755
0.0848660519301165,1233.73599888755
0.0715800932910841,1233.74599888755
0.058565088969664,1233.75599888755
0.0449288919726961,1233.76599888755
0.0312371321526194,1233.77599888755
0.0171109941877081,1233.78599888755
0.00261104835408688,1233.79599888755
-0.0118179613794723,1233.80599888755
-0.0261498881646582,1233.81599888755
-0.0400916095426556,1233.82599888755
-0.0538983277210238,1233.83599888755
-0.0671167514488265,1233.84599888755
-0.0800474514522581,1233.85599888755
-0.0925385782029068,1233.86599888755
-0.104899625833114,1233.87599888755
-0.117447739294541,1233.88599888755
-0.13013927318578,1233.89599888755
-0.143084724876344,1233.90599888755
-0.155965281544418,1233.91599888755
-0.169044072816455,1233.92599888755
-0.182499476875551,1233.93599888755
-0.195541243079494,1233.94599888755
-0.209057531806148,1233.95599888755
-0.221700234926865,1233.96599888755
-0.234628565924153,1233.97599888755
-0.247702515421911,1233.98599888755
-0.261133018064513,1233.99599888755
-0.274314181953359,1234.00599888755
-0.287855352379662,1234.01599888755
-0.30157927986567,1234.02599888755
-0.314721370922332,1234.03599888755
-0.327884512514773,1234.04599888755
-0.340714947041682,1234.05599888755
-0.35321187528401,1234.06599888755
-0.365606307577135,1234.07599888755
-0.377957307599183,1234.08599888755
-0.390342829458383,1234.09599888755
-0.40298459194027,1234.10599888755
-0.41549759587307,1234.11599888755
-0.42810850218838,1234.12599888755
-0.439953557109467,1234.13599888755
-0.450537324341768,1234.14599888755
-0.458622792401054,1234.15599888755
-0.46151569707403,1234.16599888755
-0.455857792112186,1234.17599888755
-0.440192998618034,1234.18599888755
-0.414475557125496,1234.19599888755
-0.380274341756787,1234.20599888755
-0.3421593122394,1234.21599888755
-0.302716317320484,1234.22599888755
-0.265839908946721,1234.23599888755
-0.233556680438852,1234.24599888755
-0.207722016565181,1234.25599888755
-0.188852069028091,1234.26599888755
-0.177339483197148,1234.27599888755
-0.171684115699049,1234.28599888755
-0.171559519417126,1234.29599888755
-0.175941363052193,1234.30599888755
-0.184571129290036,1234.31599888755
-0.196199740080147,1234.32599888755
-0.209514944244827,1234.33599888755
-0.223772513368602,1234.34599888755
-0.238371231125528,1234.35599888755
-0.25254921567486,1234.36599888755
-0.265660918954337,1234.37599888755
-0.2785354054119,1234.38599888755
-0.291092136043008,1234.39599888755
-0.30407449361381,1234.40599888755
-0.317205900576914,1234.41599888755
-0.331034248081566,1234.42599888755
-0.34461977153069,1234.43599888755
-0.357009058819489,1234.44599888755
-0.368061893792292,1234.45599888755
-0.377591585875314,1234.46599888755
-0.385644946964631,1234.47599888755
-0.391264560004793,1234.48599888755
-0.395195780949715,1234.49599888755
-0.397531028077648,1234.50599888755
-0.3981398530852,1234.51599888755
-0.39797923932367,1234.52599888755
-0.397526944029381,1234.53599888755
-0.397179726202264,1234.54599888755
-0.397413404742184,1234.55599888755
-0.398465484032768,1234.56599888755
-0.400261363883571,1234.57599888755
-0.403223023529898,1234.58599888755
-0.407513003945175,1234.59599888755
-0.413940289278822,1234.60599888755
-0.421933463356654,1234.61599888755
-0.431121115989655,1234.62599888755
-0.440821833974583,1234.63599888755
-0.451016223718707,1234.64599888755
-0.461005528021506,1234.65599888755
-0.470408132497271,1234.66599888755
-0.479478381451751,1234.67599888755
-0.488670475576911,1234.68599888755
-0.497993441363766,1234.69599888755
-0.507401419908696,1234.70599888755
-0.516669203563507,1234.71599888755
-0.525374225821773,1234.72599888755
-0.533456894550167,1234.73599888755
-0.54089304960037,1234.74599888755
-0.548250351940271,1234.75599888755
-0.555985105006317,1234.76599888755
-0.563101809476063,1234.77599888755
-0.570429417227966,1234.78599888755
-0.577826255760284,1234.79599888755
-0.584995134417573,1234.80599888755
-0.591891061738363,1234.81599888755
-0.598867234341232,1234.82599888755
-0.606121834335698,1234.83599888755
-0.613218176586441,1234.84599888755
-0.620371595044976,1234.85599888755
-0.627559184963777,1234.86599888755
-0.634310087918332,1234.87599888755
-0.641269838320506,1234.88599888755
-0.648195817025226,1234.89599888755
-0.655357048967299,1234.90599888755
-0.662434575408236,1234.91599888755
-0.669346859724026,1234.92599888755
-0.675996518888804,1234.93599888755
-0.682945657527114,1234.94599888755
-0.690048832301119,1234.95599888755
-0.697094760289793,1234.96599888755
-0.704347203907087,1234.97599888755
-0.710917799510167,1234.98599888755
-0.715197154841097,1234.99599888755
-0.715656343850834,1235.00599888755
-0.709299260680496,1235.01599888755
-0.694855072437439,1235.02599888755
-0.672343031369102,1235.03599888755
-0.643103866194166,1235.04599888755
-0.60962938629625,1235.05599888755
-0.575594835300101,1235.06599888755
-0.543667510972455,1235.07599888755
-0.517060205503088,1235.08599888755
-0.495915879987959,1235.09599888755
-0.480707975636121,1235.10599888755
-0.471547968948218,1235.11599888755
-0.46773892956907,1235.12599888755
-0.468858407984357,1235.13599888755
-0.47363994153124,1235.14599888755
-0.481726951072155,1235.15599888755
-0.491636469317263,1235.16599888755
-0.502617854877884,1235.17599888755
-0.514143727494489,1235.18599888755
-0.525718967444928,1235.19599888755
-0.536885767209017,1235.20599888755
-0.547409106992857,1235.21599888755
-0.557961846213694,1235.22599888755
-0.568149479990693,1235.23599888755
-0.578082811604806,1235.24599888755
-0.588124903231041,1235.25599888755
-0.597496036065811,1235.26599888755
-0.605614240045199,1235.27599888755
-0.612221285125423,1235.28599888755
-0.616790163122971,1235.29599888755
-0.619438374554881,1235.30599888755
-0.620483977027023,1235.31599888755
-0.619909695975148,1235.32599888755
-0.618255484330103,1235.33599888755
-0.615449387207493,1235.34599888755
-0.611334199147393,1235.35599888755
-0.606854722098046,1235.36599888755
-0.60220209879177,1235.37599888755
-0.598971791331732,1235.38599888755
-0.596388293592161,1235.39599888755
-0.595013590229561,1235.40599888755
-0.5950457125971,1235.41599888755
-0.596243410314049,1235.42599888755
-0.599093677944126,1235.43599888755
-0.603238381852624,1235.44599888755
-0.608305774494792,1235.45599888755
-0.614053282463395,1235.46599888755
-0.620456243798501,1235.47599888755
-0.626767010321596,1235.48599888755
-0.633099888819315,1235.49599888755
-0.639208805159306,1235.50599888755
-0.645085470612735,1235.51599888755
-0.650359991742706,1235.52599888755
-0.655000993782046,1235.53599888755
-0.659782813349068,1235.54599888755
-0.664117195550919,1235.55599888755
-0.668376180295958,1235.56599888755
-0.672302640772261,1235.57599888755
-0.676259789892235,1235.58599888755
-0.679948299011497,1235.59599888755
-0.683769609544652,1235.60599888755
-0.687923723702677,1235.61599888755
-0.692208873236381,1235.62599888755
-0.696624149527902,1235.63599888755
-0.700777405233638,1235.64599888755
-0.704982238070897,1235.65599888755
-0.709298261213084,1235.66599888755
-0.713582703660289,1235.67599888755
-0.71803268406401,1235.68599888755
-0.721916583275535,1235.69599888755
-0.725415767953329,1235.70599888755
-0.729116113139711,1235.71599888755
-0.732508827768375,1235.72599888755
-0.736146356604471,1235.73599888755
-0.739942680591763,1235.74599888755
-0.743895556617646,1235.75599888755
-0.747714835692374,1235.76599888755
-0.751920238378411,1235.77599888755
-0.755951712560007,1235.78599888755
-0.760061282085682,1235.79599888755
-0.764248254463292,1235.80599888755
-0.767974132822614,1235.81599888755
-0.770297181083996,1235.82599888755
-0.768470175418729,1235.83599888755
-0.759528149742064,1235.84599888755
-0.741860112475969,1235.85599888755
-0.714718443347838,1235.86599888755
-0.680350600916003,1235.87599888755
-0.64084156525499,1235.88599888755
-0.600231545001547,1235.89599888755
-0.561366174194707,1235.90599888755
-0.526268663394718,1235.91599888755
-0.496469092950891,1235.92599888755
-0.472504905519635,1235.93599888755
-0.454626673642958,1235.94599888755
-0.442424096360907,1235.95599888755
-0.434874044418219,1235.96599888755
-0.431566183304873,1235.97599888755
-0.431822334915316,1235.98599888755
-0.433936756130487,1235.99599888755
-0.438363133916232,1236.00599888755
-0.443992785606045,1236.01599888755
-0.449826713651301,1236.02599888755
-0.455503616859302,1236.03599888755
-0.460882169954584,1236.04599888755
-0.465600547713028,1236.05599888755
-0.46958166946284,1236.06599888755
-0.473608862514641,1236.07599888755
-0.477417279197577,1236.08599888755
-0.481775892653974,1236.09599888755
-0.486122118328051,1236.10599888755
-0.490966682271388,1236.11599888755
-0.494882555380918,1236.12599888755
-0.498110919024496,1236.13599888755
-0.500169703217542,1236.14599888755
-0.500249522645569,1236.15599888755
-0.498816158350869,1236.16599888755
-0.496130710674112,1236.17599888755
-0.492527458413788,1236.18599888755
-0.488004118828923,1236.19599888755
-0.483578514325009,1236.20599888755
-0.478363146489376,1236.21599888755
-0.473065077062136,1236.22599888755
-0.467664849206687,1236.23599888755
-0.462950777125547,1236.24599888755
-0.459015832316619,1236.25599888755
-0.456615302620472,1236.26599888755
-0.455431833767541,1236.27599888755
-0.455481276601172,1236.28599888755
-0.457730996646359,1236.29599888755
-0.460719694168284,1236.30599888755
-0.464765111087769,1236.31599888755
-0.46896570191899,1236.32599888755
-0.473449212029028,1236.33599888755
-0.477598077846497,1236.34599888755
-0.481830284678519,1236.35599888755
-0.486101247027558,1236.36599888755
-0.489634526766662,1236.37599888755
-0.492456944403112,1236.38599888755
-0.494980715709376,1236.39599888755
-0.497808285817337,1236.40599888755
-0.500041840913096,1236.41599888755
-0.503196465373438,1236.42599888755
-0.505799442422826,1236.43599888755
-0.508951713442718,1236.44599888755
-0.511988115712582,1236.45599888755
-0.515557094955893,1236.46599888755
-0.519248872451445,1236.47599888755
-0.523056100509089,1236.48599888755
-0.52705733028059,1236.49599888755
-0.530157704118942,1236.50599888755
-0.533062573392577,1236.51599888755
-0.53575685687304,1236.52599888755
-0.538195987826095,1236.53599888755
-0.540776765256353,1236.54599888755
-0.544047546148061,1236.55599888755
-0.547754612722556,1236.56599888755
-0.551374251977089,1236.57599888755
-0.554428554816438,1236.58599888755
-0.556961670820378,1236.59599888755
-0.559369077920488,1236.60599888755
-0.561806384415775,1236.61599888755
-0.564562045196452,1236.62599888755
-0.568098257286889,1236.63599888755
-0.571726312317126,1236.64599888755
-0.574483436182037,1236.65599888755
-0.573365027591197,1236.66599888755
-0.565163240422552,1236.67599888755
-0.547255065154575,1236.68599888755
-0.519208442791025,1236.69599888755
-0.481697702311292,1236.70599888755
-0.437464636490743,1236.71599888755
-0.389178041804816,1236.72599888755
-0.340192633878378,1236.73599888755
-0.293189485790974,1236.74599888755
-0.249797314166285,1236.75599888755
-0.211295765365021,1236.76599888755
-0.178611051508372,1236.77599888755
-0.15263330059734,1236.78599888755
-0.132990696605774,1236.79599888755
-0.119109871574524,1236.80599888755
-0.110500840188563,1236.81599888755
-0.105826615788889,1236.82599888755
-0.104666972397891,1236.83599888755
-0.105518340409177,1236.84599888755
-0.107897522589845,1236.85599888755
-0.110896845751492,1236.86599888755
-0.113477359222759,1236.87599888755
-0.115314230468905,1236.88599888755
-0.116440022424048,1236.89599888755
-0.11743124070529,1236.90599888755
-0.119399626416727,1236.91599888755
-0.121842574301443,1236.92599888755
-0.12483079080182,1236.93599888755
-0.127490226884419,1236.94599888755
-0.130533167149166,1236.95599888755
-0.132711788065687,1236.96599888755
-0.134082110543311,1236.97599888755
-0.134930813465105,1236.98599888755
-0.133896144079751,1236.99599888755
-0.131388214899869,1237.00599888755
-0.127243746146911,1237.01599888755
-0.121203878242447,1237.02599888755
-0.113728764625693,1237.03599888755
-0.105440698862822,1237.04599888755
-0.0970622920855568,1237.05599888755
-0.0892900184794958,1237.06599888755
-0.0825518327487563,1237.07599888755
-0.0770491648726322,1237.08599888755
-0.0728135253358815,1237.09599888755
-0.0699707844667616,1237.10599888755
-0.068599722981624,1237.11599888755
-0.0687946330739598,1237.12599888755
-0.0702069755177877,1237.13599888755
-0.072861718433853,1237.14599888755
-0.0762105380043644,1237.15599888755
-0.0805105115149265,1237.16599888755
-0.0846774930766599,1237.17599888755
-0.0887536118728927,1237.18599888755
-0.0930126766335227,1237.19599888755
-0.0969653457626822,1237.20599888755
-0.100922526180906,1237.21599888755
-0.104098844737635,1237.22599888755
-0.107237350169493,1237.23599888755
-0.110692629573473,1237.24599888755
-0.114421958974707,1237.25599888755
-0.118623510243685,1237.26599888755
-0.122894017223756,1237.27599888755
-0.127432512623069,1237.28599888755
-0.132330402135839,1237.29599888755
-0.137330427558396,1237.30599888755
-0.142238759293325,1237.31599888755
-0.147471382411802,1237.32599888755
-0.152957343892033,1237.33599888755
-0.157910907551603,1237.34599888755
-0.162496657925898,1237.35599888755
-0.167162602711717,1237.36599888755
-0.17150511374075,1237.37599888755
-0.175739234688106,1237.38599888755
-0.179934368061406,1237.39599888755
-0.184414459730731,1237.40599888755
-0.188770687237721,1237.41599888755
-0.19318454655564,1237.42599888755
-0.197742264585284,1237.43599888755
-0.201580741865577,1237.44599888755
-0.203411459921888,1237.45599888755
-0.200767736993366,1237.46599888755
-0.190450941434491,1237.47599888755
-0.169875106280838,1237.48599888755
-0.138545563935043,1237.49599888755
-0.09668800012058,1237.50599888755
-0.0468439589284678,1237.51599888755
0.00751342172251927,1237.52599888755
0.0632720966845811,1237.53599888755
0.116597515398846,1237.54599888755
0.165549893529567,1237.55599888755
0.20744017914134,1237.56599888755
0.241523813497164,1237.57599888755
0.266888515291845,1237.58599888755
0.285182317591431,1237.59599888755
0.296816307421182,1237.60599888755
0.302909265612465,1237.61599888755
0.304390612654526,1237.62599888755
0.301878567146515,1237.63599888755
0.297363871564975,1237.64599888755
0.291127752934352,1237.65599888755
0.284405728515481,1237.66599888755
0.277470093837788,1237.67599888755
0.269760060784016,1237.68599888755
0.261232096873989,1237.69599888755
0.25186585857401,1237.70599888755
0.241644557396862,1237.71599888755
0.230927280145053,1237.72599888755
0.221172966820755,1237.73599888755
0.212422330682007,1237.74599888755
0.20551905771933,1237.75599888755
0.201534291419491,1237.76599888755
0.199761538694617,1237.77599888755
0.200947489345994,1237.78599888755
0.205081281442684,1237.79599888755
0.211239919762967,1237.80599888755
0.218844498788471,1237.81599888755
0.226950273706065,1237.82599888755
0.235350676971667,1237.83599888755
0.242908731669845,1237.84599888755
0.249572689563574,1237.85599888755
0.25518769914396,1237.86599888755
0.258105953359422,1237.87599888755
0.259053472020362,1237.88599888755
0.257731408828445,1237.89599888755
0.255128076680135,1237.90599888755
0.250956209605959,1237.91599888755
0.246103299525304,1237.92599888755
0.241159305673481,1237.93599888755
0.235593400272716,1237.94599888755
0.229467819515538,1237.95599888755
0.222930474700795,1237.96599888755
0.216106590573744,1237.97599888755
0.208880762948127,1237.98599888755
0.201472165191831,1237.99599888755
0.193979694466252,1238.00599888755
0.186494961152591,1238.01599888755
0.178999615625216,1238.02599888755
0.171540169345588,1238.03599888755
0.164351749683179,1238.04599888755
0.157028491128318,1238.05599888755
0.149888438397319,1238.06599888755
0.142829883705603,1238.07599888755
0.135959143382891,1238.08599888755
0.12905852136416,1238.09599888755
0.1222848155697,1238.10599888755
0.115288172297047,1238.11599888755
0.108273648176078,1238.12599888755
0.101402741994526,1238.13599888755
0.0944010431511236,1238.14599888755
0.0868606583072524,1238.15599888755
0.0790087312050183,1238.16599888755
0.0713729256899995,1238.17599888755
0.0634071372819389,1238.18599888755
0.0550912617388498,1238.19599888755
0.0471255121753499,1238.20599888755
0.0387080867486617,1238.21599888755
0.0307263322585024,1238.22599888755
0.022364709772598,1238.23599888755
0.0146982417539894,1238.24599888755
0.0078674541408077,1238.25599888755
0.00399684686316658,1238.26599888755
0.006048436499224,1238.27599888755
0.0172975531051539,1238.28599888755
0.0413132983097415,1238.29599888755
0.0789808366998252,1238.30599888755
0.128858182513758,1238.31599888755
0.189350451579286,1238.32599888755
0.255959930702194,1238.33599888755
0.324393009447492,1238.34599888755
0.391046946149224,1238.35599888755
0.452497464948777,1238.36599888755
0.505528990463911,1238.37599888755
0.548853085199501,1238.38599888755
0.581872057330416,1238.39599888755
0.605136296912958,1238.40599888755
0.619312641869372,1238.41599888755
0.626667296803407,1238.42599888755
0.627672914918073,1238.43599888755
0.624679919970289,1238.44599888755
0.618505382664277,1238.45599888755
0.611118516495771,1238.46599888755
0.602613732940048,1238.47599888755
0.594041595199943,1238.48599888755
0.585123727459476,1238.49599888755
0.575960324185281,1238.50599888755
0.566016799250508,1238.51599888755
0.555544345567717,1238.52599888755
0.545293198697877,1238.53599888755
0.535259931256143,1238.54599888755
0.525473368171558,1238.55599888755
0.516401832925527,1238.56599888755
0.508542292518414,1238.57599888755
0.501961372873336,1238.58599888755
0.497752963693675,1238.59599888755
0.495599826648362,1238.60599888755
0.495849233827417,1238.61599888755
0.498558917179679,1238.62599888755
0.502151646799242,1238.63599888755
0.506845249382365,1238.64599888755
0.511935811113627,1238.65599888755
0.516302333135166,1238.66599888755
0.520358794989517,1238.67599888755
0.523126392832745,1238.68599888755
0.523517053484666,1238.69599888755
0.521845020438836,1238.70599888755
0.517818267633249,1238.71599888755
