PPG,time
-0.0164469219692233,3564.08751935061
-0.0355183440976743,3564.09751935061
-0.0363333429778577,3564.10751935061
-0.0435192823177774,3564.11751935061
-0.0477741237430926,3564.12751935061
-0.0545819957246158,3564.13751935061
-0.0610507762432735,3564.14751935061
-0.068565663570956,3564.15751935061
-0.0761898251612394,3564.16751935061
-0.0845154388042494,3564.17751935061
-0.0928119027101939,3564.18751935061
-0.10113702148728,3564.19751935061
-0.10943130717781,3564.20751935061
-0.117805452132878,3564.21751935061
-0.125929146690516,3564.22751935061
-0.133693211668032,3564.23751935061
-0.141634038855874,3564.24751935061
-0.148958359719865,3564.25751935061
-0.156080102194243,3564.26751935061
-0.163310473744604,3564.27751935061
-0.170362474211918,3564.28751935061
-0.177706577254366,3564.29751935061
-0.185325300232355,3564.30751935061
-0.193173766932272,3564.31751935061
-0.201170331435067,3564.32751935061
-0.209143334007084,3564.33751935061
-0.216838060078693,3564.34751935061
-0.225033315617282,3564.35751935061
-0.233840864011462,3564.36751935061
-0.243320705729031,3564.37751935061
-0.252811549946329,3564.38751935061
-0.261988942636505,3564.39751935061
-0.269567234296298,3564.40751935061
-0.274395778093531,3564.41751935061
-0.27492325713304,3564.42751935061
-0.268725258514276,3564.43751935061
-0.255693038121233,3564.44751935061
-0.231975402384354,3564.45751935061
-0.192650713211397,3564.46751935061
-0.13389769735065,3564.47751935061
-0.0568786669671629,3564.48751935061
0.0296551757958668,3564.49751935061
0.114207237754077,3564.50751935061
0.186799714546516,3564.51751935061
0.242828171626378,3564.52751935061
0.281184331943293,3564.53751935061
0.304910454704995,3564.54751935061
0.317783298448973,3564.55751935061
0.323659423556373,3564.56751935061
0.32424376482505,3564.57751935061
0.321426542740994,3564.58751935061
0.316090685470663,3564.59751935061
0.308549263447,3564.60751935061
0.299632641830149,3564.61751935061
0.289813621290506,3564.62751935061
0.279800909357945,3564.63751935061
0.268644855955093,3564.64751935061
0.256063392212308,3564.65751935061
0.242136211477616,3564.66751935061
0.226310422156492,3564.67751935061
0.209624518720267,3564.68751935061
0.191952190120119,3564.69751935061
0.173871745098387,3564.70751935061
0.156755983151446,3564.71751935061
0.140651246959566,3564.72751935061
0.126195812455459,3564.73751935061
0.113526736969129,3564.74751935061
0.102843656190581,3564.75751935061
0.093719573033912,3564.76751935061
0.0860901989133881,3564.77751935061
0.0790464867339238,3564.78751935061
0.0725142288734726,3564.79751935061
0.066228700403539,3564.80751935061
0.0591935255658422,3564.81751935061
0.0524400667626346,3564.82751935061
0.0453762947264761,3564.83751935061
0.0377589390346081,3564.84751935061
0.0298246589055556,3564.85751935061
0.0214632006652749,3564.86751935061
0.0126857580048167,3564.87751935061
0.00341500808710881,3564.88751935061
-0.00616696541518093,3564.89751935061
-0.0163342810451171,3564.90751935061
-0.0272479168227844,3564.91751935061
-0.038414877291042,3564.92751935061
-0.0495144915293457,3564.93751935061
-0.0605828205013319,3564.94751935061
-0.071825380615345,3564.95751935061
-0.0831187407814942,3564.96751935061
-0.093876314511572,3564.97751935061
-0.104311888991247,3564.98751935061
-0.114597412849516,3564.99751935061
-0.124484630524509,3565.00751935061
-0.134881953876232,3565.01751935061
-0.144792227287892,3565.02751935061
-0.154835932959829,3565.03751935061
-0.165291572530853,3565.04751935061
-0.175541824856191,3565.05751935061
-0.18548724609055,3565.06751935061
-0.195461623919876,3565.07751935061
-0.205372649181468,3565.08751935061
-0.215559313441946,3565.09751935061
-0.225026281006874,3565.10751935061
-0.234007315335319,3565.11751935061
-0.241814932598566,3565.12751935061
-0.246797571706841,3565.13751935061
-0.247921699861977,3565.14751935061
-0.243361230852543,3565.15751935061
-0.232314621990943,3565.16751935061
-0.212743808888832,3565.17751935061
-0.180857144465983,3565.18751935061
-0.129713038071931,3565.19751935061
-0.058972255201443,3565.20751935061
0.0255806383678687,3565.21751935061
0.112075128106548,3565.22751935061
0.190330442389657,3565.23751935061
0.253198020044863,3565.24751935061
0.298219880879409,3565.25751935061
0.327256517709285,3565.26751935061
0.344351639154312,3565.27751935061
0.353413114997146,3565.28751935061
0.357380948252583,3565.29751935061
0.358321571339114,3565.30751935061
0.357126177673329,3565.31751935061
0.354497663489367,3565.32751935061
0.350680681324821,3565.33751935061
0.34649842817973,3565.34751935061
0.341412767864978,3565.35751935061
0.335120427844531,3565.36751935061
0.327255136758042,3565.37751935061
0.316968714280057,3565.38751935061
0.304250865382496,3565.39751935061
0.28889370822976,3565.40751935061
0.27197909977808,3565.41751935061
0.254277872828622,3565.42751935061
0.236445734270573,3565.43751935061
0.219797769113936,3565.44751935061
0.204458681656574,3565.45751935061
0.190295271837942,3565.46751935061
0.177529545968851,3565.47751935061
0.165842875734258,3565.48751935061
0.155593645356354,3565.49751935061
0.146079636364332,3565.50751935061
0.138423349524575,3565.51751935061
0.130996495721774,3565.52751935061
0.124233165566669,3565.53751935061
0.117438525519707,3565.54751935061
0.110008195749274,3565.55751935061
0.102718351075783,3565.56751935061
0.0943371930787313,3565.57751935061
0.0861335283682919,3565.58751935061
0.0775910179535505,3565.59751935061
0.0684733315217937,3565.60751935061
0.0587260129380539,3565.61751935061
0.0483257296331641,3565.62751935061
0.0376342735185247,3565.63751935061
0.0261784455675331,3565.64751935061
0.0148669399330181,3565.65751935061
0.00341776903519336,3565.66751935061
-0.00790692707745559,3565.67751935061
-0.0191622274946095,3565.68751935061
-0.0310483126266403,3565.69751935061
-0.0426374077250545,3565.70751935061
-0.0543696919322227,3565.71751935061
-0.0660046644904698,3565.72751935061
-0.0773234439203744,3565.73751935061
-0.0888000073872201,3565.74751935061
-0.0999149930314534,3565.75751935061
-0.110719422084518,3565.76751935061
-0.121200583266548,3565.77751935061
-0.130769224135439,3565.78751935061
-0.140520222582896,3565.79751935061
-0.150302932638275,3565.80751935061
-0.160271462442245,3565.81751935061
-0.169762444781761,3565.82751935061
-0.178960736609567,3565.83751935061
-0.188354887714002,3565.84751935061
-0.197638055897389,3565.85751935061
-0.206426796826383,3565.86751935061
-0.214589125826932,3565.87751935061
-0.221997752537823,3565.88751935061
-0.227703424060159,3565.89751935061
-0.23005636914054,3565.90751935061
-0.226833952175912,3565.91751935061
-0.217489617345031,3565.92751935061
-0.197663353943769,3565.93751935061
-0.161292515573135,3565.94751935061
-0.101058320071678,3565.95751935061
-0.0186051132060232,3565.96751935061
0.0758416818857684,3565.97751935061
0.168658876801936,3565.98751935061
0.248950711590355,3565.99751935061
0.310569058053525,3566.00751935061
0.352751913739952,3566.01751935061
0.379619477395064,3566.02751935061
0.395273734210961,3566.03751935061
0.403491202857949,3566.04751935061
0.408274052700893,3566.05751935061
0.410985181842306,3566.06751935061
0.412896476276294,3566.07751935061
0.413324646286507,3566.08751935061
0.412452242958741,3566.09751935061
0.41110776477987,3566.10751935061
0.408907161831289,3566.11751935061
0.405469000874335,3566.12751935061
0.4002492735579,3566.13751935061
0.391804159466594,3566.14751935061
0.38021285620912,3566.15751935061
0.365615251426416,3566.16751935061
0.348511726750857,3566.17751935061
0.329784770566763,3566.18751935061
0.311018230373264,3566.19751935061
0.293359791489687,3566.20751935061
0.276765575728853,3566.21751935061
0.26290924442552,3566.22751935061
0.250811503343242,3566.23751935061
0.240509653302401,3566.24751935061
0.232349911369365,3566.25751935061
0.226114754594483,3566.26751935061
0.221947237455788,3566.27751935061
0.219614094378186,3566.28751935061
0.218128285846632,3566.29751935061
0.217858497319504,3566.30751935061
0.217486189657239,3566.31751935061
0.216280042033657,3566.32751935061
0.21330343196761,3566.33751935061
0.208614496203578,3566.34751935061
0.202062399613618,3566.35751935061
0.194394130699437,3566.36751935061
0.185590367815872,3566.37751935061
0.1760076533638,3566.38751935061
0.166139818159696,3566.39751935061
0.155881917080219,3566.40751935061
0.145129606912407,3566.41751935061
0.134092011696357,3566.42751935061
0.123230814910114,3566.43751935061
0.112190446381654,3566.44751935061
0.101118719040123,3566.45751935061
0.0894854715762042,3566.46751935061
0.0779591562845921,3566.47751935061
0.0657072299153566,3566.48751935061
0.0534889065210798,3566.49751935061
0.0410532026010136,3566.50751935061
0.0288289849159569,3566.51751935061
0.0174599227413789,3566.52751935061
0.00618027085006429,3566.53751935061
-0.00437482939416073,3566.54751935061
-0.0149322832122304,3566.55751935061
-0.0248655629730668,3566.56751935061
-0.0348169354980034,3566.57751935061
-0.0447093934331658,3566.58751935061
-0.0548653322796433,3566.59751935061
-0.0646410987207009,3566.60751935061
-0.0745488438704332,3566.61751935061
-0.0841732944518306,3566.62751935061
-0.0929274796494236,3566.63751935061
-0.101338941960244,3566.64751935061
-0.109408675174241,3566.65751935061
-0.117293758168395,3566.66751935061
-0.124965368322665,3566.67751935061
-0.132715194135514,3566.68751935061
-0.139912922896755,3566.69751935061
-0.146368386273791,3566.70751935061
-0.149660023114806,3566.71751935061
-0.146482370604449,3566.72751935061
-0.128974291402835,3566.73751935061
-0.0871152379840502,3566.74751935061
-0.0181412869100325,3566.75751935061
0.0702388250249065,3566.76751935061
0.162537009066865,3566.77751935061
0.245829234643483,3566.78751935061
0.31095057362193,3566.79751935061
0.356714487974378,3566.80751935061
0.384963799706378,3566.81751935061
0.400838237627537,3566.82751935061
0.408635078731606,3566.83751935061
0.412823317624399,3566.84751935061
0.414747787510413,3566.85751935061
0.415656288562059,3566.86751935061
0.415781361841104,3566.87751935061
0.41503673979648,3566.88751935061
0.414167937769727,3566.89751935061
0.412932480286015,3566.90751935061
0.410823522251152,3566.91751935061
0.40799811430298,3566.92751935061
0.404654845767942,3566.93751935061
0.399897851010485,3566.94751935061
0.393110574299701,3566.95751935061
0.383537756951441,3566.96751935061
0.371950282094903,3566.97751935061
0.358224623195184,3566.98751935061
0.342808982623357,3566.99751935061
0.326953620139468,3567.00751935061
0.31181768858496,3567.01751935061
0.298673336063506,3567.02751935061
0.288547466782738,3567.03751935061
0.281648943830435,3567.04751935061
0.278157341781504,3567.05751935061
0.276995843460698,3567.06751935061
0.277877145849684,3567.07751935061
0.279988937452178,3567.08751935061
0.28319341760034,3567.09751935061
0.286436621493526,3567.10751935061
0.288749461898038,3567.11751935061
0.289662132255413,3567.12751935061
0.288745457038964,3567.13751935061
0.28556870366132,3567.14751935061
0.281156575046269,3567.15751935061
0.275120941027481,3567.16751935061
0.267688594262675,3567.17751935061
0.259816584095344,3567.18751935061
0.251095322766468,3567.19751935061
0.24201540162715,3567.20751935061
0.23228930207877,3567.21751935061
0.221908263253858,3567.22751935061
0.210938739473628,3567.23751935061
0.199658451656981,3567.24751935061
0.187926582628404,3567.25751935061
0.17633844043419,3567.26751935061
0.165063888158515,3567.27751935061
0.153438231599811,3567.28751935061
0.141668779208289,3567.29751935061
0.12996363036891,3567.30751935061
0.11765461945538,3567.31751935061
0.105876591075672,3567.32751935061
0.0943976783970146,3567.33751935061
0.0836007692455102,3567.34751935061
0.0730542206986007,3567.35751935061
0.0627272680977096,3567.36751935061
0.0532098886983458,3567.37751935061
0.0439737916711267,3567.38751935061
0.0355129588794346,3567.39751935061
0.0272591074356964,3567.40751935061
0.0192259450605489,3567.41751935061
0.0110798235203036,3567.42751935061
0.00326456193195378,3567.43751935061
-0.0049456579968794,3567.44751935061
-0.0134606079955198,3567.45751935061
-0.0219931174262354,3567.46751935061
-0.0308553305463271,3567.47751935061
-0.039460858143668,3567.48751935061
-0.0479106945550057,3567.49751935061
-0.056206596409923,3567.50751935061
-0.0640792432986987,3567.51751935061
-0.0719940341107858,3567.52751935061
-0.0802446708345351,3567.53751935061
-0.087964575299171,3567.54751935061
-0.0948641987633669,3567.55751935061
-0.100065295865822,3567.56751935061
-0.102145884189591,3567.57751935061
-0.0949888011859768,3567.58751935061
-0.0709458849432649,3567.59751935061
-0.0258916044553124,3567.60751935061
0.0363964386735325,3567.61751935061
0.105101915985743,3567.62751935061
0.170668946501687,3567.63751935061
0.224719106909956,3567.64751935061
0.265312977273734,3567.65751935061
0.292856453198473,3567.66751935061
0.310117229015144,3567.67751935061
0.320152092616794,3567.68751935061
0.325359117645164,3567.69751935061
0.327456627870341,3567.70751935061
0.327503983396179,3567.71751935061
0.326108261422024,3567.72751935061
0.323017794980727,3567.73751935061
0.318772574745296,3567.74751935061
0.313387280282912,3567.75751935061
0.307482388509777,3567.76751935061
0.301223744956083,3567.77751935061
0.294823504129235,3567.78751935061
0.288309468960981,3567.79751935061
0.281103299809125,3567.80751935061
0.272467732833265,3567.81751935061
0.262251627101962,3567.82751935061
0.24937277527717,3567.83751935061
0.234501028315322,3567.84751935061
0.218298959782609,3567.85751935061
0.201661547126825,3567.86751935061
0.185673169861878,3567.87751935061
0.170930373423348,3567.88751935061
0.158716162438622,3567.89751935061
0.149311731058653,3567.90751935061
0.143470762375738,3567.91751935061
0.140397321136754,3567.92751935061
0.139941057796259,3567.93751935061
0.141021849461322,3567.94751935061
0.142914328430087,3567.95751935061
0.145799846690805,3567.96751935061
0.148327747163789,3567.97751935061
0.149745623040216,3567.98751935061
0.150306109762097,3567.99751935061
0.149067217931807,3568.00751935061
0.146725066324011,3568.01751935061
0.143458840533686,3568.02751935061
0.139660028021872,3568.03751935061
0.135609178799413,3568.04751935061
0.131238030079923,3568.05751935061
0.126362114736488,3568.06751935061
0.121104965854027,3568.07751935061
0.114924350659673,3568.08751935061
0.108839139049405,3568.09751935061
0.102506334798656,3568.10751935061
0.0954712438373432,3568.11751935061
0.0883611449690165,3568.12751935061
0.0816780208300809,3568.13751935061
0.0751358820799946,3568.14751935061
0.0680671554605067,3568.15751935061
0.0612625182525766,3568.16751935061
0.0539461305673662,3568.17751935061
0.0463261178881587,3568.18751935061
0.0383184632261836,3568.19751935061
0.0300689187386637,3568.20751935061
0.0215137099774012,3568.21751935061
0.0131896356433685,3568.22751935061
0.00454485143866249,3568.23751935061
-0.00385519009873157,3568.24751935061
-0.0122614115302171,3568.25751935061
-0.0208716952088113,3568.26751935061
-0.0295902822643965,3568.27751935061
-0.0377523902217611,3568.28751935061
-0.0454852655697784,3568.29751935061
-0.0528673079930206,3568.30751935061
-0.0600111523816398,3568.31751935061
-0.0662177294741,3568.32751935061
-0.0724368027947089,3568.33751935061
-0.0784590601004616,3568.34751935061
-0.0850749058629508,3568.35751935061
-0.0917120285061895,3568.36751935061
-0.0991861141876717,3568.37751935061
-0.106844590247681,3568.38751935061
-0.114197684737692,3568.39751935061
-0.121990423427185,3568.40751935061
-0.129611611723231,3568.41751935061
-0.137432651976243,3568.42751935061
-0.144170251775609,3568.43751935061
-0.148279398117677,3568.44751935061
-0.145465274255056,3568.45751935061
-0.130963910322983,3568.46751935061
-0.103319255693048,3568.47751935061
-0.063859579190164,3568.48751935061
-0.0184470266292286,3568.49751935061
0.0271258234876478,3568.50751935061
0.068159797860399,3568.51751935061
0.101843583504415,3568.52751935061
0.126815333725807,3568.53751935061
0.144279844840078,3568.54751935061
0.155390718769925,3568.55751935061
0.161057563441306,3568.56751935061
0.163176498941941,3568.57751935061
0.162303435586727,3568.58751935061
0.159359088256621,3568.59751935061
0.154863643948258,3568.60751935061
0.149762937024166,3568.61751935061
0.144068842944843,3568.62751935061
0.137896964438246,3568.63751935061
0.131112560179661,3568.64751935061
0.124274904578217,3568.65751935061
0.116693369451832,3568.66751935061
0.108563977528482,3568.67751935061
0.0987842381943159,3568.68751935061
0.0878608068713389,3568.69751935061
0.0754111814495809,3568.70751935061
0.061761063318822,3568.71751935061
0.0487897636846888,3568.72751935061
0.0364181170700559,3568.73751935061
0.0261485338550054,3568.74751935061
0.0184635096034688,3568.75751935061
0.0135884064856784,3568.76751935061
0.0117154445493105,3568.77751935061
0.0126532020867605,3568.78751935061
0.015513280880151,3568.79751935061
0.0192121235812109,3568.80751935061
0.0227279038737528,3568.81751935061
0.0260617495712973,3568.82751935061
0.028213826610681,3568.83751935061
0.028524318137502,3568.84751935061
0.0274932569186085,3568.85751935061
0.0248513164792174,3568.86751935061
0.0211727990771688,3568.87751935061
0.0163669252970743,3568.88751935061
0.0107666963776713,3568.89751935061
0.00478160999668497,3568.90751935061
-0.00124158265190412,3568.91751935061
-0.0077521857620564,3568.92751935061
-0.0143782942806438,3568.93751935061
-0.0212430078005678,3568.94751935061
-0.0279991794856582,3568.95751935061
-0.0346356438505026,3568.96751935061
-0.0406476014038487,3568.97751935061
-0.0467631763929366,3568.98751935061
-0.0529729225427839,3568.99751935061
-0.0592878464228168,3569.00751935061
-0.0658990707979795,3569.01751935061
-0.0726105995712107,3569.02751935061
-0.0799214605554019,3569.03751935061
-0.0871089426319477,3569.04751935061
-0.0944777426773995,3569.05751935061
-0.101508231422364,3569.06751935061
-0.108502262708653,3569.07751935061
-0.115282527969908,3569.08751935061
-0.121473344328657,3569.09751935061
-0.127633614208389,3569.10751935061
-0.133777624562175,3569.11751935061
-0.140883998470819,3569.12751935061
-0.148641399573324,3569.13751935061
-0.156624457709025,3569.14751935061
-0.164429150110282,3569.15751935061
-0.17203537919856,3569.16751935061
-0.179304406382617,3569.17751935061
-0.186171133359204,3569.18751935061
-0.192718822633997,3569.19751935061
-0.199417362809789,3569.20751935061
-0.205436664378628,3569.21751935061
-0.20948245721117,3569.22751935061
-0.207944964799089,3569.23751935061
-0.197509148667293,3569.24751935061
-0.175552037263752,3569.25751935061
-0.14340152259602,3569.26751935061
-0.104656110640996,3569.27751935061
-0.0635846391332555,3569.28751935061
-0.0254280866337721,3569.29751935061
0.00780315976005884,3569.30751935061
0.0340703063215235,3569.31751935061
0.0535388474309923,3569.32751935061
0.0664811526344193,3569.33751935061
0.0739260883627464,3569.34751935061
0.0777238924055795,3569.35751935061
0.0779200965114668,3569.36751935061
0.0763267602559489,3569.37751935061
0.0741643415445289,3569.38751935061
0.0713422731809767,3569.39751935061
0.0682736551049192,3569.40751935061
0.0652947487684942,3569.41751935061
0.0620561182443753,3569.42751935061
0.0587910075176268,3569.43751935061
0.0552086948993621,3569.44751935061
0.0510895883348415,3569.45751935061
0.0464429002877234,3569.46751935061
0.040403052038031,3569.47751935061
0.0331361319275016,3569.48751935061
0.0245745581478925,3569.49751935061
0.0150778254618383,3569.50751935061
0.00473035325910684,3569.51751935061
-0.0055084728765247,3569.52751935061
-0.0143674627546509,3569.53751935061
-0.021333597327852,3569.54751935061
-0.0257590090971415,3569.55751935061
-0.0272386336819715,3569.56751935061
-0.0272878421868107,3569.57751935061
-0.0255159485728355,3569.58751935061
-0.0230587336429507,3569.59751935061
-0.0206516448376407,3569.60751935061
-0.0183165503904478,3569.61751935061
-0.0168798442208433,3569.62751935061
-0.0163176614813119,3569.63751935061
-0.0166611562538287,3569.64751935061
-0.01827413357598,3569.65751935061
-0.0210567767086388,3569.66751935061
-0.0245038445480117,3569.67751935061
-0.0287089174756123,3569.68751935061
-0.0337890168589103,3569.69751935061
-0.0386939598814518,3569.70751935061
-0.0443882882777202,3569.71751935061
-0.0501679880975274,3569.72751935061
-0.0560124377189478,3569.73751935061
-0.0617949492997278,3569.74751935061
-0.0675591252528347,3569.75751935061
-0.0735060907987642,3569.76751935061
-0.0800446922714444,3569.77751935061
-0.0864886238390517,3569.78751935061
-0.0929518321640958,3569.79751935061
-0.0990117485983314,3569.80751935061
-0.105237524324935,3569.81751935061
-0.11130749582079,3569.82751935061
-0.117897413796698,3569.83751935061
-0.124585324508055,3569.84751935061
-0.131761421635612,3569.85751935061
-0.138962959642077,3569.86751935061
-0.14603317997089,3569.87751935061
-0.152981027526871,3569.88751935061
-0.159417335640646,3569.89751935061
-0.165786859363136,3569.90751935061
-0.171488543711289,3569.91751935061
-0.177171766670043,3569.92751935061
-0.182870722600516,3569.93751935061
-0.189018909191635,3569.94751935061
-0.195543384044049,3569.95751935061
-0.201959559395466,3569.96751935061
-0.208646622606104,3569.97751935061
-0.214626816247316,3569.98751935061
-0.220751570244501,3569.99751935061
-0.226142467112196,3570.00751935061
-0.231635198530442,3570.01751935061
-0.235590972786434,3570.02751935061
-0.235968225631382,3570.03751935061
-0.228845969265899,3570.04751935061
-0.210742444957871,3570.05751935061
-0.18179492587068,3570.06751935061
-0.145018277537675,3570.07751935061
-0.103918971105959,3570.08751935061
-0.0637867068603333,3570.09751935061
-0.0281253675578255,3570.10751935061
0.00164590949950503,3570.11751935061
0.0247959107825591,3570.12751935061
0.0419214832282609,3570.13751935061
0.0534861164914262,3570.14751935061
0.0603918174710845,3570.15751935061
0.063965797639267,3570.16751935061
0.0650407906932197,3570.17751935061
0.0641578410237831,3570.18751935061
0.0626514125398957,3570.19751935061
0.0601566812437961,3570.20751935061
0.0574553121488761,3570.21751935061
0.0554061606794281,3570.22751935061
0.0530479913082471,3570.23751935061
0.0506059762009707,3570.24751935061
0.0481140142061568,3570.25751935061
0.0450010456737069,3570.26751935061
0.0412872680899561,3570.27751935061
0.0367267553669234,3570.28751935061
0.0306396402484056,3570.29751935061
0.0240223930324992,3570.30751935061
0.015337028400246,3570.31751935061
0.00626763955522583,3570.32751935061
-0.00257611632481083,3570.33751935061
-0.0109243007744994,3570.34751935061
-0.0169521223740379,3570.35751935061
-0.0207001939178735,3570.36751935061
-0.0222380457793648,3570.37751935061
-0.0221054999386424,3570.38751935061
-0.0201969739995043,3570.39751935061
-0.0179281233178177,3570.40751935061
-0.0159551635887226,3570.41751935061
-0.0139931806534556,3570.42751935061
-0.0127676735901548,3570.43751935061
-0.0127609965381897,3570.44751935061
-0.0133878960803233,3570.45751935061
-0.0153729280003691,3570.46751935061
-0.0178157103793558,3570.47751935061
-0.021309862816327,3570.48751935061
-0.025583608475306,3570.49751935061
-0.030039130748046,3570.50751935061
-0.0351054327411007,3570.51751935061
-0.040082437062787,3570.52751935061
-0.0455019100284608,3570.53751935061
-0.0509149375532605,3570.54751935061
-0.0563438276059969,3570.55751935061
-0.0622671946941937,3570.56751935061
-0.0686087862929336,3570.57751935061
-0.0747050274315365,3570.58751935061
-0.0805520762336834,3570.59751935061
-0.0870343213436847,3570.60751935061
-0.0931121623193226,3570.61751935061
-0.0995833806666249,3570.62751935061
-0.105674685185534,3570.63751935061
-0.111896827679594,3570.64751935061
-0.118123405922409,3570.65751935061
-0.124330192258692,3570.66751935061
-0.13059992166174,3570.67751935061
-0.136942295246143,3570.68751935061
-0.142848967607046,3570.69751935061
-0.148386908317636,3570.70751935061
-0.153919788958458,3570.71751935061
-0.159855051623944,3570.72751935061
-0.165789098671697,3570.73751935061
-0.171608675037506,3570.74751935061
-0.177457563632744,3570.75751935061
-0.182469083769662,3570.76751935061
-0.187901129157831,3570.77751935061
-0.193445476998299,3570.78751935061
-0.199226376958377,3570.79751935061
-0.205117740825437,3570.80751935061
-0.211789159103337,3570.81751935061
-0.217822810282158,3570.82751935061
-0.223755231543978,3570.83751935061
-0.22976552619798,3570.84751935061
-0.235510721468276,3570.85751935061
-0.241560468559266,3570.86751935061
-0.247384334296277,3570.87751935061
-0.250922599084866,3570.88751935061
-0.25122961284601,3570.89751935061
-0.243583785285029,3570.90751935061
-0.223538892400982,3570.91751935061
-0.190623474954271,3570.92751935061
-0.147969803455743,3570.93751935061
-0.101340572935198,3570.94751935061
-0.055806218889263,3570.95751935061
-0.0161724285724281,3570.96751935061
0.0166874074732338,3570.97751935061
0.0421077653761789,3570.98751935061
0.0611696318964298,3570.99751935061
0.0749289938908719,3571.00751935061
0.0845164162751761,3571.01751935061
0.0902384967829944,3571.02751935061
0.0934688512121696,3571.03751935061
0.0950303483083806,3571.04751935061
0.0953144819636941,3571.05751935061
0.0954238872403643,3571.06751935061
0.0941323372458128,3571.07751935061
0.0920112135598935,3571.08751935061
0.0888982566177985,3571.09751935061
0.0850378209279035,3571.10751935061
0.081378183245089,3571.11751935061
0.0777961923466238,3571.12751935061
0.073220595657506,3571.13751935061
0.0689776830772571,3571.14751935061
0.0630401761562017,3571.15751935061
0.0560328647249773,3571.16751935061
0.0478301919115936,3571.17751935061
0.0386516302574684,3571.18751935061
0.0296778837043608,3571.19751935061
0.0212692655109455,3571.20751935061
0.0148129568500553,3571.21751935061
0.0109118299089275,3571.22751935061
0.00884194080624094,3571.23751935061
0.0093792441884756,3571.24751935061
0.0117814568199722,3571.25751935061
0.0155724587880195,3571.26751935061
0.0198682762516504,3571.27751935061
0.0235961243913609,3571.28751935061
0.026271314879131,3571.29751935061
0.027954744987527,3571.30751935061
0.0279277664964567,3571.31751935061
0.0268881735319068,3571.32751935061
0.0246060744407303,3571.33751935061
0.0216566141854475,3571.34751935061
0.017887159602434,3571.35751935061
0.0133015211196275,3571.36751935061
0.00804265189869992,3571.37751935061
0.00235582474115002,3571.38751935061
-0.00342458910457382,3571.39751935061
-0.00981196539370271,3571.40751935061
-0.0161581304059738,3571.41751935061
-0.0225383965894549,3571.42751935061
-0.0290089118821049,3571.43751935061
-0.0359953392227053,3571.44751935061
-0.0430921340850326,3571.45751935061
-0.0502420919342666,3571.46751935061
-0.0575452050936978,3571.47751935061
-0.0650095353762519,3571.48751935061
-0.0720938865023621,3571.49751935061
-0.0789595121285769,3571.50751935061
-0.0859861391208216,3571.51751935061
-0.0927296460235908,3571.52751935061
-0.0998512156350276,3571.53751935061
-0.106807073347867,3571.54751935061
-0.114036737143072,3571.55751935061
-0.121443878732284,3571.56751935061
-0.12850340677132,3571.57751935061
-0.135230602209644,3571.58751935061
-0.141277915372152,3571.59751935061
-0.147443296824906,3571.60751935061
-0.154049348952123,3571.61751935061
-0.160562227146589,3571.62751935061
-0.166602201481933,3571.63751935061
-0.172632708943651,3571.64751935061
-0.178327666321052,3571.65751935061
-0.184360961326734,3571.66751935061
-0.190348548177112,3571.67751935061
-0.196082465773188,3571.68751935061
-0.201923052267233,3571.69751935061
-0.208019288385185,3571.70751935061
-0.214362051117248,3571.71751935061
-0.220340827049678,3571.72751935061
-0.226054162816194,3571.73751935061
-0.231887620782702,3571.74751935061
-0.237440243728096,3571.75751935061
-0.24312870496696,3571.76751935061
-0.248892665473833,3571.77751935061
-0.25358086607175,3571.78751935061
-0.255601940404883,3571.79751935061
-0.250111501077102,3571.80751935061
-0.231624082122531,3571.81751935061
-0.196700196785967,3571.82751935061
-0.148043414720125,3571.83751935061
-0.0921092768826231,3571.84751935061
-0.036464585025704,3571.85751935061
0.012332627619801,3571.86751935061
0.0527048818631039,3571.87751935061
0.0835235691538911,3571.88751935061
0.106147510903802,3571.89751935061
0.122443333613293,3571.90751935061
0.133818063188138,3571.91751935061
0.141539557658351,3571.92751935061
0.145950348022612,3571.93751935061
0.147769125115455,3571.94751935061
0.147813421936806,3571.95751935061
0.146303499045191,3571.96751935061
0.144546774488265,3571.97751935061
0.141953081128669,3571.98751935061
0.139386886426569,3571.99751935061
0.136264098897984,3572.00751935061
0.133549693506206,3572.01751935061
0.130692027677316,3572.02751935061
0.127624852502426,3572.03751935061
0.124258139835755,3572.04751935061
0.118700952259472,3572.05751935061
0.111436548455487,3572.06751935061
0.102119440630833,3572.07751935061
0.0915972478330685,3572.08751935061
0.0817293769407674,3572.09751935061
0.0729921064763985,3572.10751935061
0.0659658705076714,3572.11751935061
0.0606158560418591,3572.12751935061
0.0577846108375771,3572.13751935061
0.0575395821184805,3572.14751935061
0.0595802244645742,3572.15751935061
0.0628415002166131,3572.16751935061
0.0668135834883875,3572.17751935061
0.0704382473529345,3572.18751935061
0.0738629848198989,3572.19751935061
0.0758121850265942,3572.20751935061
0.0770672223789047,3572.21751935061
0.0773603053953421,3572.22751935061
0.0764176012588794,3572.23751935061
0.0741687543786036,3572.24751935061
0.070702270145442,3572.25751935061
0.0660724340024126,3572.26751935061
0.0614148397002072,3572.27751935061
0.0561841187906928,3572.28751935061
0.0508218573856619,3572.29751935061
0.0454113698126406,3572.30751935061
0.0392576365440779,3572.31751935061
0.0332887501602894,3572.32751935061
0.0265166557990187,3572.33751935061
0.0195583042594083,3572.34751935061
0.012128798789555,3572.35751935061
0.00481439323571083,3572.36751935061
-0.00235173929220774,3572.37751935061
-0.0102762770108585,3572.38751935061
-0.0184037827596814,3572.39751935061
-0.027278604583473,3572.40751935061
-0.0363683633143129,3572.41751935061
-0.0455968742737059,3572.42751935061
-0.0542380143479882,3572.43751935061
-0.0631139410108196,3572.44751935061
-0.0710196449690905,3572.45751935061
-0.0790343574472848,3572.46751935061
-0.0866991330439518,3572.47751935061
-0.0937731532283172,3572.48751935061
-0.100555097161875,3572.49751935061
-0.107141525772202,3572.50751935061
-0.113919696631165,3572.51751935061
-0.120835134237468,3572.52751935061
-0.127490696693527,3572.53751935061
-0.134287367283065,3572.54751935061
-0.141468623999124,3572.55751935061
-0.147625657139884,3572.56751935061
-0.154014517371698,3572.57751935061
-0.160084943004834,3572.58751935061
-0.16644378534075,3572.59751935061
-0.173067720406956,3572.60751935061
-0.17979225203574,3572.61751935061
-0.186642573116453,3572.62751935061
-0.193619431611418,3572.63751935061
-0.200659880621581,3572.64751935061
-0.207421455227696,3572.65751935061
-0.214020408285399,3572.66751935061
-0.22075331166529,3572.67751935061
-0.227105577357825,3572.68751935061
-0.232677744495158,3572.69751935061
-0.236383146436225,3572.70751935061
-0.234555443323895,3572.71751935061
-0.221156190385789,3572.72751935061
-0.189839024535663,3572.73751935061
-0.140640718434034,3572.74751935061
-0.0790051474059229,3572.75751935061
-0.014613259499004,3572.76751935061
0.044786662857045,3572.77751935061
0.0941312025580398,3572.78751935061
0.131842526309436,3572.79751935061
0.160021062418211,3572.80751935061
0.179432628318115,3572.81751935061
0.193428111443402,3572.82751935061
0.202997508106954,3572.83751935061
0.208607147869407,3572.84751935061
0.211607722548178,3572.85751935061
0.212202192120097,3572.86751935061
0.210837810366692,3572.87751935061
0.208353780484894,3572.88751935061
0.205290738352427,3572.89751935061
0.201935293334932,3572.90751935061
0.198156223330384,3572.91751935061
0.193990588999021,3572.92751935061
0.189722716236569,3572.93751935061
0.184249761059012,3572.94751935061
0.177894740695805,3572.95751935061
0.170393768937398,3572.96751935061
0.160572351934819,3572.97751935061
0.149879728976618,3572.98751935061
0.138403221052919,3572.99751935061
0.126955443666671,3573.00751935061
0.116834604141722,3573.01751935061
0.108181240409278,3573.02751935061
0.10178884776879,3573.03751935061
0.0987480161012632,3573.04751935061
0.0984938308414741,3573.05751935061
0.101239573023482,3573.06751935061
0.105911391024138,3573.07751935061
0.111498884166799,3573.08751935061
0.117846774416899,3573.09751935061
0.123268395147782,3573.10751935061
0.127700395210625,3573.11751935061
0.130898224722007,3573.12751935061
0.132631576087287,3573.13751935061
0.131977613029618,3573.14751935061
0.129597341574115,3573.15751935061
0.125350360395038,3573.16751935061
0.119772056734982,3573.17751935061
0.113720489472476,3573.18751935061
0.107312216022977,3573.19751935061
0.100778692927381,3573.20751935061
0.0937212030004004,3573.21751935061
0.0862317448634611,3573.22751935061
0.078750014329167,3573.23751935061
0.0715636100344896,3573.24751935061
0.0638804384102562,3573.25751935061
0.0558165137393303,3573.26751935061
0.0476880042063141,3573.27751935061
0.0393474793759512,3573.28751935061
0.0303718140799093,3573.29751935061
0.0217658804533456,3573.30751935061
0.0129757901068647,3573.31751935061
0.00448025252612818,3573.32751935061
-0.00411294526282638,3573.33751935061
-0.0132605091962497,3573.34751935061
-0.0226151931856485,3573.35751935061
-0.0316645162917325,3573.36751935061
-0.0402962532431441,3573.37751935061
-0.0485397465580687,3573.38751935061
-0.0562934692184067,3573.39751935061
-0.064002580321138,3573.40751935061
-0.0715370164218685,3573.41751935061
-0.0789576290573434,3573.42751935061
-0.0861570877341884,3573.43751935061
-0.0939753711979651,3573.44751935061
-0.101397827867941,3573.45751935061
-0.108458014187897,3573.46751935061
-0.115965776135557,3573.47751935061
-0.122636307011162,3573.48751935061
-0.129291777740413,3573.49751935061
-0.136119924495059,3573.50751935061
-0.143119122676149,3573.51751935061
-0.149982054845448,3573.52751935061
-0.156740658978829,3573.53751935061
-0.162866113078299,3573.54751935061
-0.168705852542893,3573.55751935061
-0.174649536029557,3573.56751935061
-0.180585421571645,3573.57751935061
-0.186978480530719,3573.58751935061
-0.193596327059128,3573.59751935061
-0.199972593807933,3573.60751935061
-0.204600732806654,3573.61751935061
-0.203949410858092,3573.62751935061
-0.191147579302264,3573.63751935061
-0.158585340021074,3573.64751935061
-0.106120772613445,3573.65751935061
-0.040036131519757,3573.66751935061
0.0288195782953142,3573.67751935061
0.0911937877362518,3573.68751935061
0.142977266982673,3573.69751935061
0.182814765763262,3573.70751935061
0.211888114915724,3573.71751935061
0.2330886956265,3573.72751935061
0.247522149497856,3573.73751935061
0.25731411457005,3573.74751935061
0.263148928558112,3573.75751935061
0.265934586159094,3573.76751935061
0.26574586839954,3573.77751935061
0.263717423026676,3573.78751935061
0.259475928599833,3573.79751935061
0.254251941052608,3573.80751935061
0.248157727946494,3573.81751935061
0.241821108106736,3573.82751935061
0.235047809614084,3573.83751935061
0.227128510468509,3573.84751935061
0.218295489901412,3573.85751935061
0.207273257542133,3573.86751935061
0.19410581635471,3573.87751935061
0.179423601419427,3573.88751935061
0.164009260859202,3573.89751935061
0.149159203856672,3573.90751935061
0.13545996622809,3573.91751935061
0.123815708049492,3573.92751935061
0.115578245084089,3573.93751935061
0.110649650728946,3573.94751935061
0.109075322151894,3573.95751935061
0.111001666749851,3573.96751935061
0.115968561590474,3573.97751935061
0.123469133050347,3573.98751935061
0.131579106680755,3573.99751935061
0.139609698336532,3574.00751935061
0.145794010314391,3574.01751935061
0.150113893967777,3574.02751935061
0.152176047230453,3574.03751935061
0.151915814717576,3574.04751935061
0.14927875337615,3574.05751935061
0.144651595001112,3574.06751935061
0.138697105761849,3574.07751935061
0.131410361776113,3574.08751935061
0.123721028259054,3574.09751935061
0.115409562027566,3574.10751935061
0.10725720832823,3574.11751935061
0.0988731131662017,3574.12751935061
0.0896550067429921,3574.13751935061
0.0811035420303916,3574.14751935061
0.0722187852973391,3574.15751935061
0.062883904083936,3574.16751935061
0.0531905645335507,3574.17751935061
0.0430780111397118,3574.18751935061
0.0331648387511538,3574.19751935061
0.0237946610751009,3574.20751935061
0.014489888131827,3574.21751935061
0.00593989558692773,3574.22751935061
-0.00260876589001217,3574.23751935061
-0.0109447815130705,3574.24751935061
-0.0199039462297781,3574.25751935061
-0.0287429263613909,3574.26751935061
-0.037903235765962,3574.27751935061
-0.0473371568912044,3574.28751935061
-0.0573492279372815,3574.29751935061
-0.0672920651454103,3574.30751935061
-0.0765238533397512,3574.31751935061
-0.0852845952799671,3574.32751935061
-0.0942235305329007,3574.33751935061
-0.102762573513215,3574.34751935061
-0.111339613225767,3574.35751935061
-0.119372842137192,3574.36751935061
-0.127010680045566,3574.37751935061
-0.134192018280476,3574.38751935061
-0.141521110166218,3574.39751935061
-0.148306669520666,3574.40751935061
-0.154942668471204,3574.41751935061
-0.161561675903605,3574.42751935061
-0.168162087604516,3574.43751935061
-0.175510986549946,3574.44751935061
-0.182920931782553,3574.45751935061
-0.190155251266246,3574.46751935061
-0.197895668494992,3574.47751935061
-0.205428704092085,3574.48751935061
-0.212247422753947,3574.49751935061
-0.217641869210278,3574.50751935061
-0.219718598878393,3574.51751935061
-0.216513417726314,3574.52751935061
-0.198554728353644,3574.53751935061
-0.157679454126795,3574.54751935061
-0.0940712845978783,3574.55751935061
-0.0166751470473486,3574.56751935061
0.0621160848907933,3574.57751935061
0.131806627045051,3574.58751935061
0.187716854012593,3574.59751935061
0.229180881929706,3574.60751935061
0.258386767155584,3574.61751935061
0.277956367380552,3574.62751935061
0.29126346363851,3574.63751935061
0.299847820276315,3574.64751935061
0.305497370096415,3574.65751935061
0.308422178329133,3574.66751935061
0.309002835374799,3574.67751935061
0.308070819261532,3574.68751935061
0.305357921261894,3574.69751935061
0.301800166824426,3574.70751935061
0.297180826423192,3574.71751935061
0.291796773287647,3574.72751935061
0.286057542769702,3574.73751935061
0.280115260733536,3574.74751935061
0.272960321829516,3574.75751935061
0.2641246644203,3574.76751935061
0.252923266118842,3574.77751935061
0.239381300111784,3574.78751935061
0.223839877672058,3574.79751935061
0.208194314823985,3574.80751935061
0.193146034959527,3574.81751935061
0.180173002146108,3574.82751935061
0.169408262147951,3574.83751935061
0.162113325244803,3574.84751935061
0.158503964942395,3574.85751935061
0.158039800161698,3574.86751935061
0.160409235574927,3574.87751935061
0.165609921933692,3574.88751935061
0.172292653080575,3574.89751935061
0.179311087870032,3574.90751935061
0.186055609377835,3574.91751935061
0.190601781742806,3574.92751935061
0.192952082270007,3574.93751935061
0.193045164648324,3574.94751935061
0.190667309123148,3574.95751935061
0.186393471691844,3574.96751935061
0.180428108511588,3574.97751935061
0.173199614720667,3574.98751935061
0.165168531690565,3574.99751935061
0.156546617882874,3575.00751935061
0.147498244854074,3575.01751935061
0.138446459657392,3575.02751935061
0.129128114637469,3575.03751935061
0.119432267453626,3575.04751935061
0.109719879723879,3575.05751935061
0.0997729925745242,3575.06751935061
0.0894919032081785,3575.07751935061
0.0797434393895095,3575.08751935061
0.069462888303,3575.09751935061
0.0592003470194031,3575.10751935061
0.0489006269716626,3575.11751935061
0.0389956968624097,3575.12751935061
0.0290422947021073,3575.13751935061
0.019183244022733,3575.14751935061
0.00862829395165454,3575.15751935061
-0.00219336779320766,3575.16751935061
-0.0128559995566984,3575.17751935061
-0.0238325156214275,3575.18751935061
-0.0344508759915996,3575.19751935061
-0.0448216850066909,3575.20751935061
-0.054783733787807,3575.21751935061
-0.0641305324843615,3575.22751935061
-0.072810071962225,3575.23751935061
-0.0810349651457162,3575.24751935061
-0.0891437464461986,3575.25751935061
-0.0971089023135775,3575.26751935061
-0.10514110419077,3575.27751935061
-0.113233018857241,3575.28751935061
-0.12141396293429,3575.29751935061
-0.129421769829871,3575.30751935061
-0.137183878653851,3575.31751935061
-0.145243145976573,3575.32751935061
-0.152906487574222,3575.33751935061
-0.160594623773982,3575.34751935061
-0.168312458551688,3575.35751935061
-0.176417261985357,3575.36751935061
-0.184598718896733,3575.37751935061
-0.192354681060783,3575.38751935061
-0.200267332505376,3575.39751935061
-0.207539045382882,3575.40751935061
-0.213826794335855,3575.41751935061
-0.218664478224716,3575.42751935061
-0.22050035122424,3575.43751935061
-0.21361567764976,3575.44751935061
-0.18741580992497,3575.45751935061
-0.13490780327066,3575.46751935061
-0.0590441803100791,3575.47751935061
0.0274411762867254,3575.48751935061
0.11072322332477,3575.49751935061
0.18181250212876,3575.50751935061
0.235809626448197,3575.51751935061
0.273880286430352,3575.52751935061
0.299388154874151,3575.53751935061
0.315908409428379,3575.54751935061
0.326237093405307,3575.55751935061
0.333149263315887,3575.56751935061
0.336883188293239,3575.57751935061
0.337886711824739,3575.58751935061
0.33669050508653,3575.59751935061
0.33363863007536,3575.60751935061
0.329157563311904,3575.61751935061
0.323321707417979,3575.62751935061
0.317046506766148,3575.63751935061
0.309989242424579,3575.64751935061
0.303010101954047,3575.65751935061
0.295313161415388,3575.66751935061
0.286404235179467,3575.67751935061
0.275831734196802,3575.68751935061
0.263234008199565,3575.69751935061
0.248867514672698,3575.70751935061
0.233121217233348,3575.71751935061
0.216821102131126,3575.72751935061
0.201497451494557,3575.73751935061
0.188057721664009,3575.74751935061
0.176998422518849,3575.75751935061
0.169258163094247,3575.76751935061
0.164756825214326,3575.77751935061
0.163527643133728,3575.78751935061
0.165676627950403,3575.79751935061
0.170001334079944,3575.80751935061
0.175142905626995,3575.81751935061
0.180986327337862,3575.82751935061
0.185736714874666,3575.83751935061
0.189322421996248,3575.84751935061
0.19130812090667,3575.85751935061
0.191012827146601,3575.86751935061
0.188646088716125,3575.87751935061
0.184306507473237,3575.88751935061
0.178342055471093,3575.89751935061
0.170863025498527,3575.90751935061
0.162674660419201,3575.91751935061
0.153444577091293,3575.92751935061
0.143263667012107,3575.93751935061
0.132724119028577,3575.94751935061
0.122005293985626,3575.95751935061
0.111255194268194,3575.96751935061
0.100975600610918,3575.97751935061
0.0904620307412205,3575.98751935061
0.080060194391998,3575.99751935061
0.0693872116380291,3576.00751935061
0.0581611852793568,3576.01751935061
0.0468816727664692,3576.02751935061
0.0354817637870696,3576.03751935061
0.0244239554888954,3576.04751935061
0.0132410319546333,3576.05751935061
0.00259760286708962,3576.06751935061
-0.00800182162239259,3576.07751935061
-0.0186797594704846,3576.08751935061
-0.029054425093514,3576.09751935061
-0.039393480558964,3576.10751935061
-0.0496215325980184,3576.11751935061
-0.0595580971661558,3576.12751935061
-0.0696786172254952,3576.13751935061
-0.0800033517261318,3576.14751935061
-0.0902160667489004,3576.15751935061
-0.100114589301949,3576.16751935061
-0.109553347401681,3576.17751935061
-0.11831099684531,3576.18751935061
-0.126306806275921,3576.19751935061
-0.13412909674428,3576.20751935061
-0.141760967159345,3576.21751935061
-0.149329785727554,3576.22751935061
-0.156822754561071,3576.23751935061
-0.164086886508645,3576.24751935061
-0.171166267080269,3576.25751935061
-0.1785085145036,3576.26751935061
-0.185532749102096,3576.27751935061
-0.192706897681016,3576.28751935061
-0.200585786703084,3576.29751935061
-0.208215435573254,3576.30751935061
-0.21640422660736,3576.31751935061
-0.22360758781024,3576.32751935061
-0.228602588860691,3576.33751935061
-0.229867319944522,3576.34751935061
-0.220544452808835,3576.35751935061
-0.190759765111305,3576.36751935061
-0.132784173624312,3576.37751935061
-0.0512816231709947,3576.38751935061
0.0398953111761906,3576.39751935061
0.126723956540137,3576.40751935061
0.199336025040876,3576.41751935061
0.253426629409418,3576.42751935061
0.289935568700784,3576.43751935061
0.312931319655623,3576.44751935061
0.327325945330393,3576.45751935061
0.335448609142595,3576.46751935061
0.340355108066332,3576.47751935061
0.342972555725612,3576.48751935061
0.343437156984797,3576.49751935061
0.341621213975877,3576.50751935061
0.337619885162982,3576.51751935061
0.332316758004406,3576.52751935061
0.325661819429863,3576.53751935061
0.31848833880679,3576.54751935061
0.310843109827984,3576.55751935061
0.302836678075337,3576.56751935061
0.293526448995311,3576.57751935061
0.282856770236176,3576.58751935061
0.26948947179062,3576.59751935061
0.254328974272827,3576.60751935061
0.237152788909364,3576.61751935061
0.218738569732328,3576.62751935061
0.200517026179836,3576.63751935061
0.18398794320196,3576.64751935061
0.17054057182201,3576.65751935061
0.160564784068541,3576.66751935061
0.154020621546533,3576.67751935061
0.150876281600521,3576.68751935061
0.150939995094661,3576.69751935061
0.153717153753504,3576.70751935061
0.158277945748885,3576.71751935061
0.163925616319762,3576.72751935061
0.170135230447069,3576.73751935061
0.175626686109632,3576.74751935061
0.179266933550537,3576.75751935061
0.180067987790489,3576.76751935061
0.178186939808595,3576.77751935061
0.173314553672203,3576.78751935061
0.166349606820975,3576.79751935061
0.158227371036695,3576.80751935061
0.149062767202336,3576.81751935061
0.139800411782381,3576.82751935061
0.129976502332054,3576.83751935061
0.120015235856381,3576.84751935061
0.110106613907791,3576.85751935061
0.0998410727963797,3576.86751935061
0.0891017620453033,3576.87751935061
0.078371396878768,3576.88751935061
0.0675370152584698,3576.89751935061
0.0564823569238359,3576.90751935061
0.0454266151588149,3576.91751935061
0.0342856458082209,3576.92751935061
0.0233171996188618,3576.93751935061
0.0132631424276983,3576.94751935061
0.00318737941094332,3576.95751935061
-0.00698040447031651,3576.96751935061
-0.0171774826199772,3576.97751935061
-0.027281564200379,3576.98751935061
-0.0376069510261134,3576.99751935061
-0.0480171329102874,3577.00751935061
-0.0579547683008225,3577.01751935061
-0.0675953699949591,3577.02751935061
-0.077471048783343,3577.03751935061
-0.0869442969018951,3577.04751935061
-0.096149169421746,3577.05751935061
-0.10545451875578,3577.06751935061
-0.11447677477848,3577.07751935061
-0.123274121715965,3577.08751935061
-0.132775680036753,3577.09751935061
-0.142278315876353,3577.10751935061
-0.151243497938986,3577.11751935061
-0.160063603353832,3577.12751935061
-0.168582228123469,3577.13751935061
-0.176526751815779,3577.14751935061
-0.18445219231428,3577.15751935061
-0.191648789876186,3577.16751935061
-0.198697880601141,3577.17751935061
-0.206064598787652,3577.18751935061
-0.214105891025883,3577.19751935061
-0.2222459492922,3577.20751935061
-0.229706171661782,3577.21751935061
-0.237388766562382,3577.22751935061
-0.24362000936767,3577.23751935061
-0.246799558305636,3577.24751935061
-0.243402734232382,3577.25751935061
-0.225034992290223,3577.26751935061
-0.180968446146134,3577.27751935061
-0.108808377122291,3577.28751935061
-0.0183098757046307,3577.29751935061
0.0752456132123067,3577.30751935061
0.157804505040058,3577.31751935061
0.222979408407155,3577.32751935061
0.268313175235411,3577.33751935061
0.297945237711246,3577.34751935061
0.316813827980664,3577.35751935061
0.328022183034355,3577.36751935061
0.335102649672053,3577.37751935061
0.338511924848499,3577.38751935061
0.33883598462612,3577.39751935061
0.337716840469196,3577.40751935061
0.333871324055625,3577.41751935061
0.328738198598401,3577.42751935061
0.32271317806718,3577.43751935061
0.316124332389908,3577.44751935061
0.308804886294359,3577.45751935061
0.300896661640346,3577.46751935061
0.291574085159144,3577.47751935061
0.280306387570882,3577.48751935061
0.26652526131086,3577.49751935061
0.250901975687938,3577.50751935061
0.232630294623697,3577.51751935061
0.21372776715166,3577.52751935061
0.195356744182359,3577.53751935061
0.178481828276212,3577.54751935061
0.163882760249138,3577.55751935061
0.15226623219243,3577.56751935061
0.144104909293012,3577.57751935061
0.140222584682125,3577.58751935061
0.140282676447422,3577.59751935061
0.144254798865689,3577.60751935061
0.151352485460249,3577.61751935061
0.160440768675606,3577.62751935061
0.170072412533286,3577.63751935061
0.178343227466257,3577.64751935061
0.184435135967042,3577.65751935061
0.187340544553805,3577.66751935061
0.187665964602704,3577.67751935061
0.185159638584989,3577.68751935061
0.180214077306167,3577.69751935061
0.173740354381218,3577.70751935061
0.165381855779818,3577.71751935061
0.156055191168105,3577.72751935061
0.14626682396971,3577.73751935061
0.135848060131334,3577.74751935061
0.125575620686596,3577.75751935061
0.115096780301528,3577.76751935061
0.10480171567338,3577.77751935061
0.0945255490289883,3577.78751935061
0.0838530911514094,3577.79751935061
0.0733742518035391,3577.80751935061
0.0620005914509202,3577.81751935061
0.0509798993827527,3577.82751935061
0.0396872003608226,3577.83751935061
0.028890108161983,3577.84751935061
0.017759077560824,3577.85751935061
0.00671477760074253,3577.86751935061
-0.00441518257035869,3577.87751935061
-0.0155739530762754,3577.88751935061
-0.0272586675615098,3577.89751935061
-0.0387712320629834,3577.90751935061
-0.0495478070087852,3577.91751935061
-0.0593172686038818,3577.92751935061
-0.0682503971084204,3577.93751935061
-0.0772470900965897,3577.94751935061
-0.0860617788790111,3577.95751935061
-0.0949522478158808,3577.96751935061
-0.103838210860355,3577.97751935061
-0.112285833366332,3577.98751935061
-0.121173260394211,3577.99751935061
-0.129561116997032,3578.00751935061
-0.137868051601684,3578.01751935061
-0.146365023423567,3578.02751935061
-0.154960147557018,3578.03751935061
-0.163228798435519,3578.04751935061
-0.172126975909812,3578.05751935061
-0.18097411142077,3578.06751935061
-0.189494375878626,3578.07751935061
-0.197047070385244,3578.08751935061
-0.202590270402564,3578.09751935061
-0.204760537727894,3578.10751935061
-0.198042323786076,3578.11751935061
-0.173166416483708,3578.12751935061
-0.120598309697313,3578.13751935061
-0.041760716829073,3578.14751935061
0.0518115367504648,3578.15751935061
0.145410099651064,3578.16751935061
0.227998313016509,3578.17751935061
0.293356159913622,3578.18751935061
0.340972869243309,3578.19751935061
0.375042490721942,3578.20751935061
0.398624657649838,3578.21751935061
0.414956369192297,3578.22751935061
0.426884967406164,3578.23751935061
0.435294485039762,3578.24751935061
0.441210363616095,3578.25751935061
0.444994483674724,3578.26751935061
0.446788765681784,3578.27751935061
0.446726221165391,3578.28751935061
0.445350999231766,3578.29751935061
0.443251352709064,3578.30751935061
0.440173814501333,3578.31751935061
0.436358184958933,3578.32751935061
0.431278681273502,3578.33751935061
0.423975910299706,3578.34751935061
0.413727727388772,3578.35751935061
0.400708030718575,3578.36751935061
0.385361436377795,3578.37751935061
0.368902666904401,3578.38751935061
0.352937390785059,3578.39751935061
0.338924242343606,3578.40751935061
0.328313054175471,3578.41751935061
0.322147465267296,3578.42751935061
0.320885215300557,3578.43751935061
0.324616672044605,3578.44751935061
0.332737801598901,3578.45751935061
0.344530979712054,3578.46751935061
0.358165517063496,3578.47751935061
0.372181685333216,3578.48751935061
0.384822958609696,3578.49751935061
0.396130518579177,3578.50751935061
0.405525495037335,3578.51751935061
0.414366725637537,3578.52751935061
0.422730091075318,3578.53751935061
0.430105049315942,3578.54751935061
0.435764781707755,3578.55751935061
0.439755944062736,3578.56751935061
0.442595544709945,3578.57751935061
0.445953009042267,3578.58751935061
0.449126249987811,3578.59751935061
0.453348561973938,3578.60751935061
0.458226439719247,3578.61751935061
0.463862761238113,3578.62751935061
0.47114169003975,3578.63751935061
0.479173124749936,3578.64751935061
0.487625318124515,3578.65751935061
0.496839829266504,3578.66751935061
0.506389319721863,3578.67751935061
0.515827396238104,3578.68751935061
0.524902215447477,3578.69751935061
0.533089778771839,3578.70751935061
0.540045909805173,3578.71751935061
0.544966615968319,3578.72751935061
0.547805286730624,3578.73751935061
0.548145012961078,3578.74751935061
0.546208821849972,3578.75751935061
0.54225482560331,3578.76751935061
0.536343216418783,3578.77751935061
0.528821516510173,3578.78751935061
0.520237497439005,3578.79751935061
0.511151711983663,3578.80751935061
0.501539736720278,3578.81751935061
0.492395339880864,3578.82751935061
0.482895459854612,3578.83751935061
0.472577695126097,3578.84751935061
0.46099168909552,3578.85751935061
0.448764747360939,3578.86751935061
0.435059839025688,3578.87751935061
0.418771142581798,3578.88751935061
0.399493746408354,3578.89751935061
0.376636479828902,3578.90751935061
0.350172943073895,3578.91751935061
0.321077591805617,3578.92751935061
0.289039957451462,3578.93751935061
0.255050173905192,3578.94751935061
0.220531981643047,3578.95751935061
0.188824745676923,3578.96751935061
0.162827947480827,3578.97751935061
0.147326412716583,3578.98751935061
0.150220449933563,3578.99751935061
0.178283715526961,3579.00751935061
0.231090341295358,3579.01751935061
0.300074113749965,3579.02751935061
0.374231321758775,3579.03751935061
0.443662900099339,3579.04751935061
0.502601452467751,3579.05751935061
0.549711779340213,3579.06751935061
0.5856144154745,3579.07751935061
0.611952594839137,3579.08751935061
0.630692708766201,3579.09751935061
0.643201770554776,3579.10751935061
0.649669771136984,3579.11751935061
0.652359097746982,3579.12751935061
0.651018946729235,3579.13751935061
0.647034562592557,3579.14751935061
0.641186839206609,3579.15751935061
0.633757627335782,3579.16751935061
0.625750529539541,3579.17751935061
0.616788201770674,3579.18751935061
0.607031364872381,3579.19751935061
0.596432749148583,3579.20751935061
0.584761463874236,3579.21751935061
0.571055776755127,3579.22751935061
0.554729112612989,3579.23751935061
0.535806791711747,3579.24751935061
0.514028731246907,3579.25751935061
0.4904140956779,3579.26751935061
0.46625384939691,3579.27751935061
0.442927235707871,3579.28751935061
0.42190338050247,3579.29751935061
0.404746688683954,3579.30751935061
0.392741718300519,3579.31751935061
0.386606982411009,3579.32751935061
0.385087127418979,3579.33751935061
0.387438400610454,3579.34751935061
0.392815412198709,3579.35751935061
0.399060551861363,3579.36751935061
0.406190076418797,3579.37751935061
0.41295162574292,3579.38751935061
0.418583146075493,3579.39751935061
0.42282768487682,3579.40751935061
0.42616741907713,3579.41751935061
0.428697158589029,3579.42751935061
0.430916173482473,3579.43751935061
0.432550664494119,3579.44751935061
0.433514802715042,3579.45751935061
0.432993878878861,3579.46751935061
0.431372364304528,3579.47751935061
0.428722411164213,3579.48751935061
0.424847728041037,3579.49751935061
0.419821173775865,3579.50751935061
0.413038823938927,3579.51751935061
0.405319080308778,3579.52751935061
0.396703817218592,3579.53751935061
0.387184679976728,3579.54751935061
0.377148029023768,3579.55751935061
0.366623815176736,3579.56751935061
0.355636226334522,3579.57751935061
0.344013120498132,3579.58751935061
0.332626997657099,3579.59751935061
0.321843272138892,3579.60751935061
0.312742334261595,3579.61751935061
0.305521607401522,3579.62751935061
0.299453876125807,3579.63751935061
0.294189138359065,3579.64751935061
0.288466474229396,3579.65751935061
0.282166240742099,3579.66751935061
0.274913750263974,3579.67751935061
0.267400731918112,3579.68751935061
0.259946198839641,3579.69751935061
0.252227040318055,3579.70751935061
0.244441675580582,3579.71751935061
0.235606239745364,3579.72751935061
0.226635961627047,3579.73751935061
0.217198433502099,3579.74751935061
0.208009843497254,3579.75751935061
0.199659466707849,3579.76751935061
0.191954335758296,3579.77751935061
0.185118318916055,3579.78751935061
0.178848509061443,3579.79751935061
0.172989716214123,3579.80751935061
0.167131444259232,3579.81751935061
0.161849652471675,3579.82751935061
0.157956267786138,3579.83751935061
0.155293967877243,3579.84751935061
0.154412373031013,3579.85751935061
0.157827999710861,3579.86751935061
0.170440480573452,3579.87751935061
0.200438335202711,3579.88751935061
0.253176366763851,3579.89751935061
0.326619539869671,3579.90751935061
0.413409754431643,3579.91751935061
0.50472158175363,3579.92751935061
0.593996002582915,3579.93751935061
0.678121253923193,3579.94751935061
0.756428878993132,3579.95751935061
0.830121152254147,3579.96751935061
0.898033173843904,3579.97751935061
0.960198047318826,3579.98751935061
1.01498233375261,3579.99751935061
1.06300730905106,3580.00751935061
1.10467453983364,3580.01751935061
1.14028031149476,3580.02751935061
1.17082423850568,3580.03751935061
1.19619058462908,3580.04751935061
1.21628789323131,3580.05751935061
1.23070605054556,3580.06751935061
1.24056843638348,3580.07751935061
1.24719232594801,3580.08751935061
1.25169445538263,3580.09751935061
1.254784900894,3580.10751935061
1.25544573808207,3580.11751935061
1.25269598022011,3580.12751935061
1.2448645516767,3580.13751935061
1.23204377575817,3580.14751935061
1.21474580715258,3580.15751935061
1.19314829683981,3580.16751935061
1.16990225130252,3580.17751935061
1.14679717888179,3580.18751935061
1.12536054897462,3580.19751935061
1.10723323036309,3580.20751935061
1.09269203276589,3580.21751935061
1.08235230271954,3580.22751935061
1.07633858504508,3580.23751935061
1.07453222089075,3580.24751935061
1.07554903974428,3580.25751935061
1.07787718966983,3580.26751935061
1.08012706351581,3580.27751935061
1.08067544096207,3580.28751935061
1.07863415742404,3580.29751935061
1.0734096513526,3580.30751935061
1.06558166293733,3580.31751935061
1.05524816119706,3580.32751935061
1.04293526335253,3580.33751935061
1.02885591470813,3580.34751935061
1.0129860551502,3580.35751935061
0.996166510754915,3580.36751935061
0.978176565622745,3580.37751935061
0.959202932801325,3580.38751935061
0.939770145180202,3580.39751935061
0.920188535738135,3580.40751935061
0.900593799507789,3580.41751935061
0.880898708448705,3580.42751935061
0.860383774760002,3580.43751935061
0.839445183355763,3580.44751935061
0.817967403094591,3580.45751935061
0.796135800679422,3580.46751935061
0.774694863237735,3580.47751935061
0.753037850275288,3580.48751935061
0.731838350569284,3580.49751935061
0.710663479957519,3580.50751935061
0.689510654445127,3580.51751935061
0.668230342396452,3580.52751935061
0.647258661603811,3580.53751935061
0.627196850065007,3580.54751935061
0.608338733017067,3580.55751935061
0.590436363462198,3580.56751935061
0.572608623692359,3580.57751935061
0.555759921433784,3580.58751935061
0.539106595173987,3580.59751935061
0.523203358275057,3580.60751935061
0.507823084973945,3580.61751935061
0.493399942040384,3580.62751935061
0.479865765232336,3580.63751935061
0.466266822430598,3580.64751935061
0.452679224295901,3580.65751935061
0.439106628260797,3580.66751935061
0.424827311781347,3580.67751935061
0.411191724274715,3580.68751935061
0.397097549097855,3580.69751935061
0.383158847596613,3580.70751935061
0.370181858048303,3580.71751935061
0.358601408858256,3580.72751935061
0.350491285190741,3580.73751935061
0.350333087460719,3580.74751935061
0.363382022548211,3580.75751935061
0.394366388782466,3580.76751935061
0.442439918514505,3580.77751935061
0.503744602080433,3580.78751935061
0.570846995573842,3580.79751935061
0.638330872840846,3580.80751935061
0.70223150326599,3580.81751935061
0.760874387780668,3580.82751935061
0.813685408922783,3580.83751935061
0.861578899595236,3580.84751935061
0.903466144475438,3580.85751935061
0.939596659977555,3580.86751935061
0.969049938540149,3580.87751935061
0.991706255644634,3580.88751935061
1.0084467586919,3580.89751935061
1.01820607502355,3580.90751935061
1.02351448791039,3580.91751935061
1.02437744937915,3580.92751935061
1.02243806345965,3580.93751935061
1.01836976215651,3580.94751935061
1.01285969207972,3580.95751935061
1.00627296590318,3580.96751935061
0.999494535631831,3580.97751935061
0.991183566951547,3580.98751935061
0.980742073158505,3580.99751935061
0.967553964819658,3581.00751935061
0.950611936726992,3581.01751935061
0.931102977761856,3581.02751935061
0.909573099164818,3581.03751935061
0.887629068896168,3581.04751935061
0.867456558811352,3581.05751935061
0.85078318506887,3581.06751935061
0.838085202038446,3581.07751935061
0.829509905074854,3581.08751935061
0.825137786807576,3581.09751935061
0.823844880078714,3581.10751935061
0.824667362834498,3581.11751935061
0.826463720568255,3581.12751935061
0.828169700844194,3581.13751935061
0.829268056895943,3581.14751935061
0.829278938352605,3581.15751935061
0.827648080691144,3581.16751935061
0.824775546825532,3581.17751935061
0.8200782185402,3581.18751935061
0.813862351459442,3581.19751935061
0.805988658082178,3581.20751935061
0.796585025019877,3581.21751935061
0.785960579726046,3581.22751935061
0.774590434792381,3581.23751935061
0.762748715408496,3581.24751935061
0.750326382256523,3581.25751935061
0.737621185582574,3581.26751935061
0.724217502123425,3581.27751935061
0.710851792775338,3581.28751935061
0.696716913296638,3581.29751935061
0.682368645187076,3581.30751935061
0.667735501734306,3581.31751935061
0.652502945413053,3581.32751935061
0.636858543755446,3581.33751935061
0.620091940254974,3581.34751935061
0.603289736892868,3581.35751935061
0.58643725309169,3581.36751935061
0.56930633955163,3581.37751935061
0.551927153559679,3581.38751935061
0.534342509762611,3581.39751935061
0.517258541408285,3581.40751935061
0.500377530097087,3581.41751935061
0.484034260683481,3581.42751935061
0.467950454516948,3581.43751935061
0.451882074569523,3581.44751935061
0.435740141538724,3581.45751935061
0.419554648903043,3581.46751935061
0.403740383211491,3581.47751935061
0.388456681549847,3581.48751935061
0.374188859164972,3581.49751935061
0.360532612331244,3581.50751935061
0.346483347894425,3581.51751935061
0.332405484402729,3581.52751935061
0.317973300443458,3581.53751935061
0.30323208624133,3581.54751935061
0.288086045156776,3581.55751935061
0.272824431343754,3581.56751935061
0.258454672549761,3581.57751935061
0.246904903851442,3581.58751935061
0.24329064459917,3581.59751935061
0.254050550080664,3581.60751935061
0.283459252967163,3581.61751935061
0.332010894976164,3581.62751935061
0.394553461712356,3581.63751935061
0.463661451908929,3581.64751935061
0.53296285156487,3581.65751935061
0.597755211628874,3581.66751935061
0.656020368273599,3581.67751935061
0.707551051546643,3581.68751935061
0.752443776202597,3581.69751935061
0.790980797851074,3581.70751935061
0.822788228138103,3581.71751935061
0.847370205147292,3581.72751935061
0.864821164707698,3581.73751935061
0.875675706184598,3581.74751935061
0.880687056222502,3581.75751935061
0.880833777845895,3581.76751935061
0.8770229903968,3581.77751935061
0.870156221538093,3581.78751935061
0.861811414976582,3581.79751935061
0.851761559410984,3581.80751935061
0.840580143046092,3581.81751935061
0.828235113000154,3581.82751935061
0.813861854178008,3581.83751935061
0.797377339919726,3581.84751935061
0.777527270994771,3581.85751935061
0.75508145626094,3581.86751935061
0.731113171283848,3581.87751935061
0.706812402140813,3581.88751935061
0.684368952134606,3581.89751935061
0.665770208130386,3581.90751935061
0.652164801010747,3581.91751935061
0.644299324263112,3581.92751935061
0.642487523010582,3581.93751935061
0.646295870934034,3581.94751935061
0.654333660983262,3581.95751935061
0.664935042111032,3581.96751935061
0.676719003915195,3581.97751935061
0.687678280328154,3581.98751935061
0.697271715884047,3581.99751935061
0.704139347685051,3582.00751935061
0.708439824197112,3582.01751935061
0.708702690146703,3582.02751935061
0.706096944147849,3582.03751935061
0.700254931756645,3582.04751935061
0.69167575949912,3582.05751935061
0.680779405145349,3582.06751935061
0.667941940010463,3582.07751935061
0.653304046757443,3582.08751935061
0.637245847615631,3582.09751935061
0.619847774214877,3582.10751935061
0.601534500115762,3582.11751935061
0.583302275433244,3582.12751935061
0.564909934891494,3582.13751935061
0.546393980127782,3582.14751935061
0.528657735465352,3582.15751935061
0.510982088857438,3582.16751935061
0.493127095880667,3582.17751935061
0.475256780058437,3582.18751935061
0.45741234609162,3582.19751935061
0.440219621492195,3582.20751935061
0.424136926196406,3582.21751935061
0.408882807930921,3582.22751935061
0.394897463564965,3582.23751935061
0.381608626872842,3582.24751935061
0.368957763208779,3582.25751935061
0.356841367158816,3582.26751935061
0.345527586938263,3582.27751935061
0.333913813143166,3582.28751935061
0.32214953903275,3582.29751935061
0.309917577600227,3582.30751935061
0.296802698755964,3582.31751935061
0.282620989463331,3582.32751935061
0.26828178915568,3582.33751935061
0.253809994829266,3582.34751935061
0.239127692063428,3582.35751935061
0.225261706741028,3582.36751935061
0.214625185246094,3582.37751935061
0.211150558060631,3582.38751935061
0.220835897198263,3582.39751935061
0.247395099925704,3582.40751935061
0.291398149364399,3582.41751935061
0.348720799362522,3582.42751935061
0.412903473659359,3582.43751935061
0.47900860228032,3582.44751935061
0.543214791845215,3582.45751935061
0.603207290035981,3582.46751935061
0.657953210881901,3582.47751935061
0.706982250383616,3582.48751935061
0.750453880538168,3582.49751935061
0.786896283744827,3582.50751935061
0.815747018448922,3582.51751935061
0.837371376789847,3582.52751935061
0.851802610077699,3582.53751935061
0.859646418109835,3582.54751935061
0.86197006707386,3582.55751935061
0.86017735982762,3582.56751935061
0.854772586401889,3582.57751935061
0.84777726181338,3582.58751935061
0.839857850762346,3582.59751935061
0.83094761525553,3582.60751935061
0.821681118981886,3582.61751935061
0.810923084878318,3582.62751935061
0.798224207363015,3582.63751935061
0.782616450431423,3582.64751935061
0.763931289499793,3582.65751935061
0.743567416195733,3582.66751935061
0.721820742806509,3582.67751935061
0.700691118337904,3582.68751935061
0.681421382497939,3582.69751935061
0.665630208614119,3582.70751935061
0.653142319745407,3582.71751935061
0.644895293943852,3582.72751935061
0.639881042879109,3582.73751935061
0.637492680074962,3582.74751935061
0.636731400272706,3582.75751935061
0.636915305052967,3582.76751935061
0.637726647950092,3582.77751935061
0.637362923214687,3582.78751935061
0.63638338072516,3582.79751935061
0.63338048037763,3582.80751935061
0.6284382666912,3582.81751935061
0.621835354482534,3582.82751935061
0.613783174094763,3582.83751935061
0.604771546210451,3582.84751935061
0.595025017865453,3582.85751935061
0.584862854493376,3582.86751935061
0.574234167636361,3582.87751935061
0.562772573226357,3582.88751935061
0.550816229095627,3582.89751935061
0.537868510618205,3582.90751935061
0.523744596101223,3582.91751935061
0.509261671961124,3582.92751935061
0.494436225867323,3582.93751935061
0.479206133121676,3582.94751935061
0.463612191490588,3582.95751935061
0.447821140419109,3582.96751935061
0.432619531657448,3582.97751935061
0.417061445370621,3582.98751935061
0.40193254844972,3582.99751935061
0.386902975723883,3583.00751935061
0.372020520316021,3583.01751935061
0.357363248736166,3583.02751935061
0.343551358021577,3583.03751935061
0.330399284984285,3583.04751935061
0.317652434035967,3583.05751935061
0.305088491214334,3583.06751935061
0.292628296871581,3583.07751935061
0.279333861940206,3583.08751935061
0.265141045177251,3583.09751935061
0.250226931858785,3583.10751935061
0.234841730760428,3583.11751935061
0.218822543319333,3583.12751935061
0.202925412831725,3583.13751935061
0.187307800599301,3583.14751935061
0.17318223085871,3583.15751935061
0.160749475751386,3583.16751935061
0.153240569063461,3583.17751935061
0.155308306983361,3583.18751935061
0.17023182787448,3583.19751935061
0.199548430010862,3583.20751935061
0.241955328182805,3583.21751935061
0.292864015445252,3583.22751935061
0.347493711813976,3583.23751935061
0.401469150366965,3583.24751935061
0.45185399111664,3583.25751935061
0.496804678474855,3583.26751935061
0.535722926605975,3583.27751935061
0.567814073577392,3583.28751935061
0.593949365691826,3583.29751935061
0.613951058304787,3583.30751935061
0.627881717140807,3583.31751935061
0.636922204491063,3583.32751935061
0.640876170200742,3583.33751935061
0.641802979532489,3583.34751935061
0.639778626543379,3583.35751935061
0.636114135892406,3583.36751935061
0.631481932622592,3583.37751935061
0.625897140101351,3583.38751935061
0.619606739064273,3583.39751935061
0.61342952328961,3583.40751935061
0.606512063558299,3583.41751935061
0.599094612018739,3583.42751935061
0.589946966076589,3583.43751935061
0.57834814843624,3583.44751935061
0.564860628229533,3583.45751935061
0.549549435614676,3583.46751935061
0.533958285648596,3583.47751935061
0.518919625582023,3583.48751935061
0.506454947012467,3583.49751935061
0.496662096912413,3583.50751935061
0.490280945482329,3583.51751935061
0.486513631625293,3583.52751935061
0.484539994930912,3583.53751935061
0.483723683883159,3583.54751935061
0.484241238491006,3583.55751935061
0.484251363739658,3583.56751935061
0.484172210658083,3583.57751935061
0.483484966637974,3583.58751935061
0.481142318259522,3583.59751935061
0.477298466241452,3583.60751935061
0.472042323632137,3583.61751935061
0.465273435051592,3583.62751935061
0.456566061783418,3583.63751935061
0.447410157707961,3583.64751935061
0.437071493425351,3583.65751935061
0.426771708127343,3583.66751935061
0.41594023948978,3583.67751935061
0.405877778052925,3583.68751935061
0.395594607593353,3583.69751935061
0.385307955367507,3583.70751935061
0.374359845961376,3583.71751935061
0.363176772825865,3583.72751935061
0.351662827803862,3583.73751935061
0.339154352432692,3583.74751935061
0.326381004080245,3583.75751935061
0.313098867193092,3583.76751935061
0.300076283037836,3583.77751935061
0.28732407080486,3583.78751935061
0.274706078997843,3583.79751935061
0.262265959955007,3583.80751935061
0.250393911819334,3583.81751935061
0.239049127475479,3583.82751935061
0.228028470993345,3583.83751935061
0.217867801547693,3583.84751935061
0.207202528137704,3583.85751935061
0.196742621230279,3583.86751935061
0.185722942243476,3583.87751935061
0.174686110731667,3583.88751935061
0.163150001006193,3583.89751935061
0.151265092955959,3583.90751935061
0.138884760214012,3583.91751935061
0.126122307117255,3583.92751935061
0.113891542129119,3583.93751935061
0.101921713976062,3583.94751935061
0.0907866937799513,3583.95751935061
0.0818825542332351,3583.96751935061
0.0790555643184651,3583.97751935061
0.0851456549579668,3583.98751935061
0.103588072106551,3583.99751935061
0.133740437428199,3584.00751935061
0.173400440817929,3584.01751935061
0.218626021351685,3584.02751935061
0.26495054638502,3584.03751935061
0.309138619240244,3584.04751935061
0.348871004478585,3584.05751935061
0.383032502824939,3584.06751935061
0.410766412382697,3584.07751935061
0.432228524369948,3584.08751935061
0.447932643710726,3584.09751935061
0.457735885999512,3584.10751935061
0.462861074466384,3584.11751935061
0.464338913399172,3584.12751935061
0.462519456902452,3584.13751935061
0.459109893427768,3584.14751935061
0.453574633329368,3584.15751935061
0.446877781952191,3584.16751935061
0.43996658099575,3584.17751935061
0.432804987445191,3584.18751935061
0.425485252725907,3584.19751935061
0.417943549975198,3584.20751935061
0.409210042899458,3584.21751935061
0.399099338669465,3584.22751935061
0.387385576892444,3584.23751935061
0.374157277024613,3584.24751935061
0.360933810643052,3584.25751935061
0.347565317872494,3584.26751935061
0.335188775599801,3584.27751935061
0.324472846982237,3584.28751935061
0.316852446684212,3584.29751935061
0.312054782064852,3584.30751935061
0.310063589034496,3584.31751935061
0.31082085774032,3584.32751935061
0.313293521096364,3584.33751935061
0.316783096707258,3584.34751935061
0.319897848082415,3584.35751935061
0.322248295349067,3584.36751935061
0.32261470420509,3584.37751935061
0.321194910473071,3584.38751935061
0.318587018425173,3584.39751935061
0.314794038490883,3584.40751935061
0.309391972142029,3584.41751935061
0.302827933591957,3584.42751935061
0.29536585340394,3584.43751935061
0.287391727912783,3584.44751935061
0.278476477384579,3584.45751935061
0.26934707670482,3584.46751935061
0.260635022710755,3584.47751935061
0.251994478351301,3584.48751935061
0.243425324151783,3584.49751935061
0.234542842412442,3584.50751935061
0.225452094760717,3584.51751935061
0.216113214417829,3584.52751935061
0.205932174395706,3584.53751935061
0.195983379421565,3584.54751935061
0.185626591055624,3584.55751935061
0.175755650028957,3584.56751935061
0.16637393394497,3584.57751935061
0.157383818794508,3584.58751935061
0.148732071964301,3584.59751935061
0.14045418389445,3584.60751935061
0.132410495030781,3584.61751935061
0.124585625093895,3584.62751935061
0.116802579401112,3584.63751935061
0.109366797261745,3584.64751935061
0.101608919282067,3584.65751935061
0.0933621954541123,3584.66751935061
0.0847447114627844,3584.67751935061
0.0754736604785919,3584.68751935061
0.0661167287745486,3584.69751935061
0.0561023861127454,3584.70751935061
0.0463920409554183,3584.71751935061
0.0376156937079234,3584.72751935061
0.031696067633807,3584.73751935061
0.0309030382383982,3584.74751935061
0.0386283564716438,3584.75751935061
0.0565793271950775,3584.76751935061
0.0845778851322881,3584.77751935061
0.120601038562767,3584.78751935061
0.161495062093472,3584.79751935061
0.203058268376854,3584.80751935061
0.242309649145803,3584.81751935061
0.277550076524522,3584.82751935061
0.308416154446068,3584.83751935061
0.333025634508209,3584.84751935061
0.351730325183607,3584.85751935061
0.365020968541867,3584.86751935061
0.373184166100923,3584.87751935061
0.37700909922861,3584.88751935061
0.377767454927766,3584.89751935061
0.375883434048719,3584.90751935061
0.37209397765022,3584.91751935061
0.367060168842635,3584.92751935061
0.361085635414332,3584.93751935061
0.354816750766431,3584.94751935061
0.348459046758269,3584.95751935061
0.341466795100528,3584.96751935061
0.333542856627211,3584.97751935061
0.324285953642251,3584.98751935061
0.313911612075133,3584.99751935061
0.301981859484495,3585.00751935061
0.289016358254961,3585.01751935061
0.275983272792055,3585.02751935061
0.264259706841862,3585.03751935061
0.254337788622026,3585.04751935061
0.247050258413982,3585.05751935061
0.242461149803449,3585.06751935061
0.241110572049365,3585.07751935061
0.241622415833718,3585.08751935061
0.244512987385995,3585.09751935061
0.247969108373734,3585.10751935061
0.251899921641647,3585.11751935061
0.254963108468893,3585.12751935061
0.25716556631756,3585.13751935061
0.25786128790222,3585.14751935061
0.256874768347608,3585.15751935061
0.254528817992413,3585.16751935061
0.250192875710671,3585.17751935061
0.245476287041434,3585.18751935061
0.239971650784107,3585.19751935061
0.234293944511758,3585.20751935061
0.228566920053749,3585.21751935061
0.223227185767637,3585.22751935061
0.218274053785043,3585.23751935061
0.213092350934463,3585.24751935061
0.207951957993338,3585.25751935061
0.202691950055091,3585.26751935061
0.197263674358075,3585.27751935061
0.192163214871927,3585.28751935061
0.187355477183309,3585.29751935061
0.183190428348668,3585.30751935061
0.179257688660093,3585.31751935061
0.174991229515118,3585.32751935061
0.170153943830243,3585.33751935061
0.16504074472244,3585.34751935061
0.159005018046071,3585.35751935061
0.152143631820965,3585.36751935061
0.144820495003198,3585.37751935061
0.136707010849684,3585.38751935061
0.12782391053358,3585.39751935061
0.11820057700525,3585.40751935061
0.108065217365519,3585.41751935061
0.0979212947418613,3585.42751935061
0.0875787538273381,3585.43751935061
0.0781787264286558,3585.44751935061
0.0693635161373294,3585.45751935061
0.0630203003737999,3585.46751935061
0.0616218027843782,3585.47751935061
0.0680280723367951,3585.48751935061
0.0841649965844066,3585.49751935061
0.109494264160331,3585.50751935061
0.142413983667599,3585.51751935061
0.180357064329192,3585.52751935061
0.219527984961194,3585.53751935061
0.257656614979005,3585.54751935061
0.292012073461552,3585.55751935061
0.32227502253293,3585.56751935061
0.346768517274579,3585.57751935061
0.36566628943435,3585.58751935061
0.379041285156943,3585.59751935061
0.387689970729205,3585.60751935061
0.392781550853436,3585.61751935061
0.394931211033462,3585.62751935061
0.395425506977676,3585.63751935061
0.394417976051459,3585.64751935061
0.392056454500242,3585.65751935061
0.38885827330576,3585.66751935061
0.384526797915967,3585.67751935061
0.379977581428246,3585.68751935061
0.374896458199233,3585.69751935061
0.369036788333993,3585.70751935061
0.362169667344598,3585.71751935061
0.354123040794738,3585.72751935061
0.344322695391214,3585.73751935061
0.333081194877536,3585.74751935061
0.321069169484643,3585.75751935061
0.308574059445937,3585.76751935061
0.297097607072211,3585.77751935061
0.287254574437049,3585.78751935061
0.280040443945613,3585.79751935061
0.275602278904207,3585.80751935061
0.274420083393997,3585.81751935061
0.275293717402708,3585.82751935061
0.277290287356127,3585.83751935061
0.279671098791566,3585.84751935061
0.282857499639727,3585.85751935061
0.28546802654421,3585.86751935061
0.28751056515482,3585.87751935061
0.288533195352106,3585.88751935061
0.287433293313762,3585.89751935061
0.284840726507713,3585.90751935061
0.281066187196667,3585.91751935061
0.275372229836271,3585.92751935061
0.269207992563473,3585.93751935061
0.262525486349096,3585.94751935061
0.255829566905028,3585.95751935061
0.248937080369135,3585.96751935061
0.242103214038701,3585.97751935061
0.234692544300464,3585.98751935061
0.227041165745927,3585.99751935061
0.219184567592241,3586.00751935061
0.2109786415129,3586.01751935061
0.202981611167728,3586.02751935061
0.195409708886381,3586.03751935061
0.188286090971097,3586.04751935061
0.181329022694541,3586.05751935061
0.17431939288236,3586.06751935061
0.167924996944875,3586.07751935061
0.160796303745752,3586.08751935061
0.153164010785306,3586.09751935061
0.145965002451683,3586.10751935061
0.13836393553837,3586.11751935061
0.131233708152772,3586.12751935061
0.124008704624214,3586.13751935061
0.11645999341471,3586.14751935061
0.108998861079665,3586.15751935061
0.101256936336829,3586.16751935061
0.0932163506800477,3586.17751935061
0.0848046999045013,3586.18751935061
0.0768602017627341,3586.19751935061
0.069639375254549,3586.20751935061
0.0648990914875561,3586.21751935061
0.0650404463542438,3586.22751935061
0.0725710276219569,3586.23751935061
0.0890028641894975,3586.24751935061
0.114922266103865,3586.25751935061
0.147987304989069,3586.26751935061
0.185523354077848,3586.27751935061
0.224123940375574,3586.28751935061
0.261884447947689,3586.29751935061
0.296639153516262,3586.30751935061
0.327447902291434,3586.31751935061
0.353231692406977,3586.32751935061
0.372878763664651,3586.33751935061
0.388215720570876,3586.34751935061
0.399138407186191,3586.35751935061
0.406073613891882,3586.36751935061
0.410851704666596,3586.37751935061
0.41290429013036,3586.38751935061
0.413577492187413,3586.39751935061
0.41317115577312,3586.40751935061
0.412293454035699,3586.41751935061
0.410962220642178,3586.42751935061
0.409865658235884,3586.43751935061
0.408854409868519,3586.44751935061
0.407674824095542,3586.45751935061
0.405371188261362,3586.46751935061
0.401527585911625,3586.47751935061
0.395428831394642,3586.48751935061
0.386650306742442,3586.49751935061
0.376506306472501,3586.50751935061
0.365606852126046,3586.51751935061
0.35492125260888,3586.52751935061
0.345453415034978,3586.53751935061
0.337889318992337,3586.54751935061
0.333030413623576,3586.55751935061
0.330481384208791,3586.56751935061
0.330045297369067,3586.57751935061
0.330640807277285,3586.58751935061
0.331827880733257,3586.59751935061
0.332841818291584,3586.60751935061
0.333347542701962,3586.61751935061
0.333244500685789,3586.62751935061
0.332533404497712,3586.63751935061
0.331361754620782,3586.64751935061
0.328807209655923,3586.65751935061
0.325778000532438,3586.66751935061
0.321192028605019,3586.67751935061
0.316193374622976,3586.68751935061
0.309881677258802,3586.69751935061
0.303310502416067,3586.70751935061
0.296222636119701,3586.71751935061
0.289232055258914,3586.72751935061
0.281573076087858,3586.73751935061
0.273607444816657,3586.74751935061
0.265367595242994,3586.75751935061
0.257172455671088,3586.76751935061
0.248488300307901,3586.77751935061
0.240347138807818,3586.78751935061
0.232225549253694,3586.79751935061
0.224458773691194,3586.80751935061
0.216810624387634,3586.81751935061
0.209055095934112,3586.82751935061
0.201424432325923,3586.83751935061
0.193185730192552,3586.84751935061
0.184447254716125,3586.85751935061
0.175857019296606,3586.86751935061
0.166809569837869,3586.87751935061
0.157743413412173,3586.88751935061
0.148992249522358,3586.89751935061
0.14066062600655,3586.90751935061
0.132224637188727,3586.91751935061
0.123541918983131,3586.92751935061
0.115404302707818,3586.93751935061
0.108737306542646,3586.94751935061
0.105459446508231,3586.95751935061
0.108033789857221,3586.96751935061
0.119262020704234,3586.97751935061
0.13984373614499,3586.98751935061
0.169233717119154,3586.99751935061
0.204643187877362,3587.00751935061
0.243210730475102,3587.01751935061
0.282408564906746,3587.02751935061
0.320294431288196,3587.03751935061
0.35504912824376,3587.04751935061
0.385370019833008,3587.05751935061
0.41056412844108,3587.06751935061
0.429363488535957,3587.07751935061
0.442750340806683,3587.08751935061
0.451590529765861,3587.09751935061
0.456767353939906,3587.10751935061
0.459475139905468,3587.11751935061
0.460796513374709,3587.12751935061
0.461408252343787,3587.13751935061
0.461478848264455,3587.14751935061
0.461020364583951,3587.15751935061
0.460216771715219,3587.16751935061
0.458705307435209,3587.17751935061
0.456230823652385,3587.18751935061
0.452859847131148,3587.19751935061
0.44727844532542,3587.20751935061
0.439712151866099,3587.21751935061
0.429689220429648,3587.22751935061
0.417980291343567,3587.23751935061
0.405708796501787,3587.24751935061
0.393653628397718,3587.25751935061
0.383312181415417,3587.26751935061
0.374658678475723,3587.27751935061
0.368661326773301,3587.28751935061
0.365559934982314,3587.29751935061
0.364313372709123,3587.30751935061
0.364662985808009,3587.31751935061
0.365978516152136,3587.32751935061
0.367711302512339,3587.33751935061
0.369033916701013,3587.34751935061
0.369739617626211,3587.35751935061
0.368809064192439,3587.36751935061
0.366479852804395,3587.37751935061
0.362364918572332,3587.38751935061
0.357410959482151,3587.39751935061
0.35134928115201,3587.40751935061
0.344453934662821,3587.41751935061
0.336904318799902,3587.42751935061
0.328457878004161,3587.43751935061
0.319311096244344,3587.44751935061
0.310203448194003,3587.45751935061
0.300928243810894,3587.46751935061
0.292070134174043,3587.47751935061
0.283807005598637,3587.48751935061
0.275303501717897,3587.49751935061
0.266525837282119,3587.50751935061
0.257456670253616,3587.51751935061
0.247604988907864,3587.52751935061
0.237411381465308,3587.53751935061
0.227115400193924,3587.54751935061
0.217655374147099,3587.55751935061
0.208961926946619,3587.56751935061
0.200779187039396,3587.57751935061
0.192217265280492,3587.58751935061
0.183961429960622,3587.59751935061
0.174734936676587,3587.60751935061
0.165471899516265,3587.61751935061
0.155690137051788,3587.62751935061
0.145609537832691,3587.63751935061
0.136281202583315,3587.64751935061
0.127240788285259,3587.65751935061
0.119719753718507,3587.66751935061
0.115099193047994,3587.67751935061
0.115273927820984,3587.68751935061
0.12353319329111,3587.69751935061
0.141126660908152,3587.70751935061
0.168328678568547,3587.71751935061
0.202699859813381,3587.72751935061
0.241780188950144,3587.73751935061
0.281999949156635,3587.74751935061
0.32078438102296,3587.75751935061
0.356640774945603,3587.76751935061
0.388034400058936,3587.77751935061
0.414161809858605,3587.78751935061
0.434744597483823,3587.79751935061
0.450561149759091,3587.80751935061
0.461913379066656,3587.81751935061
0.469829208828973,3587.82751935061
0.474171362552953,3587.83751935061
0.476069277554459,3587.84751935061
0.476596919045936,3587.85751935061
0.476010205145261,3587.86751935061
0.474847786077586,3587.87751935061
0.473490048238061,3587.88751935061
0.471479124348848,3587.89751935061
0.468671617446779,3587.90751935061
0.46468319429633,3587.91751935061
0.458334295167322,3587.92751935061
0.449947509545733,3587.93751935061
0.438509941267439,3587.94751935061
0.425058888321243,3587.95751935061
0.410612605980907,3587.96751935061
0.396348001429409,3587.97751935061
0.38326367835663,3587.98751935061
0.372715688574379,3587.99751935061
0.364832546761648,3588.00751935061
0.359494282140609,3588.01751935061
0.356359016427389,3588.02751935061
0.35494409198392,3588.03751935061
0.354345312608354,3588.04751935061
0.354309024614348,3588.05751935061
0.354550784309197,3588.06751935061
0.353844814466292,3588.07751935061
0.352069567486044,3588.08751935061
0.349151496632969,3588.09751935061
0.344818263808366,3588.10751935061
0.339632891046156,3588.11751935061
0.332780108446387,3588.12751935061
0.325431329543532,3588.13751935061
0.317012748121374,3588.14751935061
0.308704987853787,3588.15751935061
0.29989807788972,3588.16751935061
0.290806804673781,3588.17751935061
0.281302786786015,3588.18751935061
0.271511309316214,3588.19751935061
0.261691481522189,3588.20751935061
0.251730458631426,3588.21751935061
0.24172928835779,3588.22751935061
0.231298610170697,3588.23751935061
0.221157616291037,3588.24751935061
0.211686940618122,3588.25751935061
0.202422226056684,3588.26751935061
0.193273890305551,3588.27751935061
0.184218797745554,3588.28751935061
0.174346527421462,3588.29751935061
0.164104907141009,3588.30751935061
0.153419829276418,3588.31751935061
0.142618078529627,3588.32751935061
0.131444236536393,3588.33751935061
0.120696228202534,3588.34751935061
0.110404125835248,3588.35751935061
0.102336731627074,3588.36751935061
0.0993496312526577,3588.37751935061
0.10408538385931,3588.38751935061
0.118412971049522,3588.39751935061
0.142910196361492,3588.40751935061
0.175173316588511,3588.41751935061
0.212867675520785,3588.42751935061
0.252721326999223,3588.43751935061
0.291222905962196,3588.44751935061
0.326850592780877,3588.45751935061
0.357603445624035,3588.46751935061
0.382743579581689,3588.47751935061
0.402400584334441,3588.48751935061
0.416499493279184,3588.49751935061
0.425987042774684,3588.50751935061
0.431683927038371,3588.51751935061
0.433885072927914,3588.52751935061
0.433458755072769,3588.53751935061
0.430842381435472,3588.54751935061
0.427168483189942,3588.55751935061
0.423096945916278,3588.56751935061
0.419020894230297,3588.57751935061
0.41415801097067,3588.58751935061
0.408083679737877,3588.59751935061
0.400115265752188,3588.60751935061
0.38953432606633,3588.61751935061
0.376452926111807,3588.62751935061
0.361387415251446,3588.63751935061
0.345262564057603,3588.64751935061
0.329285614599131,3588.65751935061
0.313954753607456,3588.66751935061
0.300746736988021,3588.67751935061
0.290352341917503,3588.68751935061
0.282921169098425,3588.69751935061
0.27916740347684,3588.70751935061
0.278187970529748,3588.71751935061
0.279184324879573,3588.72751935061
0.281096179973637,3588.73751935061
0.283366186433212,3588.74751935061
0.285018499941507,3588.75751935061
0.285107885898262,3588.76751935061
0.282860889109379,3588.77751935061
0.278878153724881,3588.78751935061
0.273893326303435,3588.79751935061
0.267642467469801,3588.80751935061
0.261242107579313,3588.81751935061
0.255015444875005,3588.82751935061
0.248839210870957,3588.83751935061
0.24313475742212,3588.84751935061
0.237515805422092,3588.85751935061
0.231191840379272,3588.86751935061
0.224830961132543,3588.87751935061
0.217602813976731,3588.88751935061
0.209143195940623,3588.89751935061
0.19916825592123,3588.90751935061
0.188590962252811,3588.91751935061
0.177500378938792,3588.92751935061
0.166518225376722,3588.93751935061
0.155040726410596,3588.94751935061
0.142951250731461,3588.95751935061
0.130150590387806,3588.96751935061
0.116470224014448,3588.97751935061
0.1024672684279,3588.98751935061
0.0874281775303406,3588.99751935061
0.0730563366436887,3589.00751935061
0.0589751108271765,3589.01751935061
0.047281698860978,3589.02751935061
0.0389268352675912,3589.03751935061
0.0373145200989213,3589.04751935061
0.045575600162964,3589.05751935061
0.0643249524204714,3589.06751935061
0.0927692408716421,3589.07751935061
0.128554926712003,3589.08751935061
0.168522689177422,3589.09751935061
0.209435917192737,3589.10751935061
0.248712489528516,3589.11751935061
0.28430352650471,3589.12751935061
0.3154106870358,3589.13751935061
0.340943346994538,3589.14751935061
0.360988402902917,3589.15751935061
0.37564603830706,3589.16751935061
0.385639332803824,3589.17751935061
0.391797248690175,3589.18751935061
0.394442830126359,3589.19751935061
0.394535807639018,3589.20751935061
0.392409097584883,3589.21751935061
0.388499751071505,3589.22751935061
0.384105301072475,3589.23751935061
0.379210091250084,3589.24751935061
0.373796950576293,3589.25751935061
0.367559906239659,3589.26751935061
0.360267994117533,3589.27751935061
0.351447678717444,3589.28751935061
0.340394911483049,3589.29751935061
0.327399780467842,3589.30751935061
0.313053334758857,3589.31751935061
0.297990194212134,3589.32751935061
0.283377340816131,3589.33751935061
0.270175096084287,3589.34751935061
0.259708647944915,3589.35751935061
0.251853271786598,3589.36751935061
0.246496390433647,3589.37751935061
0.243242192737427,3589.38751935061
0.241673708413761,3589.39751935061
0.241031247201008,3589.40751935061
0.241117370958228,3589.41751935061
0.240655020860441,3589.42751935061
0.239526080848288,3589.43751935061
0.236884260655609,3589.44751935061
0.232249106919085,3589.45751935061
0.226417356315917,3589.46751935061
0.219345491788137,3589.47751935061
0.211357742787807,3589.48751935061
0.202655953869094,3589.49751935061
0.192974249767657,3589.50751935061
0.182216693779143,3589.51751935061
0.170534079198169,3589.52751935061
0.158350753534208,3589.53751935061
0.146481818693611,3589.54751935061
0.13492267660718,3589.55751935061
0.12411964551387,3589.56751935061
0.113562250601522,3589.57751935061
0.103079995521605,3589.58751935061
0.0923811298898196,3589.59751935061
0.081674537730388,3589.60751935061
0.0705633894288144,3589.61751935061
0.0594666978712183,3589.62751935061
0.0485719365401258,3589.63751935061
0.0370615976589358,3589.64751935061
0.0257582083084608,3589.65751935061
0.0137621868268764,3589.66751935061
0.0021540236894501,3589.67751935061
-0.0089589753280027,3589.68751935061
-0.0201661428361207,3589.69751935061
-0.0296670518800054,3589.70751935061
-0.0353319745142668,3589.71751935061
-0.0337347731729394,3589.72751935061
-0.0224104552738983,3589.73751935061
-0.000244695598999709,3589.74751935061
0.0312506344341262,3589.75751935061
0.0696006358990496,3589.76751935061
0.111528538536894,3589.77751935061
0.153952855580576,3589.78751935061
0.194344891079432,3589.79751935061
0.231461930087423,3589.80751935061
0.26374178429887,3589.81751935061
0.290452285448716,3589.82751935061
0.311713131557005,3589.83751935061
0.327075231379386,3589.84751935061
0.337333735742947,3589.85751935061
0.343681652406758,3589.86751935061
0.346939986551425,3589.87751935061
0.347468677850461,3589.88751935061
0.346122460165052,3589.89751935061
0.34401082610002,3589.90751935061
0.341886762329218,3589.91751935061
0.339845540858144,3589.92751935061
0.337945766478593,3589.93751935061
0.334926345288236,3589.94751935061
0.330521964256918,3589.95751935061
0.323651025674574,3589.96751935061
0.313832734778491,3589.97751935061
0.301764636076482,3589.98751935061
0.288270880616647,3589.99751935061
0.274491919526955,3590.00751935061
0.261040978937171,3590.01751935061
0.249268831490031,3590.02751935061
0.239667947168311,3590.03751935061
0.232235724151461,3590.04751935061
0.227489240126794,3590.05751935061
0.224660925537622,3590.06751935061
0.223502125140621,3590.07751935061
0.22390132531156,3590.08751935061
0.224842593356942,3590.09751935061
0.225201930175679,3590.10751935061
0.224320450989485,3590.11751935061
0.22273138991553,3590.12751935061
0.21963351687952,3590.13751935061
0.214766018326617,3590.14751935061
0.20874032383249,3590.15751935061
0.20168852944835,3590.16751935061
0.193181854365674,3590.17751935061
0.184545853114676,3590.18751935061
0.174663158005742,3590.19751935061
0.164344323845651,3590.20751935061
0.153561572895726,3590.21751935061
0.142570294813442,3590.22751935061
0.131940137941866,3590.23751935061
0.121789945465478,3590.24751935061
0.111308330336927,3590.25751935061
0.101424649596162,3590.26751935061
0.0908025826904591,3590.27751935061
0.080227222412202,3590.28751935061
0.0697458954071176,3590.29751935061
0.0590948521916897,3590.30751935061
0.0490906050454582,3590.31751935061
0.038873438678862,3590.32751935061
0.0287484759174155,3590.33751935061
0.0191435639004179,3590.34751935061
0.00953262555937333,3590.35751935061
-0.000625839902348999,3590.36751935061
-0.011252311153617,3590.37751935061
-0.0218631461273733,3590.38751935061
-0.0328532819843656,3590.39751935061
-0.0425509424905883,3590.40751935061
-0.0501575691656338,3590.41751935061
-0.0517616013798512,3590.42751935061
-0.0445016992219284,3590.43751935061
-0.0262783660332112,3590.44751935061
0.00277803018233739,3590.45751935061
0.0394805558960454,3590.46751935061
0.0808245797690604,3590.47751935061
0.123494399015252,3590.48751935061
0.165430955222433,3590.49751935061
0.20447031248535,3590.50751935061
0.23941561473885,3590.51751935061
0.269211187362306,3590.52751935061
0.2936800238625,3590.53751935061
0.312561560379864,3590.54751935061
0.326206797109281,3590.55751935061
0.335430331376764,3590.56751935061
0.341364774068606,3590.57751935061
0.344231225517107,3590.58751935061
0.345357602035327,3590.59751935061
0.345311023274875,3590.60751935061
0.344516313848355,3590.61751935061
0.343308898406769,3590.62751935061
0.340969803953046,3590.63751935061
0.338139642069735,3590.64751935061
0.333682385508504,3590.65751935061
0.327473905855013,3590.66751935061
0.318921031856029,3590.67751935061
0.307556075249862,3590.68751935061
0.294626332863303,3590.69751935061
0.280551719227686,3590.70751935061
0.266658348179178,3590.71751935061
0.254117078211365,3590.72751935061
0.243728456272669,3590.73751935061
0.236099142959452,3590.74751935061
0.230962989389984,3590.75751935061
0.227420151992178,3590.76751935061
0.22520556064303,3590.77751935061
0.22409378096702,3590.78751935061
0.223442007867698,3590.79751935061
0.222533543889277,3590.80751935061
0.221456790602675,3590.81751935061
0.219262222105531,3590.82751935061
0.215793630705931,3590.83751935061
0.210544616254647,3590.84751935061
0.203578617434705,3590.85751935061
0.195742877540117,3590.86751935061
0.186878582510532,3590.87751935061
0.177486472192594,3590.88751935061
0.167736598560802,3590.89751935061
0.158197301777799,3590.90751935061
0.148615360068891,3590.91751935061
0.138987019725475,3590.92751935061
0.128479368076251,3590.93751935061
0.11790185968708,3590.94751935061
0.106916746374271,3590.95751935061
0.0957492625628832,3590.96751935061
0.0839997085298033,3590.97751935061
0.0723856165273044,3590.98751935061
0.0604663129191176,3590.99751935061
0.0489525735091167,3591.00751935061
0.0380381831227598,3591.01751935061
0.0270192133453674,3591.02751935061
0.0158042043329767,3591.03751935061
0.00499985168008342,3591.04751935061
-0.00565589232502132,3591.05751935061
-0.0165194327018215,3591.06751935061
-0.0264371682517978,3591.07751935061
-0.036265699903652,3591.08751935061
-0.0459044601721968,3591.09751935061
-0.056163268124635,3591.10751935061
-0.0663981299724508,3591.11751935061
-0.0767650990068737,3591.12751935061
-0.0878911170342136,3591.13751935061
-0.0989044344657464,3591.14751935061
-0.109786736011152,3591.15751935061
-0.119994257840088,3591.16751935061
-0.127453736669473,3591.17751935061
-0.12901861731677,3591.18751935061
-0.121687204803227,3591.19751935061
-0.103002757511648,3591.20751935061
-0.0742332017034132,3591.21751935061
-0.0378373079839728,3591.22751935061
0.00295020808347225,3591.23751935061
0.0448437007974088,3591.24751935061
0.0855314420532112,3591.25751935061
0.122352313762443,3591.26751935061
0.154869348681474,3591.27751935061
0.181902196247916,3591.28751935061
0.203081892527211,3591.29751935061
0.219033570071374,3591.30751935061
0.229930952576665,3591.31751935061
0.236201731504854,3591.32751935061
0.239326537688479,3591.33751935061
0.240136901249768,3591.34751935061
0.238548437954178,3591.35751935061
0.236040178616883,3591.36751935061
0.232213820172265,3591.37751935061
0.228204361740151,3591.38751935061
0.224166125251139,3591.39751935061
0.21926727190347,3591.40751935061
0.213366931823729,3591.41751935061
0.20606016629756,3591.42751935061
0.19638507479035,3591.43751935061
0.185235626178358,3591.44751935061
0.172475867125799,3591.45751935061
0.158968810976763,3591.46751935061
0.145979794850268,3591.47751935061
0.134222819768224,3591.48751935061
0.124030098694468,3591.49751935061
0.115774004601875,3591.50751935061
0.109782996812499,3591.51751935061
0.106686882166859,3591.52751935061
0.105018749658041,3591.53751935061
0.104899575402208,3591.54751935061
0.105506171877922,3591.55751935061
0.106104223573864,3591.56751935061
0.107497210771978,3591.57751935061
0.108172231516737,3591.58751935061
0.108009456863071,3591.59751935061
0.107124670647035,3591.60751935061
0.104848010857995,3591.61751935061
0.102282403992857,3591.62751935061
0.0983800298154601,3591.63751935061
0.0936770197727681,3591.64751935061
0.0877450013696714,3591.65751935061
0.0808543921094836,3591.66751935061
0.0736821144531093,3591.67751935061
0.0651590388180648,3591.68751935061
0.0560090774902349,3591.69751935061
0.0457911500685556,3591.70751935061
0.034302612231579,3591.71751935061
0.0226662062176218,3591.72751935061
0.0101024591106899,3591.73751935061
-0.00246199614911365,3591.74751935061
-0.0145090002243283,3591.75751935061
-0.0269931135851347,3591.76751935061
-0.0396251509117739,3591.77751935061
-0.0524393802374113,3591.78751935061
-0.0652693534387372,3591.79751935061
-0.0781393070486257,3591.80751935061
-0.0907792265754401,3591.81751935061
-0.103739469856535,3591.82751935061
-0.116067016604466,3591.83751935061
-0.127897684507475,3591.84751935061
-0.139588638029983,3591.85751935061
-0.150904133461601,3591.86751935061
-0.162477315774957,3591.87751935061
-0.173889694539043,3591.88751935061
-0.185015419789675,3591.89751935061
-0.19586084018336,3591.90751935061
-0.205954710101531,3591.91751935061
-0.215998635837384,3591.92751935061
-0.226240200545568,3591.93751935061
-0.236823690850249,3591.94751935061
-0.246568873506459,3591.95751935061
-0.253952318640745,3591.96751935061
-0.25588292832695,3591.97751935061
-0.249836687803988,3591.98751935061
-0.234013496098713,3591.99751935061
-0.209967690554719,3592.00751935061
-0.179720078902155,3592.01751935061
-0.146405791744551,3592.02751935061
-0.112682128809194,3592.03751935061
-0.0808373264198,3592.04751935061
-0.0531149216952412,3592.05751935061
-0.0294269079593746,3592.06751935061
-0.0112140844800342,3592.07751935061
0.00181750697428672,3592.08751935061
0.00963822313072957,3592.09751935061
0.0134709550877112,3592.10751935061
0.0146314884465385,3592.11751935061
0.0130377700568771,3592.12751935061
0.0100089109086631,3592.13751935061
0.00546256450690388,3592.14751935061
4.46563726697905e-05,3592.15751935061
-0.00608803381357371,3592.16751935061
-0.0127779003210393,3592.17751935061
-0.0199468594438994,3592.18751935061
-0.0277150103884716,3592.19751935061
-0.0363259882171627,3592.20751935061
-0.0465086394947113,3592.21751935061
-0.0578870745138196,3592.22751935061
-0.0705714570956053,3592.23751935061
-0.0838457337789375,3592.24751935061
-0.0962652122178146,3592.25751935061
-0.107422344848896,3592.26751935061
-0.116761784051785,3592.27751935061
-0.124282589258629,3592.28751935061
-0.128943286897097,3592.29751935061
-0.131935239896893,3592.30751935061
-0.133799800596353,3592.31751935061
-0.135081903150416,3592.32751935061
-0.136088713476012,3592.33751935061
-0.138077599321429,3592.34751935061
-0.140575375537265,3592.35751935061
-0.144024027779708,3592.36751935061
-0.148247108594023,3592.37751935061
-0.153064658787284,3592.38751935061
-0.158711658240746,3592.39751935061
-0.165099657667016,3592.40751935061
-0.17271253788563,3592.41751935061
-0.18077692214055,3592.42751935061
-0.189302308978472,3592.43751935061
-0.198150714259942,3592.44751935061
-0.20694408280969,3592.45751935061
-0.21630344874101,3592.46751935061
-0.225694802482201,3592.47751935061
-0.235488843273624,3592.48751935061
-0.246595423823274,3592.49751935061
-0.25873386223603,3592.50751935061
-0.272833213309594,3592.51751935061
-0.287735480242923,3592.52751935061
-0.303122451123381,3592.53751935061
-0.318274515093835,3592.54751935061
-0.332662120897587,3592.55751935061
-0.346012108314677,3592.56751935061
-0.358429986825547,3592.57751935061
-0.37069411953527,3592.58751935061
-0.382316740485835,3592.59751935061
-0.394058901388896,3592.60751935061
-0.406327025691765,3592.61751935061
-0.418704904538968,3592.62751935061
-0.431624012896162,3592.63751935061
-0.444385596953172,3592.64751935061
-0.456794578278021,3592.65751935061
-0.468695343088132,3592.66751935061
-0.479865146267679,3592.67751935061
-0.490632815352657,3592.68751935061
-0.500382038652408,3592.69751935061
-0.509491153678769,3592.70751935061
-0.518773826931893,3592.71751935061
-0.527801115759827,3592.72751935061
-0.537191880992815,3592.73751935061
-0.545170382350916,3592.74751935061
-0.54935896935828,3592.75751935061
-0.546943417745171,3592.76751935061
-0.535840427874402,3592.77751935061
-0.516709749210886,3592.78751935061
-0.490637342507663,3592.79751935061
-0.460703620834825,3592.80751935061
-0.42932815949158,3592.81751935061
-0.398399374016743,3592.82751935061
-0.369948633711369,3592.83751935061
-0.344884546577715,3592.84751935061
-0.324269854425492,3592.85751935061
-0.307831305585446,3592.86751935061
-0.295025577581162,3592.87751935061
-0.284688298920428,3592.88751935061
-0.276052404445476,3592.89751935061
-0.268021209544103,3592.90751935061
-0.259863671089834,3592.91751935061
-0.251510871256956,3592.92751935061
-0.242123264780777,3592.93751935061
-0.231516358749074,3592.94751935061
-0.219894383918596,3592.95751935061
-0.207205905833718,3592.96751935061
-0.1936854676804,3592.97751935061
-0.180834500025487,3592.98751935061
-0.170040423585844,3592.99751935061
-0.162649870659552,3593.00751935061
-0.159386978843442,3593.01751935061
-0.160305605690785,3593.02751935061
-0.164370768589409,3593.03751935061
-0.17024862995173,3593.04751935061
-0.177129655923524,3593.05751935061
-0.184105419635154,3593.06751935061
-0.190273203002217,3593.07751935061
-0.195806813392302,3593.08751935061
-0.200844117553767,3593.09751935061
-0.206100041378573,3593.10751935061
-0.211644460821062,3593.11751935061
-0.217174895966979,3593.12751935061
-0.223014301597088,3593.13751935061
-0.228772352614498,3593.14751935061
-0.235585275989846,3593.15751935061
-0.24328416513636,3593.16751935061
-0.252079280698518,3593.17751935061
-0.262484766105726,3593.18751935061
-0.273745931043433,3593.19751935061
-0.285879779309685,3593.20751935061
-0.297721617466596,3593.21751935061
-0.308776973023117,3593.22751935061
-0.319392199328547,3593.23751935061
-0.329806112579481,3593.24751935061
-0.339831155141286,3593.25751935061
-0.350073845121587,3593.26751935061
-0.36050673854349,3593.27751935061
-0.370794988982933,3593.28751935061
-0.380940646532667,3593.29751935061
-0.390536457656882,3593.30751935061
-0.399975767977916,3593.31751935061
-0.40839296247825,3593.32751935061
-0.416598896600783,3593.33751935061
-0.424238046657056,3593.34751935061
-0.4323551664542,3593.35751935061
-0.44107573789517,3593.36751935061
-0.449786924957301,3593.37751935061
-0.458914145542838,3593.38751935061
-0.468444874044952,3593.39751935061
-0.478585143604276,3593.40751935061
-0.48875577745936,3593.41751935061
-0.498915059272923,3593.42751935061
-0.508224705698315,3593.43751935061
-0.516856988352219,3593.44751935061
-0.525430690704113,3593.45751935061
-0.534625911335437,3593.46751935061
-0.54343552150866,3593.47751935061
-0.551003270773424,3593.48751935061
-0.556182222593853,3593.49751935061
-0.55702897433578,3593.50751935061
-0.552826432200151,3593.51751935061
-0.541862705349807,3593.52751935061
-0.523799877016054,3593.53751935061
-0.499908614411876,3593.54751935061
-0.471606896193539,3593.55751935061
-0.441857815295935,3593.56751935061
-0.412181319074038,3593.57751935061
-0.384459951012824,3593.58751935061
-0.359215832178266,3593.59751935061
-0.337518620545624,3593.60751935061
-0.319451143890724,3593.61751935061
-0.30561370140244,3593.62751935061
-0.295445167256734,3593.63751935061
-0.288811847051626,3593.64751935061
-0.285392441051855,3593.65751935061
-0.284347163079502,3593.66751935061
-0.285164420824128,3593.67751935061
-0.287416246079405,3593.68751935061
-0.290623544218389,3593.69751935061
-0.294231449056293,3593.70751935061
-0.298369427639189,3593.71751935061
-0.302880515995507,3593.72751935061
-0.308577025754654,3593.73751935061
-0.314711083516976,3593.74751935061
-0.321931895300803,3593.75751935061
-0.329093020522052,3593.76751935061
-0.336248014311161,3593.77751935061
-0.342254842038902,3593.78751935061
-0.346846292471241,3593.79751935061
-0.34924030898231,3593.80751935061
-0.349758379866562,3593.81751935061
-0.349407435808844,3593.82751935061
-0.347316596229505,3593.83751935061
-0.344173839844769,3593.84751935061
-0.340930889576667,3593.85751935061
-0.338066050208853,3593.86751935061
-0.33574293966995,3593.87751935061
-0.334640212438553,3593.88751935061
-0.333795832236939,3593.89751935061
-0.334029265504311,3593.90751935061
-0.334906672985486,3593.91751935061
-0.336719761122234,3593.92751935061
-0.339114380846899,3593.93751935061
-0.341990502018677,3593.94751935061
-0.346098607365702,3593.95751935061
-0.350493385406558,3593.96751935061
-0.355666346499,3593.97751935061
-0.361087789712432,3593.98751935061
-0.366987991301331,3593.99751935061
-0.372349401776829,3594.00751935061
-0.377754207960168,3594.01751935061
-0.383093552577808,3594.02751935061
-0.387867030544547,3594.03751935061
-0.392829011822321,3594.04751935061
-0.397995415785936,3594.05751935061
-0.403448847438619,3594.06751935061
-0.408782310519157,3594.07751935061
-0.413679455956809,3594.08751935061
-0.41799650846778,3594.09751935061
-0.42156292295143,3594.10751935061
-0.425070532734647,3594.11751935061
-0.427976345326665,3594.12751935061
-0.431408277532705,3594.13751935061
-0.435009137104873,3594.14751935061
-0.439461050719399,3594.15751935061
-0.444678183698864,3594.16751935061
-0.449782731996694,3594.17751935061
-0.454904837119413,3594.18751935061
-0.460368237690888,3594.19751935061
-0.465231023480321,3594.20751935061
-0.470073709753004,3594.21751935061
-0.473799857226056,3594.22751935061
-0.47615794533126,3594.23751935061
-0.475264014865154,3594.24751935061
-0.469002258080393,3594.25751935061
-0.455243299747427,3594.26751935061
-0.432846454845271,3594.27751935061
-0.403448706781134,3594.28751935061
-0.368250964981226,3594.29751935061
-0.330670207806388,3594.30751935061
-0.29216182377404,3594.31751935061
-0.255636560886084,3594.32751935061
-0.220862741129425,3594.33751935061
-0.19006315588712,3594.34751935061
-0.163954119183107,3594.35751935061
-0.14171617848183,3594.36751935061
-0.123185689397077,3594.37751935061
-0.108525520646365,3594.38751935061
-0.0973961957170681,3594.39751935061
-0.0893587814969893,3594.40751935061
-0.0841607675469512,3594.41751935061
-0.0813178486294752,3594.42751935061
-0.0802215476118474,3594.43751935061
-0.0796638862793118,3594.44751935061
-0.0795760719304255,3594.45751935061
-0.0799371041951444,3594.46751935061
-0.0809312690213918,3594.47751935061
-0.0830524279160439,3594.48751935061
-0.0864664143529029,3594.49751935061
-0.0914658544268901,3594.50751935061
-0.0971635178882518,3594.51751935061
-0.103955659260015,3594.52751935061
-0.110782121605949,3594.53751935061
-0.117814552326603,3594.54751935061
-0.123649814455182,3594.55751935061
-0.127890965364383,3594.56751935061
-0.130014544397375,3594.57751935061
-0.129525745855243,3594.58751935061
-0.12734160541501,3594.59751935061
-0.123820639628275,3594.60751935061
-0.118739945365505,3594.61751935061
-0.113277885026761,3594.62751935061
-0.107588072651397,3594.63751935061
-0.103024562687998,3594.64751935061
-0.0997019608109115,3594.65751935061
-0.0972197516179461,3594.66751935061
-0.095714936761486,3594.67751935061
-0.0949082003336854,3594.68751935061
-0.0948147499232935,3594.69751935061
-0.0961003528610791,3594.70751935061
-0.0982706412581224,3594.71751935061
-0.102374460215015,3594.72751935061
-0.107671157566262,3594.73751935061
-0.113714509160988,3594.74751935061
-0.12037472952312,3594.75751935061
-0.127220417011818,3594.76751935061
-0.133897184975272,3594.77751935061
-0.140478612171222,3594.78751935061
-0.147019453720478,3594.79751935061
-0.153641696819621,3594.80751935061
-0.160183793969338,3594.81751935061
-0.166752614696664,3594.82751935061
-0.173112710273925,3594.83751935061
-0.179509037751539,3594.84751935061
-0.185738044673649,3594.85751935061
-0.192344901445576,3594.86751935061
-0.199610735506436,3594.87751935061
-0.206944602781236,3594.88751935061
-0.214771584818575,3594.89751935061
-0.221806760045581,3594.90751935061
-0.228764168017821,3594.91751935061
-0.23506047290424,3594.92751935061
-0.241323848388578,3594.93751935061
-0.247305615456524,3594.94751935061
-0.253398437454504,3594.95751935061
-0.259679990686054,3594.96751935061
-0.265971874092743,3594.97751935061
-0.271179658629867,3594.98751935061
-0.274340133752716,3594.99751935061
-0.273023432032368,3595.00751935061
-0.265462026328303,3595.01751935061
-0.250080208791585,3595.02751935061
-0.226978911155344,3595.03751935061
-0.196695399295094,3595.04751935061
-0.162324783857727,3595.05751935061
-0.125099574020476,3595.06751935061
-0.0875551977993718,3595.07751935061
-0.0501856141897239,3595.08751935061
-0.0155498521919731,3595.09751935061
0.0156693778596648,3595.10751935061
0.0433518360167113,3595.11751935061
0.0662985141489301,3595.12751935061
0.0852406363214881,3595.13751935061
0.100444919825918,3595.14751935061
0.112139705942179,3595.15751935061
0.120307812887004,3595.16751935061
0.125513171018011,3595.17751935061
0.128787435715068,3595.18751935061
0.131101128224251,3595.19751935061
0.133081882057082,3595.20751935061
0.135021036881739,3595.21751935061
0.136364765238584,3595.22751935061
0.137075818398331,3595.23751935061
0.136357557163132,3595.24751935061
0.133907544812883,3595.25751935061
0.129704205073462,3595.26751935061
0.123042439809871,3595.27751935061
0.115356049311354,3595.28751935061
0.10700684689024,3595.29751935061
0.0989190874102831,3595.30751935061
0.0916090501340922,3595.31751935061
0.0857626775057403,3595.32751935061
0.0825080010470853,3595.33751935061
0.0809902038076014,3595.34751935061
0.0814331888842458,3595.35751935061
0.0834602069324949,3595.36751935061
0.0864528195163666,3595.37751935061
0.0895252923831467,3595.38751935061
0.0915569492311133,3595.39751935061
0.0921935576572246,3595.40751935061
0.0906469383102013,3595.41751935061
0.0872913645293234,3595.42751935061
0.0825370644937759,3595.43751935061
0.0772650002061543,3595.44751935061
0.07141003977394,3595.45751935061
0.0650667901713953,3595.46751935061
0.0582790161816574,3595.47751935061
0.0510934580384382,3595.48751935061
0.0434174361881201,3595.49751935061
0.0347176215456881,3595.50751935061
0.0258583274790264,3595.51751935061
0.0168009558831249,3595.52751935061
0.00721064264831085,3595.53751935061
-0.00249411261169216,3595.54751935061
-0.0120084062987011,3595.55751935061
-0.0213602351488357,3595.56751935061
-0.0298438792225937,3595.57751935061
-0.0379713945890646,3595.58751935061
-0.045570175210923,3595.59751935061
-0.0524943190071014,3595.60751935061
-0.0594964748176725,3595.61751935061
-0.0662049015334131,3595.62751935061
-0.0724454726080444,3595.63751935061
-0.0777214192190131,3595.64751935061
-0.0818363124338177,3595.65751935061
-0.085464835879075,3595.66751935061
-0.0881987701006474,3595.67751935061
-0.0917801180850916,3595.68751935061
-0.0968042147798368,3595.69751935061
-0.103754091219909,3595.70751935061
-0.112076243818985,3595.71751935061
-0.12182596171807,3595.72751935061
-0.13138634544096,3595.73751935061
-0.138679472007857,3595.74751935061
-0.141302897140362,3595.75751935061
-0.137367294737496,3595.76751935061
-0.12437913959518,3595.77751935061
-0.102557998717718,3595.78751935061
-0.072559433771625,3595.79751935061
-0.0366907029058769,3595.80751935061
0.00203137531679437,3595.81751935061
0.0415844272360586,3595.82751935061
0.0797198970472703,3595.83751935061
0.114636225210525,3595.84751935061
0.145943623074827,3595.85751935061
0.172271936346223,3595.86751935061
0.193424381923741,3595.87751935061
0.209326477476233,3595.88751935061
0.220003041132157,3595.89751935061
0.225908799386055,3595.90751935061
0.228050367443784,3595.91751935061
0.227929228084415,3595.92751935061
0.225729198363268,3595.93751935061
0.221885620301296,3595.94751935061
0.216810063124851,3595.95751935061
0.210551921544962,3595.96751935061
0.203550262914264,3595.97751935061
0.195172111902293,3595.98751935061
0.185313273525534,3595.99751935061
0.17352283348628,3596.00751935061
0.159145198257379,3596.01751935061
0.144185824184478,3596.02751935061
0.129394420580779,3596.03751935061
0.116125227703753,3596.04751935061
0.105687585688898,3596.05751935061
0.0981841185110766,3596.06751935061
0.0928586446987959,3596.07751935061
0.0905766616206365,3596.08751935061
0.0900555535015538,3596.09751935061
0.0914166260394076,3596.10751935061
0.094233106133425,3596.11751935061
0.0984437920598112,3596.12751935061
0.103606191420121,3596.13751935061
0.108206743423096,3596.14751935061
0.111622750969515,3596.15751935061
0.11276429682061,3596.16751935061
0.112178040436813,3596.17751935061
0.110290075860031,3596.18751935061
0.106772506518796,3596.19751935061
0.102418971535626,3596.20751935061
0.0972366176791248,3596.21751935061
0.0911059319224684,3596.22751935061
0.0843452161106701,3596.23751935061
0.0766443128186551,3596.24751935061
0.0677457872080332,3596.25751935061
0.0581771897513545,3596.26751935061
0.0482383018351494,3596.27751935061
0.0380272727082129,3596.28751935061
0.0278431227088554,3596.29751935061
0.0176128726180217,3596.30751935061
0.00745291957826533,3596.31751935061
-0.00240381850846585,3596.32751935061
-0.012026829100208,3596.33751935061
-0.0216469907788247,3596.34751935061
-0.0314127255690819,3596.35751935061
-0.0409726687909943,3596.36751935061
-0.0508933037730312,3596.37751935061
-0.0609290082269595,3596.38751935061
-0.0717080969322327,3596.39751935061
-0.0827109726995464,3596.40751935061
-0.0939408999028667,3596.41751935061
-0.105108220646753,3596.42751935061
-0.115856809307683,3596.43751935061
-0.127314704492474,3596.44751935061
-0.13901290327412,3596.45751935061
-0.149159308788015,3596.46751935061
-0.156809598715468,3596.47751935061
-0.159451216618444,3596.48751935061
-0.154127762893088,3596.49751935061
-0.139550554639509,3596.50751935061
-0.116609833629649,3596.51751935061
-0.0870875056989608,3596.52751935061
-0.0536453537503231,3596.53751935061
-0.018750598088944,3596.54751935061
0.0159368413524498,3596.55751935061
0.048691979708599,3596.56751935061
0.0788910254613074,3596.57751935061
0.104805713739704,3596.58751935061
0.126444557453713,3596.59751935061
0.143642636822289,3596.60751935061
0.155859997440868,3596.61751935061
0.163779164982613,3596.62751935061
0.167413855525161,3596.63751935061
0.168762803548514,3596.64751935061
0.169787911128137,3596.65751935061
0.171675400043899,3596.66751935061
0.174632816751499,3596.67751935061
0.179116048251982,3596.68751935061
0.183072758383905,3596.69751935061
0.184823149807593,3596.70751935061
0.183354317947172,3596.71751935061
0.178210057398137,3596.72751935061
0.169467166105071,3596.73751935061
0.157855320233012,3596.74751935061
0.145071934220696,3596.75751935061
0.133032134580556,3596.76751935061
0.122317805224673,3596.77751935061
0.114977490306533,3596.78751935061
0.110942285563056,3596.79751935061
0.110419978297826,3596.80751935061
0.11285633513291,3596.81751935061
0.117301320895705,3596.82751935061
0.123051232299384,3596.83751935061
0.12821007419461,3596.84751935061
0.132685588688143,3596.85751935061
0.135384319157985,3596.86751935061
0.135556655090601,3596.87751935061
0.132389962012053,3596.88751935061
0.125327547472979,3596.89751935061
0.115326959726543,3596.90751935061
0.103749228635827,3596.91751935061
0.0915336559324451,3596.92751935061
0.0796253502543331,3596.93751935061
0.0683303747198156,3596.94751935061
0.0576556641566397,3596.95751935061
0.0480812386834409,3596.96751935061
0.0386275414268307,3596.97751935061
0.0296106385905006,3596.98751935061
0.0212838506333376,3596.99751935061
0.0119407725095564,3597.00751935061
0.00293463867547804,3597.01751935061
-0.00617751397517115,3597.02751935061
-0.0150777414700706,3597.03751935061
-0.0238312719530519,3597.04751935061
-0.0326941181254508,3597.05751935061
-0.0412897942981343,3597.06751935061
-0.0494384085708682,3597.07751935061
-0.0573767298036894,3597.08751935061
-0.066356069739911,3597.09751935061
-0.0753914033159771,3597.10751935061
-0.0853256598359876,3597.11751935061
-0.0953835330826426,3597.12751935061
-0.105600668673597,3597.13751935061
-0.115867694472297,3597.14751935061
-0.124751529271187,3597.15751935061
-0.130563033043899,3597.16751935061
-0.131129195613897,3597.17751935061
-0.124582967604022,3597.18751935061
-0.109035983322193,3597.19751935061
-0.0850990272150657,3597.20751935061
-0.0544116847061036,3597.21751935061
-0.0193436940831725,3597.22751935061
0.0178407823607569,3597.23751935061
0.0554670958567144,3597.24751935061
0.0919414199715104,3597.25751935061
0.125375827669976,3597.26751935061
0.154677222312652,3597.27751935061
0.179364287976354,3597.28751935061
0.199167070995099,3597.29751935061
0.213974295046985,3597.30751935061
0.223632024798549,3597.31751935061
0.229260671611587,3597.32751935061
0.231376394503136,3597.33751935061
0.230745585328074,3597.34751935061
0.228237389485116,3597.35751935061
0.224871122328091,3597.36751935061
0.22120450986924,3597.37751935061
0.217267513832408,3597.38751935061
0.212818843153942,3597.39751935061
0.206888266668461,3597.40751935061
0.199463642377297,3597.41751935061
0.189926908203036,3597.42751935061
0.178737055859267,3597.43751935061
0.166698323025594,3597.44751935061
0.154803399454587,3597.45751935061
0.144158368120746,3597.46751935061
0.137074266801901,3597.47751935061
0.13282950716571,3597.48751935061
0.131665754759951,3597.49751935061
0.13302036350026,3597.50751935061
0.135718161521752,3597.51751935061
0.139381679942463,3597.52751935061
0.142739640732916,3597.53751935061
0.14607601571797,3597.54751935061
0.148486996352769,3597.55751935061
0.149570641024232,3597.56751935061
0.149625691880289,3597.57751935061
0.14726968583343,3597.58751935061
0.142832771066291,3597.59751935061
0.137000836159172,3597.60751935061
0.130486779935815,3597.61751935061
0.123257973384991,3597.62751935061
0.116247816083763,3597.63751935061
0.109310809051975,3597.64751935061
0.102006748240126,3597.65751935061
0.0942662514648044,3597.66751935061
0.0867877570236071,3597.67751935061
0.078709903021056,3597.68751935061
0.0698567611827362,3597.69751935061
0.0611933399245858,3597.70751935061
0.0524171619520253,3597.71751935061
0.0439176515605442,3597.72751935061
0.0350096926377846,3597.73751935061
0.026710809014182,3597.74751935061
0.0186033637826201,3597.75751935061
0.0101830919881383,3597.76751935061
0.00177558510650561,3597.77751935061
-0.00671705803060094,3597.78751935061
-0.0151497214073245,3597.79751935061
-0.0236639140839751,3597.80751935061
-0.0317603622917833,3597.81751935061
-0.0382624983997407,3597.82751935061
-0.0417909688519397,3597.83751935061
-0.0395092336472854,3597.84751935061
-0.0296125380419681,3597.85751935061
-0.0113641130118056,3597.86751935061
0.0149207762700033,3597.87751935061
0.0481707605418425,3597.88751935061
0.0855567548017589,3597.89751935061
0.125173226243952,3597.90751935061
0.165261799782075,3597.91751935061
