PPG,time
0.0561442913976738,2852.99088835158
0.109559845963992,2853.00088835158
0.0948613441299359,2853.01088835158
0.101238507211492,2853.02088835158
0.0963537184597035,2853.03088835158
0.0996790021556387,2853.04088835158
0.0988685958320354,2853.05088835158
0.101360283029301,2853.06088835158
0.101797515706542,2853.07088835158
0.103238468634989,2853.08088835158
0.103370026977578,2853.09088835158
0.103311357460096,2853.10088835158
0.102964889581278,2853.11088835158
0.102157408599787,2853.12088835158
0.100667935851769,2853.13088835158
0.0991565937951025,2853.14088835158
0.097017560070031,2853.15088835158
0.0945324380146983,2853.16088835158
0.0920801378925384,2853.17088835158
0.0896753657883715,2853.18088835158
0.0869334522634976,2853.19088835158
0.0841428692011256,2853.20088835158
0.0815740957465034,2853.21088835158
0.0792204372168184,2853.22088835158
0.0761334133693547,2853.23088835158
0.0731843169785936,2853.24088835158
0.0703653421573775,2853.25088835158
0.0679010032949607,2853.26088835158
0.0655359181069889,2853.27088835158
0.0626182428470789,2853.28088835158
0.0595084351207262,2853.29088835158
0.0565348523558321,2853.30088835158
0.0538436630424448,2853.31088835158
0.051270806542574,2853.32088835158
0.0485943346030602,2853.33088835158
0.0461551587202116,2853.34088835158
0.0439186397954013,2853.35088835158
0.0406901351445557,2853.36088835158
0.0374433554465128,2853.37088835158
0.033745079675823,2853.38088835158
0.0299886387843986,2853.39088835158
0.0264457131335358,2853.40088835158
0.0231988500245716,2853.41088835158
0.0201138610159972,2853.42088835158
0.0169655389048908,2853.43088835158
0.0140700244440653,2853.44088835158
0.0107794178970141,2853.45088835158
0.00760449151466985,2853.46088835158
0.00428490562736702,2853.47088835158
0.000703937582179218,2853.48088835158
-0.00293414458050257,2853.49088835158
-0.00684329598576998,2853.50088835158
-0.010416011177014,2853.51088835158
-0.0136531270059513,2853.52088835158
-0.0166074521729045,2853.53088835158
-0.0190096199277013,2853.54088835158
-0.0211932782384622,2853.55088835158
-0.0230861821172183,2853.56088835158
-0.0255839798565942,2853.57088835158
-0.0286073589031483,2853.58088835158
-0.0319827456497588,2853.59088835158
-0.0358661449122501,2853.60088835158
-0.0397699623889571,2853.61088835158
-0.0435973119478157,2853.62088835158
-0.046853913368013,2853.63088835158
-0.0492028077078362,2853.64088835158
-0.0507852947878784,2853.65088835158
-0.0505411842106086,2853.66088835158
-0.0485775552394002,2853.67088835158
-0.0428987294862634,2853.68088835158
-0.0333362207673255,2853.69088835158
-0.0194454548903428,2853.70088835158
-0.00137815719193583,2853.71088835158
0.0190809805118981,2853.72088835158
0.0408686408789318,2853.73088835158
0.061726938850145,2853.74088835158
0.0804418125537049,2853.75088835158
0.0961181417555509,2853.76088835158
0.109558390726366,2853.77088835158
0.120361716319815,2853.78088835158
0.128500605410439,2853.79088835158
0.134791798732167,2853.80088835158
0.139311117437507,2853.81088835158
0.142890714147659,2853.82088835158
0.145604295807048,2853.83088835158
0.148105448581582,2853.84088835158
0.150136412393629,2853.85088835158
0.152855955840092,2853.86088835158
0.156036607341968,2853.87088835158
0.160126487881771,2853.88088835158
0.164230307836403,2853.89088835158
0.168812721889565,2853.90088835158
0.173155457445319,2853.91088835158
0.177099679904758,2853.92088835158
0.180152724129797,2853.93088835158
0.182507559992734,2853.94088835158
0.18309081169906,2853.95088835158
0.182657617926194,2853.96088835158
0.180971274742141,2853.97088835158
0.178735021020153,2853.98088835158
0.176114521645368,2853.99088835158
0.173207699541333,2854.00088835158
0.170475845287045,2854.01088835158
0.168026129999001,2854.02088835158
0.16626574592238,2854.03088835158
0.165154325458548,2854.04088835158
0.164470391896191,2854.05088835158
0.164403898040631,2854.06088835158
0.164614557036794,2854.07088835158
0.165424986400223,2854.08088835158
0.166715730655062,2854.09088835158
0.168109842783206,2854.10088835158
0.1693481827378,2854.11088835158
0.170600276316928,2854.12088835158
0.17091016589499,2854.13088835158
0.170502791995008,2854.14088835158
0.169796708775145,2854.15088835158
0.168987183174068,2854.16088835158
0.168032706649705,2854.17088835158
0.166635500964776,2854.18088835158
0.165080469173357,2854.19088835158
0.162955528709092,2854.20088835158
0.160110373379108,2854.21088835158
0.157295331864111,2854.22088835158
0.154232758102319,2854.23088835158
0.150642523878506,2854.24088835158
0.147884985849415,2854.25088835158
0.144802804923014,2854.26088835158
0.14201574727038,2854.27088835158
0.138673698497849,2854.28088835158
0.135358236594577,2854.29088835158
0.132458125261195,2854.30088835158
0.129487297236627,2854.31088835158
0.126587946923857,2854.32088835158
0.123747447874039,2854.33088835158
0.120631760974782,2854.34088835158
0.117025545056549,2854.35088835158
0.113141592972468,2854.36088835158
0.10983593993761,2854.37088835158
0.106980954796672,2854.38088835158
0.103392653260444,2854.39088835158
0.100394554133217,2854.40088835158
0.0971860375043841,2854.41088835158
0.093829905466655,2854.42088835158
0.0906890888695382,2854.43088835158
0.0875328651093826,2854.44088835158
0.0843030486171258,2854.45088835158
0.0806498941245567,2854.46088835158
0.0766702650638366,2854.47088835158
0.0723172024905031,2854.48088835158
0.0683928238421873,2854.49088835158
0.065330588313782,2854.50088835158
0.0622692179610843,2854.51088835158
0.0599287519801967,2854.52088835158
0.0572261932460675,2854.53088835158
0.0542563198277236,2854.54088835158
0.0512710001299892,2854.55088835158
0.0483703431114094,2854.56088835158
0.0457376559919807,2854.57088835158
0.0431328890346633,2854.58088835158
0.0404597311475264,2854.59088835158
0.037259176822328,2854.60088835158
0.033557547561998,2854.61088835158
0.0294816506125762,2854.62088835158
0.0248725739415574,2854.63088835158
0.0208399136052786,2854.64088835158
0.017437893827352,2854.65088835158
0.0158896545372306,2854.66088835158
0.0163149256433643,2854.67088835158
0.0198315801540863,2854.68088835158
0.0266913815346191,2854.69088835158
0.0367430050583401,2854.70088835158
0.0511792981745022,2854.71088835158
0.0693118091120034,2854.72088835158
0.0890566444337538,2854.73088835158
0.110052572820115,2854.74088835158
0.130205747362657,2854.75088835158
0.14825503684161,2854.76088835158
0.16423412000927,2854.77088835158
0.177082337730985,2854.78088835158
0.187417929729075,2854.79088835158
0.195724546134642,2854.80088835158
0.202349490789812,2854.81088835158
0.207550938552935,2854.82088835158
0.212284435145944,2854.83088835158
0.2163959249591,2854.84088835158
0.220552402275127,2854.85088835158
0.225100029552302,2854.86088835158
0.229321561802634,2854.87088835158
0.233456416192565,2854.88088835158
0.23773911406936,2854.89088835158
0.241606355104863,2854.90088835158
0.245468557696377,2854.91088835158
0.249234322841798,2854.92088835158
0.25283965099886,2854.93088835158
0.256111799555556,2854.94088835158
0.258396490396404,2854.95088835158
0.259705860317836,2854.96088835158
0.259280178843039,2854.97088835158
0.257772750413474,2854.98088835158
0.255423753529927,2854.99088835158
0.252595643695038,2855.00088835158
0.249975204375997,2855.01088835158
0.24686513950855,2855.02088835158
0.244574000298081,2855.03088835158
0.242858672595381,2855.04088835158
0.241882328199893,2855.05088835158
0.241347765888861,2855.06088835158
0.241315930124386,2855.07088835158
0.242486127458677,2855.08088835158
0.244146330242728,2855.09088835158
0.245718803039438,2855.10088835158
0.247543946943521,2855.11088835158
0.249033313072704,2855.12088835158
0.249984338173601,2855.13088835158
0.250207149501514,2855.14088835158
0.249802183892283,2855.15088835158
0.248702330316565,2855.16088835158
0.247159091104138,2855.17088835158
0.245373988263613,2855.18088835158
0.24342084235394,2855.19088835158
0.240807645362794,2855.20088835158
0.238282128418093,2855.21088835158
0.235653679919752,2855.22088835158
0.232670330621365,2855.23088835158
0.229961897216975,2855.24088835158
0.226970920269337,2855.25088835158
0.224078647988818,2855.26088835158
0.221054726054456,2855.27088835158
0.217775196307763,2855.28088835158
0.214044565381046,2855.29088835158
0.210113376874286,2855.30088835158
0.206103014780792,2855.31088835158
0.2022648526831,2855.32088835158
0.198245107865761,2855.33088835158
0.194592348714564,2855.34088835158
0.190994498214364,2855.35088835158
0.187331161035056,2855.36088835158
0.184429793820826,2855.37088835158
0.181541742677574,2855.38088835158
0.178591043222592,2855.39088835158
0.175354975373744,2855.40088835158
0.171921296418976,2855.41088835158
0.16843279533708,2855.42088835158
0.164891621763912,2855.43088835158
0.16138898968108,2855.44088835158
0.158197813627655,2855.45088835158
0.154334882139381,2855.46088835158
0.150682244680949,2855.47088835158
0.14760473981692,2855.48088835158
0.144359620468419,2855.49088835158
0.140848639640202,2855.50088835158
0.137166785141035,2855.51088835158
0.133173539035145,2855.52088835158
0.12863308706647,2855.53088835158
0.12443481540471,2855.54088835158
0.120283362563955,2855.55088835158
0.116605068689174,2855.56088835158
0.113600895146972,2855.57088835158
0.110777924421967,2855.58088835158
0.107918485020186,2855.59088835158
0.10460595365734,2855.60088835158
0.101274096009441,2855.61088835158
0.0980566203616865,2855.62088835158
0.0942479814489273,2855.63088835158
0.0900817843554833,2855.64088835158
0.0867324924316328,2855.65088835158
0.0832040618554012,2855.66088835158
0.0801084005741037,2855.67088835158
0.0782556070702288,2855.68088835158
0.0774739293860414,2855.69088835158
0.0800108035623509,2855.70088835158
0.0860967713302806,2855.71088835158
0.0968942329749397,2855.72088835158
0.111212449704461,2855.73088835158
0.12919942339145,2855.74088835158
0.149567114530526,2855.75088835158
0.170742563670754,2855.76088835158
0.191138520779547,2855.77088835158
0.209724786498607,2855.78088835158
0.225430728733264,2855.79088835158
0.238631905032362,2855.80088835158
0.248896983670892,2855.81088835158
0.257385753168805,2855.82088835158
0.264583544456103,2855.83088835158
0.270229915700531,2855.84088835158
0.275008301764492,2855.85088835158
0.278002916360727,2855.86088835158
0.280112701549084,2855.87088835158
0.281788865562946,2855.88088835158
0.283903746078333,2855.89088835158
0.286516068852942,2855.90088835158
0.289869231922074,2855.91088835158
0.293726152208279,2855.92088835158
0.297798824599013,2855.93088835158
0.301298066086582,2855.94088835158
0.303992913904489,2855.95088835158
0.305224118740654,2855.96088835158
0.305545320229513,2855.97088835158
0.305140627961456,2855.98088835158
0.303643435598064,2855.99088835158
0.30177344138714,2856.00088835158
0.299377405882703,2856.01088835158
0.296794543420114,2856.02088835158
0.294091343516905,2856.03088835158
0.291747917978938,2856.04088835158
0.290325542024545,2856.05088835158
0.289224605762393,2856.06088835158
0.289567484295596,2856.07088835158
0.290657096117456,2856.08088835158
0.291810310382466,2856.09088835158
0.293682770927894,2856.10088835158
0.295235982484811,2856.11088835158
0.296353480845123,2856.12088835158
0.297257719303189,2856.13088835158
0.297594550018977,2856.14088835158
0.297447986799582,2856.15088835158
0.296723572406106,2856.16088835158
0.295545043570722,2856.17088835158
0.294285050749751,2856.18088835158
0.292910662113312,2856.19088835158
0.29087498542788,2856.20088835158
0.288406711722014,2856.21088835158
0.285996096754584,2856.22088835158
0.283020593300799,2856.23088835158
0.279967729912415,2856.24088835158
0.276561862084315,2856.25088835158
0.272872181933369,2856.26088835158
0.269760176631444,2856.27088835158
0.266938571535246,2856.28088835158
0.264155796033602,2856.29088835158
0.261526907294166,2856.30088835158
0.258761896682592,2856.31088835158
0.255515450743698,2856.32088835158
0.252460516857186,2856.33088835158
0.248668047939627,2856.34088835158
0.245041372646506,2856.35088835158
0.241314702685964,2856.36088835158
0.237469649745696,2856.37088835158
0.233954472564985,2856.38088835158
0.22984883419104,2856.39088835158
0.226603871956291,2856.40088835158
0.222935968651641,2856.41088835158
0.219703264371641,2856.42088835158
0.216794232039091,2856.43088835158
0.21349526305916,2856.44088835158
0.210805903470265,2856.45088835158
0.207484212067326,2856.46088835158
0.20399710221947,2856.47088835158
0.20012959075611,2856.48088835158
0.19660695185123,2856.49088835158
0.192630358994331,2856.50088835158
0.18888227189593,2856.51088835158
0.185188878490512,2856.52088835158
0.181942097777418,2856.53088835158
0.179165975236404,2856.54088835158
0.176339735968628,2856.55088835158
0.173134426937993,2856.56088835158
0.170190058363729,2856.57088835158
0.166763392134954,2856.58088835158
0.163745643178998,2856.59088835158
0.16032495884489,2856.60088835158
0.157457153194612,2856.61088835158
0.153980082177412,2856.62088835158
0.150619611246291,2856.63088835158
0.147703572085168,2856.64088835158
0.145406534106156,2856.65088835158
0.144870648302743,2856.66088835158
0.1471445967368,2856.67088835158
0.152548603309282,2856.68088835158
0.16219717199414,2856.69088835158
0.176242451659838,2856.70088835158
0.1942316294339,2856.71088835158
0.214829682294325,2856.72088835158
0.236338376950618,2856.73088835158
0.257354481498106,2856.74088835158
0.276663395713143,2856.75088835158
0.293429515555074,2856.76088835158
0.307572515661935,2856.77088835158
0.318750259967667,2856.78088835158
0.328140062208102,2856.79088835158
0.335244867523026,2856.80088835158
0.340952227103209,2856.81088835158
0.345806815094904,2856.82088835158
0.349782491235451,2856.83088835158
0.3540488050259,2856.84088835158
0.358093168711243,2856.85088835158
0.362685686551377,2856.86088835158
0.367711677060716,2856.87088835158
0.373790982394032,2856.88088835158
0.379609131880409,2856.89088835158
0.385226102550859,2856.90088835158
0.390881327018584,2856.91088835158
0.395344585414775,2856.92088835158
0.399247852361161,2856.93088835158
0.401598819791746,2856.94088835158
0.402859911903138,2856.95088835158
0.402875347935692,2856.96088835158
0.401792242825351,2856.97088835158
0.4000513481183,2856.98088835158
0.397691823694491,2856.99088835158
0.394572666567076,2857.00088835158
0.391218320801608,2857.01088835158
0.3880814542565,2857.02088835158
0.385876042434621,2857.03088835158
0.384140354211326,2857.04088835158
0.383663554907151,2857.05088835158
0.383410186884824,2857.06088835158
0.383430743730845,2857.07088835158
0.383769818992762,2857.08088835158
0.384176441662083,2857.09088835158
0.384574491494547,2857.10088835158
0.385399203086204,2857.11088835158
0.386067791520901,2857.12088835158
0.386349019811306,2857.13088835158
0.385862650735309,2857.14088835158
0.384508013426733,2857.15088835158
0.382698581575682,2857.16088835158
0.38010517716062,2857.17088835158
0.377041191596404,2857.18088835158
0.373335973890649,2857.19088835158
0.368783847844076,2857.20088835158
0.363785070128998,2857.21088835158
0.359119889333562,2857.22088835158
0.354482703999466,2857.23088835158
0.350348223528083,2857.24088835158
0.346103680796612,2857.25088835158
0.342116128739965,2857.26088835158
0.338251424246523,2857.27088835158
0.334093778789464,2857.28088835158
0.330159486411945,2857.29088835158
0.326276627232656,2857.30088835158
0.322481679321379,2857.31088835158
0.31922955264399,2857.32088835158
0.315867736615819,2857.33088835158
0.312117787650691,2857.34088835158
0.307857457442416,2857.35088835158
0.303550748635349,2857.36088835158
0.299267470271052,2857.37088835158
0.295186663960777,2857.38088835158
0.290948348402607,2857.39088835158
0.286341715184216,2857.40088835158
0.282194994005463,2857.41088835158
0.278206886689825,2857.42088835158
0.274402017396416,2857.43088835158
0.270296131106709,2857.44088835158
0.265987710147706,2857.45088835158
0.262021545635878,2857.46088835158
0.257989160945427,2857.47088835158
0.254192546154958,2857.48088835158
0.250295076574569,2857.49088835158
0.24606156802153,2857.50088835158
0.241798660616241,2857.51088835158
0.237558422550901,2857.52088835158
0.232643493760292,2857.53088835158
0.228211113928904,2857.54088835158
0.224099155324694,2857.55088835158
0.220028939072356,2857.56088835158
0.216224187485841,2857.57088835158
0.21210093793685,2857.58088835158
0.208121508205383,2857.59088835158
0.203670945796715,2857.60088835158
0.199467333243688,2857.61088835158
0.195102966858951,2857.62088835158
0.191090077350586,2857.63088835158
0.187432706021317,2857.64088835158
0.183412619533059,2857.65088835158
0.179797529767951,2857.66088835158
0.175725079413743,2857.67088835158
0.171797347578968,2857.68088835158
0.167630631531213,2857.69088835158
0.163396838240874,2857.70088835158
0.159668865670821,2857.71088835158
0.157328358441229,2857.72088835158
0.156713626102048,2857.73088835158
0.159459421927973,2857.74088835158
0.166115351783096,2857.75088835158
0.177695231029548,2857.76088835158
0.194734130740027,2857.77088835158
0.215145270719798,2857.78088835158
0.237952220321494,2857.79088835158
0.261266062133964,2857.80088835158
0.283391839482066,2857.81088835158
0.30312232913494,2857.82088835158
0.319727799152426,2857.83088835158
0.333634860742048,2857.84088835158
0.344923049108536,2857.85088835158
0.353773284780599,2857.86088835158
0.360962216287571,2857.87088835158
0.366619834278012,2857.88088835158
0.372062864488609,2857.89088835158
0.376483868177357,2857.90088835158
0.381057162093,2857.91088835158
0.385632529231621,2857.92088835158
0.3899900443117,2857.93088835158
0.39499267749403,2857.94088835158
0.400163049939252,2857.95088835158
0.405427119322275,2857.96088835158
0.410795743454333,2857.97088835158
0.41555069345959,2857.98088835158
0.419755395174488,2857.99088835158
0.4231693827608,2858.00088835158
0.425751177716907,2858.01088835158
0.42686274496749,2858.02088835158
0.426953756753451,2858.03088835158
0.425106214888188,2858.04088835158
0.422544212354112,2858.05088835158
0.419107960600409,2858.06088835158
0.415255010446822,2858.07088835158
0.411120065605258,2858.08088835158
0.40744106135797,2858.09088835158
0.404221186655373,2858.10088835158
0.401960244107896,2858.11088835158
0.400571031801153,2858.12088835158
0.399336941614978,2858.13088835158
0.399007950326477,2858.14088835158
0.39899241727464,2858.15088835158
0.399107497460727,2858.16088835158
0.399098016469339,2858.17088835158
0.398983793667076,2858.18088835158
0.398245622735033,2858.19088835158
0.397294038185697,2858.20088835158
0.395995915940563,2858.21088835158
0.39404727687718,2858.22088835158
0.39197023362114,2858.23088835158
0.389101442887563,2858.24088835158
0.385805860734975,2858.25088835158
0.38203367986273,2858.26088835158
0.378295467830836,2858.27088835158
0.374563093086256,2858.28088835158
0.370332027111544,2858.29088835158
0.366180144930006,2858.30088835158
0.361653134884422,2858.31088835158
0.357295488585895,2858.32088835158
0.353084460306241,2858.33088835158
0.348655761423739,2858.34088835158
0.344004729489603,2858.35088835158
0.338693017378584,2858.36088835158
0.333301553927772,2858.37088835158
0.328121807262604,2858.38088835158
0.322978442949262,2858.39088835158
0.317774474490015,2858.40088835158
0.312410942508239,2858.41088835158
0.307604434653788,2858.42088835158
0.302807208367396,2858.43088835158
0.298458292430122,2858.44088835158
0.293637439491075,2858.45088835158
0.289285947007617,2858.46088835158
0.285115250917577,2858.47088835158
0.281322065944532,2858.48088835158
0.277274251279939,2858.49088835158
0.273640855411115,2858.50088835158
0.270009651857899,2858.51088835158
0.265853874575073,2858.52088835158
0.261408928882282,2858.53088835158
0.256774737570647,2858.54088835158
0.251803659228724,2858.55088835158
0.246808634759863,2858.56088835158
0.241621307287694,2858.57088835158
0.23676600047081,2858.58088835158
0.232256988143934,2858.59088835158
0.227737882408736,2858.60088835158
0.223544405316257,2858.61088835158
0.219231437532776,2858.62088835158
0.214726250792464,2858.63088835158
0.210439229020973,2858.64088835158
0.206204304521393,2858.65088835158
0.201791945333452,2858.66088835158
0.196966146452994,2858.67088835158
0.191983397373017,2858.68088835158
0.186882551550949,2858.69088835158
0.182178875335117,2858.70088835158
0.177880490331446,2858.71088835158
0.173588351023159,2858.72088835158
0.169093623638515,2858.73088835158
0.164687097889414,2858.74088835158
0.160275380986259,2858.75088835158
0.155776307833683,2858.76088835158
0.150973164199891,2858.77088835158
0.146636786600173,2858.78088835158
0.141950799749292,2858.79088835158
0.137679030864517,2858.80088835158
0.133077994955371,2858.81088835158
0.128921606026068,2858.82088835158
0.124445260029461,2858.83088835158
0.119863312715275,2858.84088835158
0.115239973501723,2858.85088835158
0.109809565205686,2858.86088835158
0.104477352079812,2858.87088835158
0.099540473044684,2858.88088835158
0.0951978420716225,2858.89088835158
0.0930734464247362,2858.90088835158
0.0939472202981753,2858.91088835158
0.099309634405061,2858.92088835158
0.109498287155413,2858.93088835158
0.124902302221472,2858.94088835158
0.144561360432264,2858.95088835158
0.166001296326602,2858.96088835158
0.188785059125152,2858.97088835158
0.210315105453327,2858.98088835158
0.230590549691291,2858.99088835158
0.248011462291789,2859.00088835158
0.262534571302554,2859.01088835158
0.274147762542733,2859.02088835158
0.283321063540517,2859.03088835158
0.290506361523232,2859.04088835158
0.296138702855939,2859.05088835158
0.300312787910391,2859.06088835158
0.303802212800384,2859.07088835158
0.306189036275296,2859.08088835158
0.308294039649974,2859.09088835158
0.310210420667037,2859.10088835158
0.312866352768744,2859.11088835158
0.315838862979094,2859.12088835158
0.318956576882014,2859.13088835158
0.322606524053673,2859.14088835158
0.326199410345144,2859.15088835158
0.32923696854286,2859.16088835158
0.331898830700148,2859.17088835158
0.333647034323579,2859.18088835158
0.334681715099515,2859.19088835158
0.333961981073313,2859.20088835158
0.331598136192977,2859.21088835158
0.328577439756625,2859.22088835158
0.324858084508079,2859.23088835158
0.320495144734969,2859.24088835158
0.316948680877671,2859.25088835158
0.313654164366145,2859.26088835158
0.310721428279224,2859.27088835158
0.308957149787494,2859.28088835158
0.307909452323489,2859.29088835158
0.307483563307218,2859.30088835158
0.307567242128542,2859.31088835158
0.308581308497821,2859.32088835158
0.309203096515332,2859.33088835158
0.31029694311655,2859.34088835158
0.310854359689945,2859.35088835158
0.310571154864297,2859.36088835158
0.309849800952211,2859.37088835158
0.308012309965539,2859.38088835158
0.306742151260547,2859.39088835158
0.304783844602815,2859.40088835158
0.302447280062701,2859.41088835158
0.299154467535656,2859.42088835158
0.295045548876744,2859.43088835158
0.290611582639972,2859.44088835158
0.285585548006706,2859.45088835158
0.281133900471397,2859.46088835158
0.276767678525164,2859.47088835158
0.2724933834228,2859.48088835158
0.268027498098429,2859.49088835158
0.263204563188304,2859.50088835158
0.258920169610518,2859.51088835158
0.254187817821986,2859.52088835158
0.250594618638842,2859.53088835158
0.246626089225994,2859.54088835158
0.243469613541093,2859.55088835158
0.239937478162619,2859.56088835158
0.236392538108489,2859.57088835158
0.232943263215603,2859.58088835158
0.229301333816523,2859.59088835158
0.225311748577349,2859.60088835158
0.220856212726911,2859.61088835158
0.216052903635165,2859.62088835158
0.210393395904265,2859.63088835158
0.205083708401122,2859.64088835158
0.200068302058624,2859.65088835158
0.195038098052502,2859.66088835158
0.190185085027298,2859.67088835158
0.185942002463347,2859.68088835158
0.182120637629665,2859.69088835158
0.178774006054611,2859.70088835158
0.174860284735556,2859.71088835158
0.170905732341232,2859.72088835158
0.16685315326186,2859.73088835158
0.162207114347888,2859.74088835158
0.157809414750497,2859.75088835158
0.152884987259266,2859.76088835158
0.148126977135713,2859.77088835158
0.14334863471821,2859.78088835158
0.138863007852939,2859.79088835158
0.134125380731977,2859.80088835158
0.129430445410261,2859.81088835158
0.124833344809445,2859.82088835158
0.120802006461067,2859.83088835158
0.116542007877084,2859.84088835158
0.112631938003685,2859.85088835158
0.108854433318218,2859.86088835158
0.104631829362421,2859.87088835158
0.100464748828511,2859.88088835158
0.0961519465792477,2859.89088835158
0.0917853940444052,2859.90088835158
0.0873551811561651,2859.91088835158
0.0828971111412493,2859.92088835158
0.0782349349608238,2859.93088835158
0.0734455387374559,2859.94088835158
0.0690701473798989,2859.95088835158
0.0646226354849171,2859.96088835158
0.060488455987849,2859.97088835158
0.0557521653282207,2859.98088835158
0.0509303809907868,2859.99088835158
0.0459489216572992,2860.00088835158
0.0419941234163987,2860.01088835158
0.0387125226862449,2860.02088835158
0.0368445324941778,2860.03088835158
0.0377108540609191,2860.04088835158
0.0425833630083575,2860.05088835158
0.0520410629085697,2860.06088835158
0.0665549656274982,2860.07088835158
0.084939669917724,2860.08088835158
0.106150216576722,2860.09088835158
0.128504499121606,2860.10088835158
0.149612738750367,2860.11088835158
0.168647351674917,2860.12088835158
0.185013275437145,2860.13088835158
0.198813338603848,2860.14088835158
0.210351148996351,2860.15088835158
0.219075983542417,2860.16088835158
0.226236306881611,2860.17088835158
0.230920082180276,2860.18088835158
0.234563908236527,2860.19088835158
0.237480199382097,2860.20088835158
0.239477296507329,2860.21088835158
0.241726239659471,2860.22088835158
0.244130772138596,2860.23088835158
0.246520194163224,2860.24088835158
0.249387443639846,2860.25088835158
0.253038320600702,2860.26088835158
0.256793836310674,2860.27088835158
0.260607702187286,2860.28088835158
0.264176965662727,2860.29088835158
0.266647797946335,2860.30088835158
0.268067703438195,2860.31088835158
0.267323973715319,2860.32088835158
0.265905151508199,2860.33088835158
0.263150585681769,2860.34088835158
0.259371744934817,2860.35088835158
0.254963813303358,2860.36088835158
0.250303270840826,2860.37088835158
0.246336872482419,2860.38088835158
0.24243658948453,2860.39088835158
0.239165912672374,2860.40088835158
0.236708019628947,2860.41088835158
0.235645296729581,2860.42088835158
0.234467744612454,2860.43088835158
0.23359108305988,2860.44088835158
0.233245202916183,2860.45088835158
0.232746885342541,2860.46088835158
0.233092830783325,2860.47088835158
0.233757030658105,2860.48088835158
0.234536617075972,2860.49088835158
0.234805796164477,2860.50088835158
0.234625509216712,2860.51088835158
0.233216126089951,2860.52088835158
0.23117251905915,2860.53088835158
0.228419005200064,2860.54088835158
0.224815987611657,2860.55088835158
0.22086457389357,2860.56088835158
0.216519223909522,2860.57088835158
0.2123078300852,2860.58088835158
0.208196955382256,2860.59088835158
0.204004648505306,2860.60088835158
0.199757872163863,2860.61088835158
0.194924854679561,2860.62088835158
0.190464444686017,2860.63088835158
0.185888715549618,2860.64088835158
0.181451682021097,2860.65088835158
0.177158154365075,2860.66088835158
0.173075262505823,2860.67088835158
0.16889890512975,2860.68088835158
0.164895601012958,2860.69088835158
0.160311246453363,2860.70088835158
0.156037682887389,2860.71088835158
0.151590212286952,2860.72088835158
0.147330220724409,2860.73088835158
0.143166463340652,2860.74088835158
0.139029718677979,2860.75088835158
0.135018439550719,2860.76088835158
0.130756846443117,2860.77088835158
0.126761159150934,2860.78088835158
0.122479748737187,2860.79088835158
0.118802445944644,2860.80088835158
0.114620119327564,2860.81088835158
0.110561185555087,2860.82088835158
0.106675698617309,2860.83088835158
0.10285629754316,2860.84088835158
0.0986232506791894,2860.85088835158
0.0945000988654434,2860.86088835158
0.0904455392728048,2860.87088835158
0.085866746630552,2860.88088835158
0.0814099433721396,2860.89088835158
0.0771341021349313,2860.90088835158
0.072731741346842,2860.91088835158
0.0683854299028727,2860.92088835158
0.0637491572167206,2860.93088835158
0.0590268220066065,2860.94088835158
0.053812421816965,2860.95088835158
0.0486678138813615,2860.96088835158
0.0439471042287838,2860.97088835158
0.0395426106257678,2860.98088835158
0.0351025958291795,2860.99088835158
0.0311153056933759,2861.00088835158
0.0265666165954111,2861.01088835158
0.0214809659476802,2861.02088835158
0.0160519507702126,2861.03088835158
0.0104911305437904,2861.04088835158
0.00551727593055196,2861.05088835158
0.000436997581042369,2861.06088835158
-0.00376316337811507,2861.07088835158
-0.0078218642924279,2861.08088835158
-0.0114823755089298,2861.09088835158
-0.0152117502358579,2861.10088835158
-0.0196884664607351,2861.11088835158
-0.0237590871249005,2861.12088835158
-0.028454985165088,2861.13088835158
-0.0328780710751062,2861.14088835158
-0.0372643055533003,2861.15088835158
-0.0414757055123092,2861.16088835158
-0.0450592710088708,2861.17088835158
-0.0481227025289962,2861.18088835158
-0.0502907290228914,2861.19088835158
-0.0507622239998567,2861.20088835158
-0.0479423885521155,2861.21088835158
-0.0406622791579648,2861.22088835158
-0.0285093741590273,2861.23088835158
-0.0114393638567684,2861.24088835158
0.00928271059039784,2861.25088835158
0.0317502793266607,2861.26088835158
0.0548147913119424,2861.27088835158
0.0760529229948043,2861.28088835158
0.0946914230868637,2861.29088835158
0.109697367317568,2861.30088835158
0.121815721363069,2861.31088835158
0.131338363532777,2861.32088835158
0.137830242180662,2861.33088835158
0.142628765610113,2861.34088835158
0.145959078599445,2861.35088835158
0.148441573784978,2861.36088835158
0.151249939975965,2861.37088835158
0.153675924947826,2861.38088835158
0.156597073201333,2861.39088835158
0.159363318049829,2861.40088835158
0.162418979256392,2861.41088835158
0.165425416812146,2861.42088835158
0.169063025490643,2861.43088835158
0.172694988216664,2861.44088835158
0.176581677804392,2861.45088835158
0.18022883043573,2861.46088835158
0.18307621099448,2861.47088835158
0.18508913474547,2861.48088835158
0.186149859649459,2861.49088835158
0.185757700768835,2861.50088835158
0.183974108278275,2861.51088835158
0.180855917537207,2861.52088835158
0.176401863581939,2861.53088835158
0.172013160330519,2861.54088835158
0.167994186261111,2861.55088835158
0.164709787703665,2861.56088835158
0.162734894947983,2861.57088835158
0.161901629630253,2861.58088835158
0.161094221966338,2861.59088835158
0.160341486601239,2861.60088835158
0.159709787611394,2861.61088835158
0.159615529549513,2861.62088835158
0.159808264807057,2861.63088835158
0.159806539543502,2861.64088835158
0.159983644952664,2861.65088835158
0.159722084896539,2861.66088835158
0.158934298947826,2861.67088835158
0.157872957472393,2861.68088835158
0.156065802737211,2861.69088835158
0.1540432793479,2861.70088835158
0.151312676214538,2861.71088835158
0.148275431625673,2861.72088835158
0.145291828304335,2861.73088835158
0.14176859858952,2861.74088835158
0.138374025859589,2861.75088835158
0.1346620467144,2861.76088835158
0.130654548741601,2861.77088835158
0.126686674634844,2861.78088835158
0.122509833729781,2861.79088835158
0.118182488603759,2861.80088835158
0.113827937294255,2861.81088835158
0.109863309093953,2861.82088835158
0.105491936776973,2861.83088835158
0.100938126128204,2861.84088835158
0.0967386135707739,2861.85088835158
0.0924894387732146,2861.86088835158
0.0881681477535857,2861.87088835158
0.0845559523523108,2861.88088835158
0.0811836663734401,2861.89088835158
0.0778360160176649,2861.90088835158
0.0739111802608913,2861.91088835158
0.069441157808518,2861.92088835158
0.065206132110081,2861.93088835158
0.0609889763166223,2861.94088835158
0.0571416045172302,2861.95088835158
0.0534590088541034,2861.96088835158
0.0497520267553956,2861.97088835158
0.0458894252045606,2861.98088835158
0.0415797792635346,2861.99088835158
0.0370838724255052,2862.00088835158
0.0324366441375519,2862.01088835158
0.0276357430374058,2862.02088835158
0.0228520600615218,2862.03088835158
0.018018579459456,2862.04088835158
0.0135493157108199,2862.05088835158
0.00890516714051467,2862.06088835158
0.00506501831540478,2862.07088835158
0.00113816876687416,2862.08088835158
-0.00224483700963074,2862.09088835158
-0.00568821863570053,2862.10088835158
-0.00921945877763624,2862.11088835158
-0.0128711852998728,2862.12088835158
-0.0167976322365427,2862.13088835158
-0.0209410546838719,2862.14088835158
-0.025104452427057,2862.15088835158
-0.0294968038879151,2862.16088835158
-0.0339448268799494,2862.17088835158
-0.0383200653605707,2862.18088835158
-0.0428485236561862,2862.19088835158
-0.0473361137520095,2862.20088835158
-0.0519619596194387,2862.21088835158
-0.0569774655399205,2862.22088835158
-0.0614535501092526,2862.23088835158
-0.0657756548805703,2862.24088835158
-0.0696275858737597,2862.25088835158
-0.0731518738728931,2862.26088835158
-0.0763633962217127,2862.27088835158
-0.0796053789867469,2862.28088835158
-0.0826682136625246,2862.29088835158
-0.0859726738006776,2862.30088835158
-0.0896537228713569,2862.31088835158
-0.0936851365158495,2862.32088835158
-0.0980894602094914,2862.33088835158
-0.102558621745892,2862.34088835158
-0.107101962556712,2862.35088835158
-0.111460471832325,2862.36088835158
-0.115787551512585,2862.37088835158
-0.119844672546807,2862.38088835158
-0.123450432675316,2862.39088835158
-0.125525497720622,2862.40088835158
-0.124881887416725,2862.41088835158
-0.120992431145397,2862.42088835158
-0.112745821789285,2862.43088835158
-0.100076715121593,2862.44088835158
-0.0832275225174026,2862.45088835158
-0.0629037609239097,2862.46088835158
-0.040977057221991,2862.47088835158
-0.018730780312236,2862.48088835158
0.00173297168108472,2862.49088835158
0.0199130550584692,2862.50088835158
0.0355029665968994,2862.51088835158
0.0482353639761502,2862.52088835158
0.0578564693085393,2862.53088835158
0.0646968401750708,2862.54088835158
0.0690775837527882,2862.55088835158
0.0715855763123854,2862.56088835158
0.072719644555329,2862.57088835158
0.0732914220872381,2862.58088835158
0.0733367706991961,2862.59088835158
0.0737240585266289,2862.60088835158
0.0746653507212764,2862.61088835158
0.0755221833848218,2862.62088835158
0.077072801076085,2862.63088835158
0.0792934444186675,2862.64088835158
0.0815760665994084,2862.65088835158
0.0847538221232765,2862.66088835158
0.0879712923193458,2862.67088835158
0.0905364159574656,2862.68088835158
0.0925226249229387,2862.69088835158
0.0934018983871003,2862.70088835158
0.0926472319916524,2862.71088835158
0.0908561675851701,2862.72088835158
0.0882648217120034,2862.73088835158
0.0848987294716023,2862.74088835158
0.0811701805276238,2862.75088835158
0.0789148381695549,2862.76088835158
0.0763712415641795,2862.77088835158
0.0746307629776535,2862.78088835158
0.0730271289281734,2862.79088835158
0.0717986735661046,2862.80088835158
0.0716262197158393,2862.81088835158
0.0713418164469075,2862.82088835158
0.0711772626409311,2862.83088835158
0.0713117495890712,2862.84088835158
0.071851545384342,2862.85088835158
0.0720075838177589,2862.86088835158
0.0720970139763604,2862.87088835158
0.072119989342243,2862.88088835158
0.071618471136633,2862.89088835158
0.0703597186960075,2862.90088835158
0.0690065482363723,2862.91088835158
0.0671070875278189,2862.92088835158
0.0647035790085092,2862.93088835158
0.0624437762595344,2862.94088835158
0.0592334597003403,2862.95088835158
0.0563739737106226,2862.96088835158
0.0530276523187546,2862.97088835158
0.0492771312093064,2862.98088835158
0.0453940854919614,2862.99088835158
0.0409611819885973,2863.00088835158
0.0366694192197905,2863.01088835158
0.0320380300450711,2863.02088835158
0.0277159576696649,2863.03088835158
0.0236281030092981,2863.04088835158
0.0201792580588767,2863.05088835158
0.0164261167639243,2863.06088835158
0.0128778629793701,2863.07088835158
0.00921130049951473,2863.08088835158
0.00623077754262146,2863.09088835158
0.00338091925055189,2863.10088835158
0.000703147144495541,2863.11088835158
-0.00243783448222213,2863.12088835158
-0.00602778836916576,2863.13088835158
-0.00935394503100869,2863.14088835158
-0.0126114910512933,2863.15088835158
-0.015612071070643,2863.16088835158
-0.0186429474213421,2863.17088835158
-0.0221311991297234,2863.18088835158
-0.0256240713709302,2863.19088835158
-0.0295872981199898,2863.20088835158
-0.0336511701574483,2863.21088835158
-0.0374583561153957,2863.22088835158
-0.0409371159202846,2863.23088835158
-0.0438565041356199,2863.24088835158
-0.0466883772130461,2863.25088835158
-0.0497092111457678,2863.26088835158
-0.0528418480356851,2863.27088835158
-0.0566099919243442,2863.28088835158
-0.0603050072453687,2863.29088835158
-0.0641580492834347,2863.30088835158
-0.0678832792344208,2863.31088835158
-0.071253821908531,2863.32088835158
-0.074203513570443,2863.33088835158
-0.0772138353801464,2863.34088835158
-0.0810195109686694,2863.35088835158
-0.0846118210100548,2863.36088835158
-0.0888940821125112,2863.37088835158
-0.0925700688030962,2863.38088835158
-0.096147624665275,2863.39088835158
-0.0995244908282786,2863.40088835158
-0.102621149081786,2863.41088835158
-0.105707720766186,2863.42088835158
-0.108352878541706,2863.43088835158
-0.111477383558781,2863.44088835158
-0.114449652014574,2863.45088835158
-0.117919799521979,2863.46088835158
-0.121363522584037,2863.47088835158
-0.124781316910386,2863.48088835158
-0.128195728335294,2863.49088835158
-0.132606582211868,2863.50088835158
-0.137075029384938,2863.51088835158
-0.141334733061176,2863.52088835158
-0.145605539331944,2863.53088835158
-0.149567164716631,2863.54088835158
-0.152587133468572,2863.55088835158
-0.154882063535183,2863.56088835158
-0.154354940980359,2863.57088835158
-0.150710669394659,2863.58088835158
-0.143038704167694,2863.59088835158
-0.130643775815886,2863.60088835158
-0.11369814680889,2863.61088835158
-0.092965710978707,2863.62088835158
-0.0696536501303986,2863.63088835158
-0.0463250681114144,2863.64088835158
-0.0246258845951157,2863.65088835158
-0.00581295519824943,2863.66088835158
0.00954644723703735,2863.67088835158
0.0217535951625907,2863.68088835158
0.0312877838742309,2863.69088835158
0.0382909668776144,2863.70088835158
0.0426940580913456,2863.71088835158
0.0454516645314849,2863.72088835158
0.0465190583473015,2863.73088835158
0.0469343233877341,2863.74088835158
0.0474753259198526,2863.75088835158
0.0489193215731425,2863.76088835158
0.0499629461925216,2863.77088835158
0.0515675759352516,2863.78088835158
0.0534883765435151,2863.79088835158
0.0554966567924263,2863.80088835158
0.0575461299177733,2863.81088835158
0.0598978507349573,2863.82088835158
0.0614459043817602,2863.83088835158
0.0630607817936524,2863.84088835158
0.0636569974358672,2863.85088835158
0.0630091238962251,2863.86088835158
0.0618120880209422,2863.87088835158
0.0597748287920304,2863.88088835158
0.0571425498092689,2863.89088835158
0.0549010824927588,2863.90088835158
0.0523788622638625,2863.91088835158
0.050074818659848,2863.92088835158
0.0479127993455584,2863.93088835158
0.0461153831234209,2863.94088835158
0.0448331548194741,2863.95088835158
0.0443505327510759,2863.96088835158
0.0444457107682695,2863.97088835158
0.0453381869300528,2863.98088835158
0.0462944368465717,2863.99088835158
0.0475875964805777,2864.00088835158
0.0481403395347531,2864.01088835158
0.0487221472090303,2864.02088835158
0.0489131807400826,2864.03088835158
0.0488743136292261,2864.04088835158
0.0488289036811978,2864.05088835158
0.0477887103802089,2864.06088835158
0.0465828081199213,2864.07088835158
0.0445232518949855,2864.08088835158
0.0423266430594141,2864.09088835158
0.0386446481553422,2864.10088835158
0.0345583893773061,2864.11088835158
0.0303123330952014,2864.12088835158
0.0261173103203706,2864.13088835158
0.0224096272050256,2864.14088835158
0.0190263139712298,2864.15088835158
0.0156544452899598,2864.16088835158
0.0123113925667962,2864.17088835158
0.008687584935544,2864.18088835158
0.00488562170334038,2864.19088835158
0.00141757300322961,2864.20088835158
-0.00234764397620397,2864.21088835158
-0.00573679535744745,2864.22088835158
-0.00943849424585439,2864.23088835158
-0.0130001041067711,2864.24088835158
-0.0166389349398666,2864.25088835158
-0.0200395288014099,2864.26088835158
-0.0229213105216717,2864.27088835158
-0.0264628108283068,2864.28088835158
-0.0301345890254909,2864.29088835158
-0.0338543366166125,2864.30088835158
-0.0378989734906789,2864.31088835158
-0.0419736158441969,2864.32088835158
-0.0456038435083708,2864.33088835158
-0.0489703196116745,2864.34088835158
-0.0519766826753883,2864.35088835158
-0.0549423963573649,2864.36088835158
-0.0579971884909616,2864.37088835158
-0.0613680367793596,2864.38088835158
-0.064748070394831,2864.39088835158
-0.0683473379898066,2864.40088835158
-0.0720502075356198,2864.41088835158
-0.075669151048603,2864.42088835158
-0.0790665467719838,2864.43088835158
-0.0820780804793741,2864.44088835158
-0.0850735921163149,2864.45088835158
-0.0881226352602606,2864.46088835158
-0.0918435961826864,2864.47088835158
-0.0958142091518843,2864.48088835158
-0.100245478064665,2864.49088835158
-0.104483405468734,2864.50088835158
-0.108136713712503,2864.51088835158
-0.111757212584477,2864.52088835158
-0.115301928275495,2864.53088835158
-0.118721770423118,2864.54088835158
-0.122176696402711,2864.55088835158
-0.125702400679935,2864.56088835158
-0.1289667864147,2864.57088835158
-0.132719025171987,2864.58088835158
-0.136514589574014,2864.59088835158
-0.140803627056439,2864.60088835158
-0.144741645235975,2864.61088835158
-0.148687236148482,2864.62088835158
-0.152225256488429,2864.63088835158
-0.155945495816702,2864.64088835158
-0.159618528201152,2864.65088835158
-0.163376442736471,2864.66088835158
-0.167225285878403,2864.67088835158
-0.170935999274851,2864.68088835158
-0.174759509660161,2864.69088835158
-0.177864401734254,2864.70088835158
-0.179761780793664,2864.71088835158
-0.180060972870314,2864.72088835158
-0.177742799437214,2864.73088835158
-0.171279079444423,2864.74088835158
-0.160621486012416,2864.75088835158
-0.145074397859819,2864.76088835158
-0.125561796356114,2864.77088835158
-0.103340001251778,2864.78088835158
-0.0803758035013832,2864.79088835158
-0.057905904175989,2864.80088835158
-0.0376788311242263,2864.81088835158
-0.0197850036970971,2864.82088835158
-0.00505030756113794,2864.83088835158
0.00669921473013679,2864.84088835158
0.0158563127218352,2864.85088835158
0.0221437264336333,2864.86088835158
0.026686672045981,2864.87088835158
0.0296679384891817,2864.88088835158
0.0314107373017183,2864.89088835158
0.0330835539867148,2864.90088835158
0.0344369167812735,2864.91088835158
0.0355202939658154,2864.92088835158
0.0366726200812516,2864.93088835158
0.0389228400171133,2864.94088835158
0.0408995801500033,2864.95088835158
0.0426880902341132,2864.96088835158
0.0451313082524705,2864.97088835158
0.0477527270200504,2864.98088835158
0.0506820572624429,2864.99088835158
0.0538187841765327,2865.00088835158
0.0559977343127988,2865.01088835158
0.0569376016541639,2865.02088835158
0.056597474391785,2865.03088835158
0.054944946377731,2865.04088835158
0.0522846680669478,2865.05088835158
0.0491605511686303,2865.06088835158
0.0466562859673939,2865.07088835158
0.0439764924789861,2865.08088835158
0.0419499109401907,2865.09088835158
0.039856806169221,2865.10088835158
0.0389167550857482,2865.11088835158
0.0382557703220197,2865.12088835158
0.0383239173798368,2865.13088835158
0.0395120958203692,2865.14088835158
0.040633291791369,2865.15088835158
0.0415587343158599,2865.16088835158
0.0430129604256451,2865.17088835158
0.0436839529065782,2865.18088835158
0.0442945588756636,2865.19088835158
0.0440907867259414,2865.20088835158
0.0435183962413764,2865.21088835158
0.0427778383005115,2865.22088835158
0.0418258017283067,2865.23088835158
0.0403206515064167,2865.24088835158
0.0379287535413195,2865.25088835158
0.0351896432843995,2865.26088835158
0.0317542008944007,2865.27088835158
0.0286420655315035,2865.28088835158
0.0249884668088989,2865.29088835158
0.0209671624211502,2865.30088835158
0.0167423265287415,2865.31088835158
0.0129210742943985,2865.32088835158
0.00938849679747961,2865.33088835158
0.00638492037015293,2865.34088835158
0.00370458365739262,2865.35088835158
0.000583312181783911,2865.36088835158
-0.00230298314620231,2865.37088835158
-0.00527155145046192,2865.38088835158
-0.00871841861670854,2865.39088835158
-0.0118228530242528,2865.40088835158
-0.0151732062784804,2865.41088835158
-0.0186668054263059,2865.42088835158
-0.0222975351376221,2865.43088835158
-0.0257825705258942,2865.44088835158
-0.0298448298148932,2865.45088835158
-0.0338026803909763,2865.46088835158
-0.0371930034877873,2865.47088835158
-0.0398723978448145,2865.48088835158
-0.042331673105488,2865.49088835158
-0.0447335251682898,2865.50088835158
-0.0475336220901992,2865.51088835158
-0.0504754146492174,2865.52088835158
-0.0536465892390068,2865.53088835158
-0.0571560042270021,2865.54088835158
-0.061298473053298,2865.55088835158
-0.0650694818021596,2865.56088835158
-0.0691313388811634,2865.57088835158
-0.0733106714961779,2865.58088835158
-0.0772450357197077,2865.59088835158
-0.0811602040548136,2865.60088835158
-0.0848273859337588,2865.61088835158
-0.0883265644934093,2865.62088835158
-0.0911343454410799,2865.63088835158
-0.0943063517311636,2865.64088835158
-0.0980318788600267,2865.65088835158
-0.10114650646833,2865.66088835158
-0.104650541711556,2865.67088835158
-0.107971860553098,2865.68088835158
-0.110882367197192,2865.69088835158
-0.113578236636628,2865.70088835158
-0.116378665484513,2865.71088835158
-0.11904244388134,2865.72088835158
-0.122690195709586,2865.73088835158
-0.125885857201191,2865.74088835158
-0.129253051640453,2865.75088835158
-0.132906877421804,2865.76088835158
-0.136540783186029,2865.77088835158
-0.139721758669549,2865.78088835158
-0.143129256479428,2865.79088835158
-0.146640142413362,2865.80088835158
-0.150342938843696,2865.81088835158
-0.154240703121836,2865.82088835158
-0.15782472069802,2865.83088835158
-0.160930348494949,2865.84088835158
-0.163610249535088,2865.85088835158
-0.164551593225087,2865.86088835158
-0.162456084876711,2865.87088835158
-0.157223319048376,2865.88088835158
-0.147376549205782,2865.89088835158
-0.132673830103951,2865.90088835158
-0.113930639669965,2865.91088835158
-0.0927048268262965,2865.92088835158
-0.0702446918645501,2865.93088835158
-0.0481413597541522,2865.94088835158
-0.0276973057394793,2865.95088835158
-0.00984268639259454,2865.96088835158
0.00447736244775802,2865.97088835158
0.0154490229844113,2865.98088835158
0.0231484412739463,2865.99088835158
0.0280601352587969,2866.00088835158
0.0313447151164907,2866.01088835158
0.032778653639599,2866.02088835158
0.0337120001621518,2866.03088835158
0.0346197095645542,2866.04088835158
0.0352296998339321,2866.05088835158
0.0353627547651859,2866.06088835158
0.0355716903178704,2866.07088835158
0.0365162142505642,2866.08088835158
0.0369470097902451,2866.09088835158
0.0384371208299476,2866.10088835158
0.0402245617796539,2866.11088835158
0.0420483691224002,2866.12088835158
0.0440635115757638,2866.13088835158
0.0457097644204654,2866.14088835158
0.0467440127764048,2866.15088835158
0.0467689755852907,2866.16088835158
0.0457192776453718,2866.17088835158
0.0437160434185287,2866.18088835158
0.0413329767166344,2866.19088835158
0.0380512305523672,2866.20088835158
0.0351547791366109,2866.21088835158
0.0326792427340374,2866.22088835158
0.030634439104215,2866.23088835158
0.0296382632703153,2866.24088835158
0.0290471459637264,2866.25088835158
0.0293180157028749,2866.26088835158
0.0301799733741318,2866.27088835158
0.0315418880138743,2866.28088835158
0.0330866279175273,2866.29088835158
0.0346222372318553,2866.30088835158
0.0362930896548572,2866.31088835158
0.0376017088073454,2866.32088835158
0.0380214308136658,2866.33088835158
0.0378482536572296,2866.34088835158
0.0371386518189962,2866.35088835158
0.0359789607006826,2866.36088835158
0.0347952438363723,2866.37088835158
0.0332478790607187,2866.38088835158
0.0317596957132974,2866.39088835158
0.0299537975324589,2866.40088835158
0.0281105712852592,2866.41088835158
0.0259063408532231,2866.42088835158
0.0233956755335166,2866.43088835158
0.0205289232105332,2866.44088835158
0.0172028392603047,2866.45088835158
0.0134371468313571,2866.46088835158
0.00969055894924334,2866.47088835158
0.00518487061369391,2866.48088835158
0.00068764354451571,2866.49088835158
-0.00369761829894179,2866.50088835158
-0.00803415784167501,2866.51088835158
-0.0118070284972658,2866.52088835158
-0.0155327681633849,2866.53088835158
-0.0185655378272074,2866.54088835158
-0.0214499486716756,2866.55088835158
-0.0243652811221501,2866.56088835158
-0.0272317531722304,2866.57088835158
-0.0296850763316718,2866.58088835158
-0.0324266919063129,2866.59088835158
-0.0353204276090579,2866.60088835158
-0.0383256463918,2866.61088835158
-0.0415290434808645,2866.62088835158
-0.0444659326967638,2866.63088835158
-0.0473303320184171,2866.64088835158
-0.0499325800666877,2866.65088835158
-0.053037489699751,2866.66088835158
-0.0563759985395566,2866.67088835158
-0.0597670802478621,2866.68088835158
-0.0634425131790174,2866.69088835158
-0.0667906700843429,2866.70088835158
-0.0698133050228008,2866.71088835158
-0.0728297525787644,2866.72088835158
-0.0756791743640298,2866.73088835158
-0.0782051461631717,2866.74088835158
-0.0815599142646775,2866.75088835158
-0.0847659281357486,2866.76088835158
-0.0882651087183904,2866.77088835158
-0.0913052046623551,2866.78088835158
-0.0943455888486526,2866.79088835158
-0.0970078409409924,2866.80088835158
-0.0996742048953997,2866.81088835158
-0.101879511787614,2866.82088835158
-0.104210058415453,2866.83088835158
-0.10641647813009,2866.84088835158
-0.10886738705568,2866.85088835158
-0.111322606859735,2866.86088835158
-0.114549740733263,2866.87088835158
-0.11814884729739,2866.88088835158
-0.122041386416156,2866.89088835158
-0.125844716673588,2866.90088835158
-0.130054053061334,2866.91088835158
-0.1332399902176,2866.92088835158
-0.135225092077232,2866.93088835158
-0.134648408161129,2866.94088835158
-0.130678109679491,2866.95088835158
-0.121924743796495,2866.96088835158
-0.108005491165495,2866.97088835158
-0.0901431718955839,2866.98088835158
-0.0690154024662302,2866.99088835158
-0.0463335012598614,2867.00088835158
-0.0234854011056185,2867.01088835158
-0.00251535928016429,2867.02088835158
0.0165772684287612,2867.03088835158
0.0331368406454315,2867.04088835158
0.0457913782960745,2867.05088835158
0.0555437429837792,2867.06088835158
0.0621507777292112,2867.07088835158
0.0668853706529668,2867.08088835158
0.0701093356823194,2867.09088835158
0.072281488099784,2867.10088835158
0.0739152368732963,2867.11088835158
0.0751283036368864,2867.12088835158
0.0758186768102486,2867.13088835158
0.0771810862384652,2867.14088835158
0.0788201647779561,2867.15088835158
0.0805523415797915,2867.16088835158
0.0828106166668127,2867.17088835158
0.0852167996352368,2867.18088835158
0.087787683092088,2867.19088835158
0.0905773664289999,2867.20088835158
0.092856641828658,2867.21088835158
0.0943859939420503,2867.22088835158
0.0944988223746965,2867.23088835158
0.0936352853884446,2867.24088835158
0.0918009467576311,2867.25088835158
0.0890829692574488,2867.26088835158
0.0861795939763496,2867.27088835158
0.0827966462123703,2867.28088835158
0.0798444525797193,2867.29088835158
0.0773352952367747,2867.30088835158
0.0751133470949358,2867.31088835158
0.0738630763389277,2867.32088835158
0.0736047985260384,2867.33088835158
0.0738247495782848,2867.34088835158
0.0749093618316429,2867.35088835158
0.0760473566785229,2867.36088835158
0.077316435574542,2867.37088835158
0.0788869400519304,2867.38088835158
0.07971582039971,2867.39088835158
0.0797924310132115,2867.40088835158
0.079968065914971,2867.41088835158
0.0802215755689148,2867.42088835158
0.079825065781065,2867.43088835158
0.0782970848837563,2867.44088835158
0.0760352245523459,2867.45088835158
0.0737529994322632,2867.46088835158
0.0711753237853669,2867.47088835158
0.0683131315648948,2867.48088835158
0.0657148413038346,2867.49088835158
0.0628022661196751,2867.50088835158
0.0598356909531004,2867.51088835158
0.0564197810270166,2867.52088835158
0.0527517713535146,2867.53088835158
0.0489683765695951,2867.54088835158
0.0450855695396323,2867.55088835158
0.0412559381140228,2867.56088835158
0.0374021034777991,2867.57088835158
0.0343776052601289,2867.58088835158
0.0313067831464317,2867.59088835158
0.0286972155715922,2867.60088835158
0.0261378515366063,2867.61088835158
0.0238081238150703,2867.62088835158
0.021812738905235,2867.63088835158
0.0193984165817372,2867.64088835158
0.0162045113851735,2867.65088835158
0.0124118361118928,2867.66088835158
0.00849038183414092,2867.67088835158
0.00422854731242607,2867.68088835158
0.000280727403524787,2867.69088835158
-0.00309679511773603,2867.70088835158
-0.00649957392166452,2867.71088835158
-0.00991157574885516,2867.72088835158
-0.0131144929735433,2867.73088835158
-0.0169532356019183,2867.74088835158
-0.0209491701165895,2867.75088835158
-0.0243033158279742,2867.76088835158
-0.0278750315624114,2867.77088835158
-0.0313492857360564,2867.78088835158
-0.035047551767468,2867.79088835158
-0.0386344251091895,2867.80088835158
-0.0419248099116577,2867.81088835158
-0.0447896501780059,2867.82088835158
-0.0476253818572648,2867.83088835158
-0.05036396158647,2867.84088835158
-0.0528375467719617,2867.85088835158
-0.054967772947067,2867.86088835158
-0.057337017772437,2867.87088835158
-0.0599278117841599,2867.88088835158
-0.0629455849169477,2867.89088835158
-0.0664140287134767,2867.90088835158
-0.0694213173695987,2867.91088835158
-0.073363989789813,2867.92088835158
-0.0768284908108076,2867.93088835158
-0.0808278362421042,2867.94088835158
-0.0847117604387195,2867.95088835158
-0.0884142816058631,2867.96088835158
-0.0920654639426483,2867.97088835158
-0.0949559947374924,2867.98088835158
-0.0966461315123877,2867.99088835158
-0.0959368256429142,2868.00088835158
-0.091584566339209,2868.01088835158
-0.0833331278744566,2868.02088835158
-0.0701424442541109,2868.03088835158
-0.0525767659798782,2868.04088835158
-0.0313776777048363,2868.05088835158
-0.00804589722837249,2868.06088835158
0.0159452395659062,2868.07088835158
0.0384027577257029,2868.08088835158
0.0583054223154731,2868.09088835158
0.0747392860485766,2868.10088835158
0.0875793350813588,2868.11088835158
0.0974025109781209,2868.12088835158
0.104310505323167,2868.13088835158
0.109131110638874,2868.14088835158
0.112021996882159,2868.15088835158
0.114397639543919,2868.16088835158
0.116317765749249,2868.17088835158
0.118166414809508,2868.18088835158
0.119826717672054,2868.19088835158
0.122484190956231,2868.20088835158
0.12553966668999,2868.21088835158
0.129345004951768,2868.22088835158
0.133974291088659,2868.23088835158
0.138265103499122,2868.24088835158
0.142571696540063,2868.25088835158
0.146118495223586,2868.26088835158
0.149131044201818,2868.27088835158
0.151287299253915,2868.28088835158
0.152629563781668,2868.29088835158
0.152667916543999,2868.30088835158
0.151220321967977,2868.31088835158
0.148656997699366,2868.32088835158
0.1451641469893,2868.33088835158
0.141727791715004,2868.34088835158
0.138261382691655,2868.35088835158
0.135226496959946,2868.36088835158
0.133153395044071,2868.37088835158
0.131838090813531,2868.38088835158
0.131077704802359,2868.39088835158
0.13093412196301,2868.40088835158
0.131163821423271,2868.41088835158
0.131696761928261,2868.42088835158
0.132404854497363,2868.43088835158
0.133035717662286,2868.44088835158
0.133804374507685,2868.45088835158
0.134639626056147,2868.46088835158
0.135099045329258,2868.47088835158
0.135375216308815,2868.48088835158
0.135354612742445,2868.49088835158
0.134675019646857,2868.50088835158
0.133379339110416,2868.51088835158
0.131161323772885,2868.52088835158
0.128628457409006,2868.53088835158
0.125187667334947,2868.54088835158
0.121553878361006,2868.55088835158
0.11757077733482,2868.56088835158
0.113319685085109,2868.57088835158
0.10922430960561,2868.58088835158
0.105150715491712,2868.59088835158
0.100553865810993,2868.60088835158
0.0960519131943753,2868.61088835158
0.0912896018508845,2868.62088835158
0.0870538696592659,2868.63088835158
0.0835832149526623,2868.64088835158
0.0804683711613134,2868.65088835158
0.0777179833910256,2868.66088835158
0.0751394913217634,2868.67088835158
0.0725937084981901,2868.68088835158
0.0698807769313647,2868.69088835158
0.0666242579288215,2868.70088835158
0.0632161377513145,2868.71088835158
0.0592052175368737,2868.72088835158
0.0546201848943332,2868.73088835158
0.0497711308567237,2868.74088835158
0.0450707110219426,2868.75088835158
0.0408534740814831,2868.76088835158
0.037181912317604,2868.77088835158
0.03381403649062,2868.78088835158
0.0306499627768766,2868.79088835158
0.0278853161435729,2868.80088835158
0.0247805744409783,2868.81088835158
0.0210067871709919,2868.82088835158
0.0180313203203646,2868.83088835158
0.0147429143110005,2868.84088835158
0.0114659858735746,2868.85088835158
0.00843546966134213,2868.86088835158
0.00501511753163353,2868.87088835158
0.00171434510216422,2868.88088835158
-0.00184787643753755,2868.89088835158
-0.00540011368637381,2868.90088835158
-0.00877437184201664,2868.91088835158
-0.0123279445869009,2868.92088835158
-0.0158166373986549,2868.93088835158
-0.0189603362795492,2868.94088835158
-0.0220846074250196,2868.95088835158
-0.0251571253047511,2868.96088835158
-0.0286673390013277,2868.97088835158
-0.0324002871021998,2868.98088835158
-0.0360178701473066,2868.99088835158
-0.0392857203870958,2869.00088835158
-0.0428846823731734,2869.01088835158
-0.0465608489491955,2869.02088835158
-0.0498927272570703,2869.03088835158
-0.0537458792333556,2869.04088835158
-0.0577152820176252,2869.05088835158
-0.0621064555892171,2869.06088835158
-0.0655908091645104,2869.07088835158
-0.0681504047302313,2869.08088835158
-0.068752362188092,2869.09088835158
-0.0660134341140965,2869.10088835158
-0.0586807979747172,2869.11088835158
-0.0461973406901396,2869.12088835158
-0.0286877721602746,2869.13088835158
-0.00772027677282541,2869.14088835158
0.0152041268707239,2869.15088835158
0.0381197146282749,2869.16088835158
0.0596859478464831,2869.17088835158
0.0786405334954158,2869.18088835158
0.0944558311172183,2869.19088835158
0.107208492137795,2869.20088835158
0.116595559407692,2869.21088835158
0.123920291831915,2869.22088835158
0.129113879156571,2869.23088835158
0.133077194393902,2869.24088835158
0.136358072117751,2869.25088835158
0.138796350058622,2869.26088835158
0.140730811741536,2869.27088835158
0.142196395347072,2869.28088835158
0.14270434224692,2869.29088835158
0.143571007738734,2869.30088835158
0.144767094224266,2869.31088835158
0.146409522935342,2869.32088835158
0.148915974459667,2869.33088835158
0.151700074975655,2869.34088835158
0.154595529530172,2869.35088835158
0.15714900135401,2869.36088835158
0.158712070365867,2869.37088835158
0.159091102285677,2869.38088835158
0.158791593177256,2869.39088835158
0.157273084521816,2869.40088835158
0.154709010251918,2869.41088835158
0.151873563317448,2869.42088835158
0.149218262560839,2869.43088835158
0.146170740158555,2869.44088835158
0.143486955075414,2869.45088835158
0.141253156434408,2869.46088835158
0.139230184126329,2869.47088835158
0.138052410431205,2869.48088835158
0.137844804943962,2869.49088835158
0.138119358497092,2869.50088835158
0.139002467701007,2869.51088835158
0.14011560234379,2869.52088835158
0.141517713661313,2869.53088835158
0.143169390646176,2869.54088835158
0.144381375591431,2869.55088835158
0.145100426178044,2869.56088835158
0.144735555783862,2869.57088835158
0.143808042000861,2869.58088835158
0.142351106998079,2869.59088835158
0.140025589186409,2869.60088835158
0.137367597301698,2869.61088835158
0.134062564817249,2869.62088835158
0.130578761344258,2869.63088835158
0.127421493786924,2869.64088835158
0.124163108892611,2869.65088835158
0.121317432687619,2869.66088835158
0.118253240585677,2869.67088835158
0.11526521137941,2869.68088835158
0.111980260239056,2869.69088835158
0.108557040018764,2869.70088835158
0.10516817576703,2869.71088835158
0.101305241073288,2869.72088835158
0.0975312536623114,2869.73088835158
0.0937574850675478,2869.74088835158
0.0908321555457725,2869.75088835158
0.0880441218496096,2869.76088835158
0.085039574497543,2869.77088835158
0.0821368903951839,2869.78088835158
0.0796204091588231,2869.79088835158
0.0766109375505875,2869.80088835158
0.0734304317250886,2869.81088835158
0.0697721215073022,2869.82088835158
0.0658348920508174,2869.83088835158
0.062468197238892,2869.84088835158
0.0596931062580142,2869.85088835158
0.0569216912988883,2869.86088835158
0.0541107578610952,2869.87088835158
0.051578864032639,2869.88088835158
0.0485193115757516,2869.89088835158
0.0449938486137195,2869.90088835158
0.0410666757604499,2869.91088835158
0.0371328854346412,2869.92088835158
0.0331225085612996,2869.93088835158
0.0288498016325682,2869.94088835158
0.025061881300182,2869.95088835158
0.0216048478402065,2869.96088835158
0.0182591948924892,2869.97088835158
0.015357055048068,2869.98088835158
0.0121201796808338,2869.99088835158
0.00872002243448537,2870.00088835158
0.00543302803712521,2870.01088835158
0.00163666744321593,2870.02088835158
-0.00191599347083463,2870.03088835158
-0.00534384602771417,2870.04088835158
-0.00859007266153504,2870.05088835158
-0.0114440675892727,2870.06088835158
-0.0142450055557428,2870.07088835158
-0.0172216984605496,2870.08088835158
-0.0206691025529574,2870.09088835158
-0.0249477544213917,2870.10088835158
-0.0291479623367498,2870.11088835158
-0.0333116950341281,2870.12088835158
-0.0376416409537829,2870.13088835158
-0.0411978827710274,2870.14088835158
-0.0426878526151112,2870.15088835158
-0.0415648429238714,2870.16088835158
-0.0362934741870868,2870.17088835158
-0.0263273920334346,2870.18088835158
-0.0113929622794902,2870.19088835158
0.00804984437950763,2870.20088835158
0.030435953366471,2870.21088835158
0.0537007543526477,2870.22088835158
0.0764752466030389,2870.23088835158
0.0965393059881145,2870.24088835158
0.114202430877153,2870.25088835158
0.128471921812713,2870.26088835158
0.139621376688116,2870.27088835158
0.14791237586434,2870.28088835158
0.154186931346107,2870.29088835158
0.158853492075017,2870.30088835158
0.162100690108385,2870.31088835158
0.164855731176519,2870.32088835158
0.167344751521376,2870.33088835158
0.170311798277626,2870.34088835158
0.173306936679186,2870.35088835158
0.176284300472785,2870.36088835158
0.179029653726645,2870.37088835158
0.181588030614032,2870.38088835158
0.184011608242401,2870.39088835158
0.186638599100145,2870.40088835158
0.188295278590573,2870.41088835158
0.189562238883795,2870.42088835158
0.190694072696768,2870.43088835158
0.190585758333009,2870.44088835158
0.189749414198406,2870.45088835158
0.187807491020781,2870.46088835158
0.184853205392948,2870.47088835158
0.181363345994361,2870.48088835158
0.177253265452918,2870.49088835158
0.17307051703112,2870.50088835158
0.169330074271055,2870.51088835158
0.166661443614304,2870.52088835158
0.164654115341885,2870.53088835158
0.163714782329468,2870.54088835158
0.163426667158707,2870.55088835158
0.163881298690793,2870.56088835158
0.164819100662127,2870.57088835158
0.166151383758016,2870.58088835158
0.167426813808022,2870.59088835158
0.168666311206631,2870.60088835158
0.169431623531659,2870.61088835158
0.169738458817877,2870.62088835158
0.16911388933243,2870.63088835158
0.168143411299845,2870.64088835158
0.167113815837314,2870.65088835158
0.165552915552528,2870.66088835158
0.163351905266867,2870.67088835158
0.160215691564787,2870.68088835158
0.157450976881447,2870.69088835158
0.154472227891972,2870.70088835158
0.151201297427371,2870.71088835158
0.147735271615193,2870.72088835158
0.143900278997887,2870.73088835158
0.139586356472351,2870.74088835158
0.135448121629253,2870.75088835158
0.131321640206358,2870.76088835158
0.127328228870434,2870.77088835158
0.123419101505149,2870.78088835158
0.119357304445938,2870.79088835158
0.115796221674827,2870.80088835158
0.112178154695577,2870.81088835158
0.108868955789856,2870.82088835158
0.105789783157897,2870.83088835158
0.101870300617193,2870.84088835158
0.0980000022421536,2870.85088835158
0.0941312101302087,2870.86088835158
0.0900930874860123,2870.87088835158
0.0860325781895143,2870.88088835158
0.0818296148099313,2870.89088835158
0.0779651915066673,2870.90088835158
0.074127657634614,2870.91088835158
0.0708649329080349,2870.92088835158
0.0674658524707875,2870.93088835158
0.0640121270471559,2870.94088835158
0.0605089397621066,2870.95088835158
0.0569267600758576,2870.96088835158
0.0530634226880054,2870.97088835158
0.0489823008270594,2870.98088835158
0.0446141757034769,2870.99088835158
0.0401983713277014,2871.00088835158
0.0363668315886719,2871.01088835158
0.0322230182012644,2871.02088835158
0.0283300043020962,2871.03088835158
0.0246562800823967,2871.04088835158
0.0213983480592935,2871.05088835158
0.0177979163640645,2871.06088835158
0.0148463834092663,2871.07088835158
0.0115399027917047,2871.08088835158
0.00812171301508532,2871.09088835158
0.00488535811255657,2871.10088835158
0.0015762075967705,2871.11088835158
-0.00144674673025341,2871.12088835158
-0.00485315490079518,2871.13088835158
-0.0082986733504689,2871.14088835158
-0.0117764261665693,2871.15088835158
-0.0153557286810848,2871.16088835158
-0.0188764479944698,2871.17088835158
-0.0223341287224706,2871.18088835158
-0.0253924149117044,2871.19088835158
-0.0285065610520984,2871.20088835158
-0.0317369138189781,2871.21088835158
-0.0347494803933889,2871.22088835158
-0.0369894842466465,2871.23088835158
-0.0376424317538273,2871.24088835158
-0.0357359231156474,2871.25088835158
-0.02992621508738,2871.26088835158
-0.0195996735527775,2871.27088835158
-0.00396117662396362,2871.28088835158
0.0158964804996478,2871.29088835158
0.0386562959935076,2871.30088835158
0.062936348665367,2871.31088835158
0.0863758742622261,2871.32088835158
0.107474173197672,2871.33088835158
0.125962935673035,2871.34088835158
0.141055510678587,2871.35088835158
0.153054596134353,2871.36088835158
0.161969989014715,2871.37088835158
0.168664766065178,2871.38088835158
0.173514346553361,2871.39088835158
0.177508825953201,2871.40088835158
0.180994086002423,2871.41088835158
0.183616052381967,2871.42088835158
0.186670682035441,2871.43088835158
0.189765854350107,2871.44088835158
0.192993056324479,2871.45088835158
0.19597683404339,2871.46088835158
0.199037509208873,2871.47088835158
0.202028632762283,2871.48088835158
0.205090743622198,2871.49088835158
0.208587659133018,2871.50088835158
0.211543941212122,2871.51088835158
0.214354142108251,2871.52088835158
0.21633690076541,2871.53088835158
0.217400812738772,2871.54088835158
0.216635035875639,2871.55088835158
0.215148415218911,2871.56088835158
0.212580117874251,2871.57088835158
0.209939407310247,2871.58088835158
0.207165234872939,2871.59088835158
0.204308095556947,2871.60088835158
0.201589114698045,2871.61088835158
0.199740798188452,2871.62088835158
0.197951846316208,2871.63088835158
0.196432811740779,2871.64088835158
0.195254646317278,2871.65088835158
0.194508159656742,2871.66088835158
0.19488506249147,2871.67088835158
0.195992482966765,2871.68088835158
0.196640050643348,2871.69088835158
0.197116167347757,2871.70088835158
0.197241941780814,2871.71088835158
0.196768628976295,2871.72088835158
0.195426933919062,2871.73088835158
0.193821542548917,2871.74088835158
0.191691205856167,2871.75088835158
0.18889484037757,2871.76088835158
0.186730407778556,2871.77088835158
0.18440324512614,2871.78088835158
0.18210378595317,2871.79088835158
0.179443182291974,2871.80088835158
0.176975885196993,2871.81088835158
0.173924183425142,2871.82088835158
0.170432532120152,2871.83088835158
0.16695030477875,2871.84088835158
0.16282985380936,2871.85088835158
0.159315500813507,2871.86088835158
0.155683492740094,2871.87088835158
0.151591893944835,2871.88088835158
0.148090241684119,2871.89088835158
0.14440607524239,2871.90088835158
0.1409012997279,2871.91088835158
0.137478677972777,2871.92088835158
0.133631083607522,2871.93088835158
0.129540586473344,2871.94088835158
0.125325253654922,2871.95088835158
0.121185275544205,2871.96088835158
0.116856981755757,2871.97088835158
0.112189993055741,2871.98088835158
0.107487445287711,2871.99088835158
0.102495179834832,2872.00088835158
0.097388625576971,2872.01088835158
0.0928827129028077,2872.02088835158
0.0887996889794171,2872.03088835158
0.0845889199932004,2872.04088835158
0.0811874371771151,2872.05088835158
0.0780810647410165,2872.06088835158
0.074858945567971,2872.07088835158
0.0713845105402698,2872.08088835158
0.0673805185569573,2872.09088835158
0.0628392819083295,2872.10088835158
0.0580426594671015,2872.11088835158
0.0531147561431365,2872.12088835158
0.0491328719642816,2872.13088835158
0.0454311338972003,2872.14088835158
0.0417179441602922,2872.15088835158
0.0378117908577999,2872.16088835158
0.0342710846001122,2872.17088835158
0.0302915077249648,2872.18088835158
0.0265350574106747,2872.19088835158
0.0222469837836252,2872.20088835158
0.018349859462178,2872.21088835158
0.0141864025239545,2872.22088835158
0.0102794099055107,2872.23088835158
0.0066877999539659,2872.24088835158
0.0031383071415974,2872.25088835158
-0.00015560255697407,2872.26088835158
-0.00350193028346091,2872.27088835158
-0.0069322119884966,2872.28088835158
-0.0108410765347293,2872.29088835158
-0.014987471917411,2872.30088835158
-0.0193625945876092,2872.31088835158
-0.023401555924505,2872.32088835158
-0.0272178776221136,2872.33088835158
-0.0306715066011964,2872.34088835158
-0.0340423142695393,2872.35088835158
-0.0380481170925232,2872.36088835158
-0.0427711253055365,2872.37088835158
-0.0479238923295337,2872.38088835158
-0.0526350080879983,2872.39088835158
-0.0569973822595383,2872.40088835158
-0.0590233084810569,2872.41088835158
-0.0584804678406319,2872.42088835158
-0.0538514243682356,2872.43088835158
-0.0447234444239642,2872.44088835158
-0.0307905811587655,2872.45088835158
-0.0118706450547752,2872.46088835158
0.0102277695985794,2872.47088835158
0.0341685650504275,2872.48088835158
0.0581146202951564,2872.49088835158
0.0800591063099207,2872.50088835158
0.0988833232034872,2872.51088835158
0.114341609377199,2872.52088835158
0.126146158633235,2872.53088835158
0.135141015931909,2872.54088835158
0.141237333411213,2872.55088835158
0.145531379826688,2872.56088835158
0.148504276696809,2872.57088835158
0.150399766637724,2872.58088835158
0.152185613754272,2872.59088835158
0.153677476611699,2872.60088835158
0.155055890832988,2872.61088835158
0.156360295705201,2872.62088835158
0.157812961858794,2872.63088835158
0.15988391888986,2872.64088835158
0.162138013021324,2872.65088835158
0.164931818036623,2872.66088835158
0.167626049442212,2872.67088835158
0.169839940113608,2872.68088835158
0.171446296739245,2872.69088835158
0.172668199824274,2872.70088835158
0.1727821852084,2872.71088835158
0.172186276899939,2872.72088835158
0.170574415409281,2872.73088835158
0.167960785994988,2872.74088835158
0.164742412111797,2872.75088835158
0.161869346391119,2872.76088835158
0.159463233822945,2872.77088835158
0.157770838460407,2872.78088835158
0.156919334757655,2872.79088835158
0.156778001473551,2872.80088835158
0.157149535072004,2872.81088835158
0.158028579912976,2872.82088835158
0.159068586044378,2872.83088835158
0.160707382066038,2872.84088835158
0.162225036974751,2872.85088835158
0.163342097369377,2872.86088835158
0.164967968251461,2872.87088835158
0.166319796640639,2872.88088835158
0.167114391005516,2872.89088835158
0.166703395833865,2872.90088835158
0.165933411182169,2872.91088835158
0.164016515005519,2872.92088835158
0.161188501965938,2872.93088835158
0.158450673541826,2872.94088835158
0.155505393173289,2872.95088835158
0.1523340089148,2872.96088835158
0.149188987141051,2872.97088835158
0.145780652580764,2872.98088835158
0.142256890004914,2872.99088835158
0.138770465561768,2873.00088835158
0.134715015765823,2873.01088835158
0.130488968276169,2873.02088835158
0.12595737596856,2873.03088835158
0.12180532637739,2873.04088835158
0.117827540203722,2873.05088835158
0.114288930748143,2873.06088835158
0.111028723523113,2873.07088835158
0.107490573436906,2873.08088835158
0.103602320536082,2873.09088835158
0.0994599113545642,2873.10088835158
0.095420184833102,2873.11088835158
0.0915735532181916,2873.12088835158
0.0879652661420454,2873.13088835158
0.0839193397046589,2873.14088835158
0.0798858431971139,2873.15088835158
0.0753376608295099,2873.16088835158
0.0713103319526365,2873.17088835158
0.0672647750695912,2873.18088835158
0.0634330127110436,2873.19088835158
0.0601951941808161,2873.20088835158
0.0573319144831266,2873.21088835158
0.0550376686199384,2873.22088835158
0.0524739110894507,2873.23088835158
0.050043723048336,2873.24088835158
0.0468026625728677,2873.25088835158
0.0431604370501744,2873.26088835158
0.0395743680541295,2873.27088835158
0.0357559919024188,2873.28088835158
0.0320121118721335,2873.29088835158
0.0280414572136823,2873.30088835158
0.0242355129205777,2873.31088835158
0.0197837474922255,2873.32088835158
0.0158526119922121,2873.33088835158
0.0118879228795062,2873.34088835158
0.00881324475976604,2873.35088835158
0.00600357985285879,2873.36088835158
0.00291281518962295,2873.37088835158
-0.000389953070613143,2873.38088835158
-0.00354719981579798,2873.39088835158
-0.00669352626718972,2873.40088835158
-0.00996082477561837,2873.41088835158
-0.0134610374700906,2873.42088835158
-0.0171287210508205,2873.43088835158
-0.0212831069915395,2873.44088835158
-0.0255469645807236,2873.45088835158
-0.029864674324644,2873.46088835158
-0.0345954340930879,2873.47088835158
-0.0390644558496249,2873.48088835158
-0.0428825377237729,2873.49088835158
-0.0452569003971553,2873.50088835158
-0.0447802961884934,2873.51088835158
-0.0411649252641823,2873.52088835158
-0.0333818251731368,2873.53088835158
-0.0208605124550099,2873.54088835158
-0.00356994773515502,2873.55088835158
0.0170478146315085,2873.56088835158
0.0405953293038716,2873.57088835158
0.064613148660972,2873.58088835158
0.0871098887928407,2873.59088835158
0.107020208300003,2873.60088835158
0.124208690522141,2873.61088835158
0.137897167701546,2873.62088835158
0.148223415625296,2873.63088835158
0.155776199117669,2873.64088835158
0.160807116897944,2873.65088835158
0.164275529986137,2873.66088835158
0.166422935698769,2873.67088835158
0.16752170525022,2873.68088835158
0.168821000424227,2873.69088835158
0.170024777892654,2873.70088835158
0.172240056238412,2873.71088835158
0.174209306794042,2873.72088835158
0.176192950521277,2873.73088835158
0.178209824668627,2873.74088835158
0.180475478587849,2873.75088835158
0.182111009863527,2873.76088835158
0.184044778946842,2873.77088835158
0.186033539767066,2873.78088835158
0.187578329322063,2873.79088835158
0.188915240238256,2873.80088835158
0.189357075802838,2873.81088835158
0.188835729616577,2873.82088835158
0.186973718219486,2873.83088835158
0.184558674561597,2873.84088835158
0.181337057381684,2873.85088835158
0.178270022407659,2873.86088835158
0.175717529694127,2873.87088835158
0.173636360825845,2873.88088835158
0.172746539526751,2873.89088835158
0.172897907383198,2873.90088835158
0.173070259503245,2873.91088835158
0.173498002851457,2873.92088835158
0.174096752055314,2873.93088835158
0.175047447126153,2873.94088835158
0.176280019001388,2873.95088835158
0.177604398678381,2873.96088835158
0.178681351239557,2873.97088835158
0.179129756299215,2873.98088835158
0.179036544077143,2873.99088835158
0.177992308356905,2874.00088835158
0.176772363620176,2874.01088835158
0.174417155585628,2874.02088835158
0.171722856278852,2874.03088835158
0.168376032980951,2874.04088835158
0.164534839406901,2874.05088835158
0.160626960857631,2874.06088835158
0.157062013817604,2874.07088835158
0.153438198077233,2874.08088835158
0.150351886481979,2874.09088835158
0.146692206964113,2874.10088835158
0.142847023085773,2874.11088835158
0.138626905750849,2874.12088835158
0.134385953011739,2874.13088835158
0.130606296533085,2874.14088835158
0.127044587008313,2874.15088835158
0.123618732875019,2874.16088835158
0.120298438031601,2874.17088835158
0.115835386085101,2874.18088835158
0.11161899109653,2874.19088835158
0.107373825057779,2874.20088835158
0.103035182653982,2874.21088835158
0.0994091635114804,2874.22088835158
0.0956996420468244,2874.23088835158
0.0917771936298152,2874.24088835158
0.0882451200919168,2874.25088835158
0.0842753459984641,2874.26088835158
0.0804567536070483,2874.27088835158
0.0760029962119793,2874.28088835158
0.0710940710440763,2874.29088835158
0.0663581889222543,2874.30088835158
0.0621034343279458,2874.31088835158
0.0590690619727976,2874.32088835158
0.0565429482093226,2874.33088835158
0.0538701088315773,2874.34088835158
0.0517436863983144,2874.35088835158
0.0490071055719274,2874.36088835158
0.0463145170158893,2874.37088835158
0.0432969714361559,2874.38088835158
0.0405677531648342,2874.39088835158
0.0377092409596275,2874.40088835158
0.0338536503730279,2874.41088835158
0.030490595419961,2874.42088835158
0.0270496809547396,2874.43088835158
0.0233712593373544,2874.44088835158
0.0196306590514386,2874.45088835158
0.0163819768960917,2874.46088835158
0.0132657138767949,2874.47088835158
0.00997066512158962,2874.48088835158
0.00664389831465201,2874.49088835158
0.00350811298684812,2874.50088835158
0.000132458647173899,2874.51088835158
-0.00344719451573246,2874.52088835158
-0.00773924810150259,2874.53088835158
-0.0114659357119853,2874.54088835158
-0.0150388355302647,2874.55088835158
-0.0190791374097448,2874.56088835158
-0.0230929432529468,2874.57088835158
-0.0273644406132702,2874.58088835158
-0.0314895502973983,2874.59088835158
-0.0346872671420457,2874.60088835158
-0.0365016643564149,2874.61088835158
-0.0357936395252416,2874.62088835158
-0.0314036763390522,2874.63088835158
-0.0228858808279573,2874.64088835158
-0.00888809632436049,2874.65088835158
0.0104099115159215,2874.66088835158
0.0331201182465889,2874.67088835158
0.0584554004014942,2874.68088835158
0.0843110139634791,2874.69088835158
0.108945661761053,2874.70088835158
0.130962951804212,2874.71088835158
0.149728149207889,2874.72088835158
0.165271620145212,2874.73088835158
0.17672351998353,2874.74088835158
0.185399570289634,2874.75088835158
0.191448800140639,2874.76088835158
0.195882793597081,2874.77088835158
0.198602127516905,2874.78088835158
0.200294102828078,2874.79088835158
0.201869332349153,2874.80088835158
0.202930699311292,2874.81088835158
0.204120964253071,2874.82088835158
0.206082379690972,2874.83088835158
0.208781822644482,2874.84088835158
0.211816826574509,2874.85088835158
0.215407685293032,2874.86088835158
0.218923687022854,2874.87088835158
0.222231364219968,2874.88088835158
0.225642840926716,2874.89088835158
0.228351432859589,2874.90088835158
0.230829383597424,2874.91088835158
0.232336796399552,2874.92088835158
0.232337505539182,2874.93088835158
0.231508712721858,2874.94088835158
0.230066567299167,2874.95088835158
0.227261557216411,2874.96088835158
0.224249394352435,2874.97088835158
0.221482288555777,2874.98088835158
0.219079302255624,2874.99088835158
0.216841743914269,2875.00088835158
0.215678190499359,2875.01088835158
0.214521236271117,2875.02088835158
0.21377767370558,2875.03088835158
0.213399738516712,2875.04088835158
0.213119074028973,2875.05088835158
0.213530909980895,2875.06088835158
0.214115087984683,2875.07088835158
0.215265753678017,2875.08088835158
0.215506685618074,2875.09088835158
0.215917249784535,2875.10088835158
0.215563280839398,2875.11088835158
0.215138591671029,2875.12088835158
0.214093427924406,2875.13088835158
0.212425248254175,2875.14088835158
0.209956518497819,2875.15088835158
0.20712686435742,2875.16088835158
0.203869315004821,2875.17088835158
0.200031189980005,2875.18088835158
0.196175879079253,2875.19088835158
0.192051129421693,2875.20088835158
0.187981878120024,2875.21088835158
0.184216714776901,2875.22088835158
0.18050489265639,2875.23088835158
0.176724125651227,2875.24088835158
0.172836501181049,2875.25088835158
0.169079524907346,2875.26088835158
0.164960033588848,2875.27088835158
0.160675359626428,2875.28088835158
0.156010481978599,2875.29088835158
0.151513563476611,2875.30088835158
0.147840318953262,2875.31088835158
0.143765242985798,2875.32088835158
0.139746948022126,2875.33088835158
0.135239862945311,2875.34088835158
0.130682462969275,2875.35088835158
0.126037113865939,2875.36088835158
0.122087072788785,2875.37088835158
0.118449537631264,2875.38088835158
0.11503008620756,2875.39088835158
0.111525487678346,2875.40088835158
0.108147014311576,2875.41088835158
0.104358020280267,2875.42088835158
0.100631967987931,2875.43088835158
0.0967047976815741,2875.44088835158
0.0925324439260093,2875.45088835158
0.0879431631525078,2875.46088835158
0.0835246730576683,2875.47088835158
0.0795413089261338,2875.48088835158
0.0758525463031454,2875.49088835158
0.0723615760480234,2875.50088835158
0.0689364356640393,2875.51088835158
0.0650547046915328,2875.52088835158
0.0618254425888962,2875.53088835158
0.0579742260324263,2875.54088835158
0.0541252813084229,2875.55088835158
0.050126422629144,2875.56088835158
0.045595274083127,2875.57088835158
0.0408200258789779,2875.58088835158
0.0360720700801022,2875.59088835158
0.0318257451397943,2875.60088835158
0.0275987536680927,2875.61088835158
0.0237705807503549,2875.62088835158
0.0194274932208405,2875.63088835158
0.0149516638110588,2875.64088835158
0.0108727915040455,2875.65088835158
0.00608843257263177,2875.66088835158
0.0016834407468664,2875.67088835158
-0.00241615727742981,2875.68088835158
-0.00621663678306136,2875.69088835158
-0.00980775523885665,2875.70088835158
-0.0135253492005552,2875.71088835158
-0.0174204959390938,2875.72088835158
-0.02182043077168,2875.73088835158
-0.0257067965081787,2875.74088835158
-0.0287524126301853,2875.75088835158
-0.0303365555327784,2875.76088835158
-0.0287107334226666,2875.77088835158
-0.0232231146284648,2875.78088835158
-0.0126772167230616,2875.79088835158
0.00363680455916268,2875.80088835158
0.024012106963226,2875.81088835158
0.0475440449271951,2875.82088835158
0.0718680228194588,2875.83088835158
0.094206644945798,2875.84088835158
0.11463926301708,2875.85088835158
0.132172003056771,2875.86088835158
0.146121765093787,2875.87088835158
0.157234689801978,2875.88088835158
0.165130418066568,2875.89088835158
0.170362385192169,2875.90088835158
0.173328750310813,2875.91088835158
0.174295730128351,2875.92088835158
0.173830734438352,2875.93088835158
0.172409115150678,2875.94088835158
0.170815719494293,2875.95088835158
0.169586194475548,2875.96088835158
0.168894213826381,2875.97088835158
0.169135063164766,2875.98088835158
0.169912087832203,2875.99088835158
0.17118764291953,2876.00088835158
0.1727322170439,2876.01088835158
0.173975035503334,2876.02088835158
0.175600122048185,2876.03088835158
0.176596233557014,2876.04088835158
0.177238560841205,2876.05088835158
0.177189844768633,2876.06088835158
0.176361104446868,2876.07088835158
0.174419691315007,2876.08088835158
0.17207089816722,2876.09088835158
0.169120745585043,2876.10088835158
0.16640325480014,2876.11088835158
0.164097123610843,2876.12088835158
0.16191964650153,2876.13088835158
0.161077327500968,2876.14088835158
0.161231261640548,2876.15088835158
0.162173820106368,2876.16088835158
0.16369830795489,2876.17088835158
0.165523550583007,2876.18088835158
0.16756901716091,2876.19088835158
0.169181614333479,2876.20088835158
0.170614214294231,2876.21088835158
0.171567680866023,2876.22088835158
0.17143902388314,2876.23088835158
0.170300285603546,2876.24088835158
0.168052806950237,2876.25088835158
0.165055526350812,2876.26088835158
0.16147546029056,2876.27088835158
0.157324520917011,2876.28088835158
0.152704721253387,2876.29088835158
0.148336422725276,2876.30088835158
0.143708867765558,2876.31088835158
0.139127381896594,2876.32088835158
0.134324706508649,2876.33088835158
0.129246116640882,2876.34088835158
0.124165000990095,2876.35088835158
0.1192219097633,2876.36088835158
0.114943684749308,2876.37088835158
0.111097989247146,2876.38088835158
0.108109397785576,2876.39088835158
0.104785420784274,2876.40088835158
0.101105990841278,2876.41088835158
0.0972517396607106,2876.42088835158
0.09309702802215,2876.43088835158
0.0888897858417636,2876.44088835158
0.0848456767732548,2876.45088835158
0.0811926449458612,2876.46088835158
0.0778209147992199,2876.47088835158
0.0742456834296281,2876.48088835158
0.0708106351061839,2876.49088835158
0.0675398401434187,2876.50088835158
0.0643291781635643,2876.51088835158
0.0608389874600002,2876.52088835158
0.0570598281406901,2876.53088835158
0.0525672304558826,2876.54088835158
0.0482529460344458,2876.55088835158
0.0441171828005093,2876.56088835158
0.0403452807775112,2876.57088835158
0.0363982660515123,2876.58088835158
0.0328682186255718,2876.59088835158
0.0290756050117189,2876.60088835158
0.0251647003285027,2876.61088835158
0.0216896963615097,2876.62088835158
0.0174871583628535,2876.63088835158
0.0133686118401216,2876.64088835158
0.0089157035012214,2876.65088835158
0.0042201373752908,2876.66088835158
0.000286151485992116,2876.67088835158
-0.00348629731439254,2876.68088835158
-0.00737163041220597,2876.69088835158
-0.0111241124945943,2876.70088835158
-0.0151785150774024,2876.71088835158
-0.019636848802479,2876.72088835158
-0.024187288901142,2876.73088835158
-0.0284604677449032,2876.74088835158
-0.032544216822206,2876.75088835158
-0.0367578233944447,2876.76088835158
-0.041452330241937,2876.77088835158
-0.0461801664964769,2876.78088835158
-0.0510560071454236,2876.79088835158
-0.0554301224401389,2876.80088835158
-0.0587720704577103,2876.81088835158
-0.0606069768131998,2876.82088835158
-0.0593278830973749,2876.83088835158
-0.0544387131719567,2876.84088835158
-0.0444769798927646,2876.85088835158
-0.0289906299387882,2876.86088835158
-0.00907780022690489,2876.87088835158
0.014108777977336,2876.88088835158
0.0382465238059307,2876.89088835158
0.0611557505227123,2876.90088835158
0.0814735513259793,2876.91088835158
0.098665502508074,2876.92088835158
0.112404239760789,2876.93088835158
0.122493077392956,2876.94088835158
0.129929082378586,2876.95088835158
0.135104588800328,2876.96088835158
0.138748087407879,2876.97088835158
0.140819141960086,2876.98088835158
0.142346771561904,2876.99088835158
0.143119142039201,2877.00088835158
0.14372427853211,2877.01088835158
0.144826152037305,2877.02088835158
0.146265834351599,2877.03088835158
0.147682637891792,2877.04088835158
0.149730834426704,2877.05088835158
0.152621297066799,2877.06088835158
0.155764419479402,2877.07088835158
0.159927082025564,2877.08088835158
0.163520024459843,2877.09088835158
0.166305335670195,2877.10088835158
0.168276512787319,2877.11088835158
0.168371399803666,2877.12088835158
0.167257215718898,2877.13088835158
0.165390635751076,2877.14088835158
0.163061140575933,2877.15088835158
0.159859380010405,2877.16088835158
0.156497377056274,2877.17088835158
0.153347670438283,2877.18088835158
0.150027805910639,2877.19088835158
0.147666264196236,2877.20088835158
0.145384850087321,2877.21088835158
0.144078660351216,2877.22088835158
0.143350838821726,2877.23088835158
0.143146401578289,2877.24088835158
0.142916079459955,2877.25088835158
0.142747962005083,2877.26088835158
0.142912741666817,2877.27088835158
0.142885155990092,2877.28088835158
0.14295902853911,2877.29088835158
0.142854028201466,2877.30088835158
0.14175477448741,2877.31088835158
0.140218676042836,2877.32088835158
0.137650703394921,2877.33088835158
0.134297527073322,2877.34088835158
0.1309054020318,2877.35088835158
0.126771571478229,2877.36088835158
0.122179517428628,2877.37088835158
0.118066688243777,2877.38088835158
0.113818670046261,2877.39088835158
0.109880107114328,2877.40088835158
0.106253770345028,2877.41088835158
0.102434811414659,2877.42088835158
0.0985279529584606,2877.43088835158
0.0945495803057972,2877.44088835158
0.0905836370805958,2877.45088835158
0.0865527497142978,2877.46088835158
0.0826198808739651,2877.47088835158
0.0791574713826799,2877.48088835158
0.0758148562310687,2877.49088835158
0.0724474788606068,2877.50088835158
0.0694542116360797,2877.51088835158
0.0662845196394599,2877.52088835158
0.0628177882480242,2877.53088835158
0.0589812534226573,2877.54088835158
0.0549928564901488,2877.55088835158
0.0514048571682412,2877.56088835158
0.0477117624166108,2877.57088835158
0.0446024861749505,2877.58088835158
0.041116916142831,2877.59088835158
0.0372404246607315,2877.60088835158
0.0332437550183191,2877.61088835158
0.0285759106490704,2877.62088835158
0.0240433585503216,2877.63088835158
0.0192367264733068,2877.64088835158
0.0150553468349209,2877.65088835158
0.010803239330016,2877.66088835158
0.00637340639402,2877.67088835158
0.00259054304248294,2877.68088835158
-0.00146421520679406,2877.69088835158
-0.00526476426939581,2877.70088835158
-0.00930848750397893,2877.71088835158
-0.0133282844282035,2877.72088835158
-0.0178001497530724,2877.73088835158
-0.0227335305144255,2877.74088835158
-0.0277279076963836,2877.75088835158
-0.0328004353503102,2877.76088835158
-0.0370425051292385,2877.77088835158
-0.0410021295711009,2877.78088835158
-0.043981350827355,2877.79088835158
-0.0456439709932292,2877.80088835158
-0.044854263628177,2877.81088835158
-0.0411258515681431,2877.82088835158
-0.0335462315893681,2877.83088835158
-0.0216289602980398,2877.84088835158
-0.00665249560807518,2877.85088835158
0.0105536448549604,2877.86088835158
0.0292691008319745,2877.87088835158
0.0473871357173916,2877.88088835158
0.0639878255532515,2877.89088835158
0.0781641038591424,2877.90088835158
0.0891258401764326,2877.91088835158
0.0971101293478459,2877.92088835158
0.102397388919136,2877.93088835158
0.105647506172241,2877.94088835158
0.107357629742791,2877.95088835158
0.107773624770813,2877.96088835158
0.107457492840326,2877.97088835158
0.107664558112879,2877.98088835158
0.107876870901098,2877.99088835158
0.107913426476425,2878.00088835158
0.108503173765322,2878.01088835158
0.109309613999162,2878.02088835158
0.111013044524222,2878.03088835158
0.112799563737933,2878.04088835158
0.114587499221436,2878.05088835158
0.115774173674128,2878.06088835158
0.116862321057315,2878.07088835158
0.117159698695263,2878.08088835158
0.117507082685564,2878.09088835158
0.116175841547975,2878.10088835158
0.114447724579555,2878.11088835158
0.111793685837835,2878.12088835158
0.10800331684682,2878.13088835158
0.1039717479495,2878.14088835158
0.0996769580953719,2878.15088835158
0.0958364431541652,2878.16088835158
0.0927291013096076,2878.17088835158
0.0903537343173082,2878.18088835158
0.0889072102874507,2878.19088835158
0.0878869254960178,2878.20088835158
0.0869465521150562,2878.21088835158
0.085673734272263,2878.22088835158
0.0845127875496918,2878.23088835158
0.0829493911661225,2878.24088835158
0.0813977742976011,2878.25088835158
0.0800204722700249,2878.26088835158
0.0781692096294781,2878.27088835158
0.0763913469605236,2878.28088835158
0.0748232662529301,2878.29088835158
0.0735742778954782,2878.30088835158
0.0720329728826949,2878.31088835158
0.0700372328218418,2878.32088835158
0.0678629393125973,2878.33088835158
0.0649361134230759,2878.34088835158
0.0610376259877904,2878.35088835158
0.0571139444044565,2878.36088835158
0.0528707230767907,2878.37088835158
0.0486907481274448,2878.38088835158
0.0447766144762348,2878.39088835158
0.0405334004406374,2878.40088835158
0.0365652238140293,2878.41088835158
0.0324821312145954,2878.42088835158
0.0282953095754612,2878.43088835158
0.023866375607118,2878.44088835158
0.019636017527844,2878.45088835158
0.0158416110958993,2878.46088835158
0.01199608285241,2878.47088835158
0.00835177289567544,2878.48088835158
0.00453589373628941,2878.49088835158
0.000912055371192798,2878.50088835158
-0.00278980247807071,2878.51088835158
-0.006217391755315,2878.52088835158
-0.00974090871195956,2878.53088835158
-0.0136213542217438,2878.54088835158
-0.0172624403816315,2878.55088835158
-0.0209389703954469,2878.56088835158
-0.0249240477557223,2878.57088835158
-0.0291587520050389,2878.58088835158
-0.0343325907187062,2878.59088835158
-0.0395621730135972,2878.60088835158
-0.0445719052180407,2878.61088835158
-0.0496133101312293,2878.62088835158
-0.0540553819928729,2878.63088835158
-0.0583482014328954,2878.64088835158
-0.0625608051341406,2878.65088835158
-0.0665708631324209,2878.66088835158
-0.0708014333291051,2878.67088835158
-0.0751216587551375,2878.68088835158
-0.0793164009488471,2878.69088835158
-0.0825043798143493,2878.70088835158
-0.0847419779244574,2878.71088835158
-0.0846577943923362,2878.72088835158
-0.0819240358407802,2878.73088835158
-0.0750010798280261,2878.74088835158
-0.064603423416297,2878.75088835158
-0.0506284139540308,2878.76088835158
-0.0352209186954686,2878.77088835158
-0.0194673001694097,2878.78088835158
-0.00488696949039339,2878.79088835158
0.00764474551498561,2878.80088835158
0.017753863371689,2878.81088835158
0.0251076195957504,2878.82088835158
0.0303053096115087,2878.83088835158
0.0332062439606876,2878.84088835158
0.0350030270197618,2878.85088835158
0.0359789152931017,2878.86088835158
0.0364875979612516,2878.87088835158
0.036580117220155,2878.88088835158
0.0363314406018197,2878.89088835158
0.0358602427774492,2878.90088835158
0.0355671745375562,2878.91088835158
0.0353766946416071,2878.92088835158
0.0361297289637853,2878.93088835158
0.0370080438357982,2878.94088835158
0.037968451108842,2878.95088835158
0.0390737859937629,2878.96088835158
0.040067216930443,2878.97088835158
0.0405474452015546,2878.98088835158
0.0406474391969031,2878.99088835158
0.0397981510332634,2879.00088835158
0.0377823714614316,2879.01088835158
0.0346065010921903,2879.02088835158
0.0308872216272486,2879.03088835158
0.0268755972920561,2879.04088835158
0.0234734925700586,2879.05088835158
0.0204096312945194,2879.06088835158
0.0178718230900344,2879.07088835158
0.0159226481270399,2879.08088835158
0.0146937046904344,2879.09088835158
0.0140009218357094,2879.10088835158
0.0139857670311845,2879.11088835158
0.0139590474025563,2879.12088835158
0.0135174721123429,2879.13088835158
0.0134403369089791,2879.14088835158
0.0125956438901646,2879.15088835158
0.0118703026380081,2879.16088835158
0.0105926949954802,2879.17088835158
0.00899062729385144,2879.18088835158
0.00689374394241642,2879.19088835158
0.00443124122957991,2879.20088835158
0.00135182624388757,2879.21088835158
-0.00164616676221095,2879.22088835158
-0.00483298380379337,2879.23088835158
-0.0081182598609951,2879.24088835158
-0.0119265794876971,2879.25088835158
-0.0157216196629117,2879.26088835158
-0.019550585909777,2879.27088835158
-0.0229094883058185,2879.28088835158
-0.0264771907414379,2879.29088835158
-0.0301877276741439,2879.30088835158
-0.0332897532071357,2879.31088835158
-0.0363793369660586,2879.32088835158
-0.0395332577347316,2879.33088835158
-0.0424422233935904,2879.34088835158
-0.0454675545527701,2879.35088835158
-0.0483883925395245,2879.36088835158
-0.0518831187040476,2879.37088835158
-0.0554951337899309,2879.38088835158
-0.0592861012083345,2879.39088835158
-0.0629999052024154,2879.40088835158
-0.066819136288724,2879.41088835158
-0.0705337467466326,2879.42088835158
-0.0739136543270383,2879.43088835158
-0.0776278269435269,2879.44088835158
-0.0814420568491494,2879.45088835158
-0.0849024029119039,2879.46088835158
-0.0884943808439139,2879.47088835158
-0.0925803403961812,2879.48088835158
-0.0962534259722756,2879.49088835158
-0.100464955213035,2879.50088835158
-0.10451767206364,2879.51088835158
-0.108890722493895,2879.52088835158
-0.112707775024396,2879.53088835158
-0.116291660028624,2879.54088835158
-0.119182555183345,2879.55088835158
-0.119542090398354,2879.56088835158
-0.117811658157883,2879.57088835158
-0.112764897740397,2879.58088835158
-0.104836850164715,2879.59088835158
-0.0939912708232758,2879.60088835158
-0.0814067134126615,2879.61088835158
-0.0676102930705539,2879.62088835158
-0.0543367146274011,2879.63088835158
-0.0415985563993849,2879.64088835158
-0.0307419554066315,2879.65088835158
-0.0216222044860879,2879.66088835158
-0.0145445650672198,2879.67088835158
-0.00951940327947373,2879.68088835158
-0.00699908794681493,2879.69088835158
-0.00612930564744083,2879.70088835158
-0.0068297130845997,2879.71088835158
-0.007860093907722,2879.72088835158
-0.00937068145713924,2879.73088835158
-0.0105106981137685,2879.74088835158
-0.0117054514964947,2879.75088835158
-0.0125687370011921,2879.76088835158
-0.013169530476157,2879.77088835158
-0.012840658192682,2879.78088835158
-0.0121152743748629,2879.79088835158
-0.01133021853364,2879.80088835158
-0.00998830938173875,2879.81088835158
-0.00903759690913848,2879.82088835158
-0.00873396657605025,2879.83088835158
-0.00870117489159795,2879.84088835158
-0.00991440036957462,2879.85088835158
-0.0122429256441929,2879.86088835158
-0.0149897555725863,2879.87088835158
-0.0182363883417555,2879.88088835158
-0.021490291434736,2879.89088835158
-0.0245999375946944,2879.90088835158
-0.0277436830727945,2879.91088835158
-0.030595707141556,2879.92088835158
-0.0330328113396584,2879.93088835158
-0.034690464795495,2879.94088835158
-0.0356756225819687,2879.95088835158
-0.0362496147500512,2879.96088835158
-0.0362033081296356,2879.97088835158
-0.035958054907219,2879.98088835158
-0.0359716250550271,2879.99088835158
-0.0362730901778103,2880.00088835158
-0.0372228142921849,2880.01088835158
-0.0381477914835237,2880.02088835158
-0.0395832849415182,2880.03088835158
-0.0411895944237275,2880.04088835158
-0.0428708476582018,2880.05088835158
-0.045281730447186,2880.06088835158
-0.0476678188515652,2880.07088835158
-0.0508242364948073,2880.08088835158
-0.0536427829985731,2880.09088835158
-0.056094662987776,2880.10088835158
-0.0583942551926046,2880.11088835158
-0.060821305085846,2880.12088835158
-0.063351101325741,2880.13088835158
-0.066253032487259,2880.14088835158
-0.0693425021440803,2880.15088835158
-0.0725906756384943,2880.16088835158
-0.0762534393320862,2880.17088835158
-0.0797876944239422,2880.18088835158
-0.0832632391773943,2880.19088835158
-0.0861301767573623,2880.20088835158
-0.0889743277805368,2880.21088835158
-0.0916107884998101,2880.22088835158
-0.0941647119750853,2880.23088835158
-0.0971079607693472,2880.24088835158
-0.100184785654079,2880.25088835158
-0.1031106610452,2880.26088835158
-0.105904913651522,2880.27088835158
-0.108532941314725,2880.28088835158
-0.111088077266242,2880.29088835158
-0.113612239621554,2880.30088835158
-0.11656753504129,2880.31088835158
-0.119596796330284,2880.32088835158
-0.123437367863899,2880.33088835158
-0.127498655945735,2880.34088835158
-0.131621579546544,2880.35088835158
-0.135631055404987,2880.36088835158
-0.139679126755438,2880.37088835158
-0.144133986686829,2880.38088835158
-0.149023187773593,2880.39088835158
-0.153699481123591,2880.40088835158
-0.158353071322731,2880.41088835158
-0.161948021220451,2880.42088835158
-0.164505760763054,2880.43088835158
-0.16504886082106,2880.44088835158
-0.162875584845308,2880.45088835158
-0.157637605589847,2880.46088835158
-0.150117816992008,2880.47088835158
-0.140276462356999,2880.48088835158
-0.129273805751983,2880.49088835158
-0.117737874699581,2880.50088835158
-0.106896540085887,2880.51088835158
-0.097330192772129,2880.52088835158
-0.0890569555960847,2880.53088835158
-0.0829158824463733,2880.54088835158
-0.078398315176347,2880.55088835158
-0.075989931924841,2880.56088835158
-0.0752372271284348,2880.57088835158
-0.0756005742208491,2880.58088835158
-0.0767515988331515,2880.59088835158
-0.0785167954743052,2880.60088835158
-0.0803681336698554,2880.61088835158
-0.0818763362733858,2880.62088835158
-0.0836874998684933,2880.63088835158
-0.0849020173254825,2880.64088835158
-0.0860196955565382,2880.65088835158
-0.0872377992967998,2880.66088835158
-0.0876651615771971,2880.67088835158
-0.0872108823821646,2880.68088835158
-0.0867100318016231,2880.69088835158
-0.0859527046514918,2880.70088835158
-0.0856339629388097,2880.71088835158
-0.0867759269333471,2880.72088835158
-0.0889876737609,2880.73088835158
-0.0923037918377133,2880.74088835158
-0.096263964631322,2880.75088835158
-0.100766303432052,2880.76088835158
-0.105056964266695,2880.77088835158
-0.109150439921774,2880.78088835158
-0.112182131864848,2880.79088835158
-0.114361815842195,2880.80088835158
-0.11510031074494,2880.81088835158
-0.115040845552812,2880.82088835158
-0.114510598569937,2880.83088835158
-0.114055112042905,2880.84088835158
-0.11398529482625,2880.85088835158
-0.114548380657663,2880.86088835158
-0.115178039735011,2880.87088835158
-0.116375319003566,2880.88088835158
-0.117425849968427,2880.89088835158
-0.118898065446377,2880.90088835158
-0.12051017823632,2880.91088835158
-0.122732885054621,2880.92088835158
-0.125168893040287,2880.93088835158
-0.127790276402732,2880.94088835158
-0.130908611345041,2880.95088835158
-0.134088491503773,2880.96088835158
-0.137623766950694,2880.97088835158
-0.14045721201842,2880.98088835158
-0.143348571840828,2880.99088835158
-0.146307095660193,2881.00088835158
-0.149078051703218,2881.01088835158
-0.152269643912397,2881.02088835158
-0.155692581067153,2881.03088835158
-0.159346924919748,2881.04088835158
-0.163173832144914,2881.05088835158
-0.166939776834597,2881.06088835158
-0.170533989559356,2881.07088835158
-0.173833576968532,2881.08088835158
-0.177034791600302,2881.09088835158
-0.180177893271104,2881.10088835158
-0.183155620269729,2881.11088835158
-0.186643559346883,2881.12088835158
-0.189989512838415,2881.13088835158
-0.193834342166965,2881.14088835158
-0.197573450101332,2881.15088835158
-0.201036034347808,2881.16088835158
-0.204874267549348,2881.17088835158
-0.208299184469127,2881.18088835158
-0.21204703940666,2881.19088835158
-0.216006705622001,2881.20088835158
-0.219677532371882,2881.21088835158
-0.2230246354314,2881.22088835158
-0.225796870897555,2881.23088835158
-0.228498723462237,2881.24088835158
-0.231118661575587,2881.25088835158
-0.234178419543957,2881.26088835158
-0.237898769120597,2881.27088835158
-0.241380415557057,2881.28088835158
-0.24482831118792,2881.29088835158
-0.248479099098397,2881.30088835158
-0.252023550373547,2881.31088835158
-0.255642206609769,2881.32088835158
-0.259395243181088,2881.33088835158
-0.263325682869495,2881.34088835158
-0.267283316793598,2881.35088835158
-0.270463857811323,2881.36088835158
-0.272471540347993,2881.37088835158
-0.273024872756769,2881.38088835158
-0.27141579877451,2881.39088835158
-0.26688107109022,2881.40088835158
-0.259398175579134,2881.41088835158
-0.250376757115331,2881.42088835158
-0.2404184045836,2881.43088835158
-0.2303803249963,2881.44088835158
-0.220696017069085,2881.45088835158
-0.211776073097442,2881.46088835158
-0.204100106875139,2881.47088835158
-0.197661601144371,2881.48088835158
-0.193147994297135,2881.49088835158
-0.190663185013755,2881.50088835158
-0.190317017159832,2881.51088835158
-0.191537356870314,2881.52088835158
-0.193236388805851,2881.53088835158
-0.195391940630048,2881.54088835158
-0.197403088792805,2881.55088835158
-0.198873865269336,2881.56088835158
-0.199861732356071,2881.57088835158
-0.200291563467349,2881.58088835158
-0.200160382149312,2881.59088835158
-0.199714911186861,2881.60088835158
-0.199481816332438,2881.61088835158
-0.199034078819573,2881.62088835158
-0.199077855953476,2881.63088835158
-0.200197219525753,2881.64088835158
-0.202217008980734,2881.65088835158
-0.204598072973252,2881.66088835158
-0.207501454266704,2881.67088835158
-0.21018156935583,2881.68088835158
-0.212704521531769,2881.69088835158
-0.214872694807121,2881.70088835158
-0.21618388678792,2881.71088835158
-0.217252322700228,2881.72088835158
-0.218008590630415,2881.73088835158
-0.218320692404393,2881.74088835158
-0.218732117028858,2881.75088835158
-0.219229191336526,2881.76088835158
-0.21983185518335,2881.77088835158
-0.220433616440233,2881.78088835158
-0.220395939696892,2881.79088835158
-0.220235088365335,2881.80088835158
-0.220818738112036,2881.81088835158
-0.22158845489681,2881.82088835158
-0.22246342570102,2881.83088835158
-0.223858065827882,2881.84088835158
-0.225655800465098,2881.85088835158
-0.227491868581619,2881.86088835158
-0.229587509343592,2881.87088835158
-0.231839157953344,2881.88088835158
-0.234704544859906,2881.89088835158
-0.238244839788069,2881.90088835158
-0.241572847900957,2881.91088835158
-0.244496010509253,2881.92088835158
-0.247272910142123,2881.93088835158
-0.250140091828681,2881.94088835158
-0.253163199127415,2881.95088835158
-0.256019821026403,2881.96088835158
-0.258648465524416,2881.97088835158
-0.261888666609893,2881.98088835158
-0.264807407931077,2881.99088835158
-0.268340993536853,2882.00088835158
-0.271471219079288,2882.01088835158
-0.274555588844297,2882.02088835158
-0.277281544239863,2882.03088835158
-0.279868409325652,2882.04088835158
-0.282428243575947,2882.05088835158
-0.285170363552487,2882.06088835158
-0.287673542620857,2882.07088835158
-0.290065127684107,2882.08088835158
-0.292077651147948,2882.09088835158
-0.294470445376121,2882.10088835158
-0.29667326195359,2882.11088835158
-0.299202579031008,2882.12088835158
-0.301975999323347,2882.13088835158
-0.304367566557181,2882.14088835158
-0.306954090056813,2882.15088835158
-0.309962965665133,2882.16088835158
-0.312874397947774,2882.17088835158
-0.315855395013707,2882.18088835158
-0.318563253900892,2882.19088835158
-0.320872508876638,2882.20088835158
-0.323500640936441,2882.21088835158
-0.325632514078811,2882.22088835158
-0.328155542409064,2882.23088835158
-0.330416149479673,2882.24088835158
-0.33304463113572,2882.25088835158
-0.335669154733128,2882.26088835158
-0.3384141742155,2882.27088835158
-0.340602544754249,2882.28088835158
-0.342848269736193,2882.29088835158
-0.345061425156435,2882.30088835158
-0.347699931631265,2882.31088835158
-0.350924970260215,2882.32088835158
-0.354689013269541,2882.33088835158
-0.358053391808359,2882.34088835158
-0.360418138917164,2882.35088835158
-0.36137121622239,2882.36088835158
-0.360237311338953,2882.37088835158
-0.356664566666916,2882.38088835158
-0.350671700828314,2882.39088835158
-0.342118486422842,2882.40088835158
-0.332964287010962,2882.41088835158
-0.322373093971058,2882.42088835158
-0.311727716424167,2882.43088835158
-0.301691415900184,2882.44088835158
-0.291843269444774,2882.45088835158
-0.283240959554354,2882.46088835158
-0.275896940994454,2882.47088835158
-0.270173501197041,2882.48088835158
-0.266485674824921,2882.49088835158
-0.263734109538517,2882.50088835158
-0.262791526474952,2882.51088835158
-0.262403187984383,2882.52088835158
-0.262093973486651,2882.53088835158
-0.261828734315128,2882.54088835158
-0.261240478071061,2882.55088835158
-0.260514722196695,2882.56088835158
-0.259825700293746,2882.57088835158
-0.259157565979973,2882.58088835158
-0.258122832684611,2882.59088835158
-0.256731333020113,2882.60088835158
-0.254969028582613,2882.61088835158
-0.252800672738509,2882.62088835158
-0.251534906112452,2882.63088835158
-0.250696339307837,2882.64088835158
-0.250528728081753,2882.65088835158
-0.250617470700748,2882.66088835158
-0.251108834420722,2882.67088835158
-0.252745377809725,2882.68088835158
-0.254193742498791,2882.69088835158
-0.255717538495678,2882.70088835158
-0.256961984816098,2882.71088835158
-0.257630276115207,2882.72088835158
-0.257852269082449,2882.73088835158
-0.258024907803305,2882.74088835158
-0.257953564109468,2882.75088835158
-0.257359611433921,2882.76088835158
-0.256424595651226,2882.77088835158
-0.255582610972902,2882.78088835158
-0.253738616097709,2882.79088835158
-0.251499690969357,2882.80088835158
-0.248795744341059,2882.81088835158
-0.246316627164986,2882.82088835158
-0.243852671069964,2882.83088835158
-0.242135054337554,2882.84088835158
-0.241117217072753,2882.85088835158
-0.241046100618548,2882.86088835158
-0.241876105198356,2882.87088835158
-0.242907571764024,2882.88088835158
-0.244156679960413,2882.89088835158
-0.245292586006088,2882.90088835158
-0.246376643877535,2882.91088835158
-0.247066358295153,2882.92088835158
-0.247770316823696,2882.93088835158
-0.249141517351494,2882.94088835158
-0.250890886158519,2882.95088835158
-0.252374044517564,2882.96088835158
-0.25430423356336,2882.97088835158
-0.256151126024289,2882.98088835158
-0.258145356660068,2882.99088835158
-0.260547195873785,2883.00088835158
-0.263081755710264,2883.01088835158
-0.265642828351839,2883.02088835158
-0.268318702542501,2883.03088835158
-0.271043807159356,2883.04088835158
-0.273220153553353,2883.05088835158
-0.276134135929605,2883.06088835158
-0.277877618910207,2883.07088835158
-0.279961588683012,2883.08088835158
-0.281616911557341,2883.09088835158
-0.282893423128309,2883.10088835158
-0.284726963398057,2883.11088835158
-0.286274668242206,2883.12088835158
-0.288136305824963,2883.13088835158
-0.289547891090941,2883.14088835158
-0.2910382655341,2883.15088835158
-0.291717570491649,2883.16088835158
-0.293348707305336,2883.17088835158
-0.295042309641664,2883.18088835158
-0.296985480848797,2883.19088835158
-0.298869677836087,2883.20088835158
-0.300991869630171,2883.21088835158
-0.302913220835025,2883.22088835158
-0.304991472834064,2883.23088835158
-0.306985881139692,2883.24088835158
-0.309615893331822,2883.25088835158
-0.312546705083948,2883.26088835158
-0.315079803979057,2883.27088835158
-0.317535344322397,2883.28088835158
-0.320043431175928,2883.29088835158
-0.32223914661459,2883.30088835158
-0.324361353256609,2883.31088835158
-0.326405213851724,2883.32088835158
-0.328729290633656,2883.33088835158
-0.330630518825706,2883.34088835158
-0.332781407819594,2883.35088835158
-0.33450505674478,2883.36088835158
-0.335829527276857,2883.37088835158
-0.336279116511284,2883.38088835158
-0.335710377596138,2883.39088835158
-0.333732821384254,2883.40088835158
-0.329603666997842,2883.41088835158
-0.322913652108781,2883.42088835158
-0.313904858917824,2883.43088835158
-0.302994529300109,2883.44088835158
-0.290541182983255,2883.45088835158
-0.278381352329222,2883.46088835158
-0.267250498764943,2883.47088835158
-0.257002465844978,2883.48088835158
-0.248128237853363,2883.49088835158
-0.240980824854472,2883.50088835158
-0.23570487764988,2883.51088835158
-0.231057736378801,2883.52088835158
-0.227569039925819,2883.53088835158
-0.224419950852614,2883.54088835158
-0.222234774479558,2883.55088835158
-0.220215631877878,2883.56088835158
-0.217749191448949,2883.57088835158
-0.216018364624709,2883.58088835158
-0.21385264285057,2883.59088835158
-0.211789098840581,2883.60088835158
-0.209661250991043,2883.61088835158
-0.206923578011092,2883.62088835158
-0.204170040073076,2883.63088835158
-0.201473497129422,2883.64088835158
-0.199044938996973,2883.65088835158
-0.197096055298674,2883.66088835158
-0.195021701684953,2883.67088835158
-0.194088497450317,2883.68088835158
-0.193419385268121,2883.69088835158
-0.193207252875599,2883.70088835158
-0.193791338640754,2883.71088835158
-0.194874030447522,2883.72088835158
-0.196580275910945,2883.73088835158
-0.19779503631112,2883.74088835158
-0.197982638875827,2883.75088835158
-0.197131956683943,2883.76088835158
-0.195882396061703,2883.77088835158
-0.194333575453459,2883.78088835158
-0.192881673326183,2883.79088835158
-0.191681932324061,2883.80088835158
-0.190436577893324,2883.81088835158
-0.189330568548252,2883.82088835158
-0.188163491685692,2883.83088835158
-0.186832087293422,2883.84088835158
-0.185404530563418,2883.85088835158
-0.184120448064068,2883.86088835158
-0.183555941702704,2883.87088835158
-0.183257538122481,2883.88088835158
-0.183588758803144,2883.89088835158
-0.183944959566636,2883.90088835158
-0.184908416423811,2883.91088835158
-0.18610326889732,2883.92088835158
-0.187592056694716,2883.93088835158
-0.188759557066736,2883.94088835158
-0.190533098049909,2883.95088835158
-0.192349138728927,2883.96088835158
-0.194176158826096,2883.97088835158
-0.195725552549986,2883.98088835158
-0.197310748854661,2883.99088835158
-0.198650451505826,2884.00088835158
-0.200385867946063,2884.01088835158
-0.20226890978309,2884.02088835158
-0.203953473515845,2884.03088835158
-0.206034249539665,2884.04088835158
-0.208131616974242,2884.05088835158
-0.210192408520935,2884.06088835158
-0.212070842249986,2884.07088835158
-0.214066498020716,2884.08088835158
-0.216080331630205,2884.09088835158
-0.218020037954996,2884.10088835158
-0.219906932289119,2884.11088835158
-0.222042938240342,2884.12088835158
-0.223911462935012,2884.13088835158
-0.225881586328296,2884.14088835158
-0.227362986246592,2884.15088835158
-0.229132522436369,2884.16088835158
-0.230894725021207,2884.17088835158
-0.232359384438963,2884.18088835158
-0.234129600618341,2884.19088835158
-0.235934683143601,2884.20088835158
-0.237815384658721,2884.21088835158
-0.239361766065201,2884.22088835158
-0.240925951346558,2884.23088835158
-0.242371616871632,2884.24088835158
-0.244047078893459,2884.25088835158
-0.246150193964773,2884.26088835158
-0.24853178393257,2884.27088835158
-0.251207903706134,2884.28088835158
-0.253887252340602,2884.29088835158
-0.256607914240174,2884.30088835158
-0.258933190690674,2884.31088835158
-0.261177672643938,2884.32088835158
-0.263165084669354,2884.33088835158
-0.265305074565657,2884.34088835158
-0.26756345874927,2884.35088835158
-0.270015944408253,2884.36088835158
-0.272471854412353,2884.37088835158
-0.274982986289421,2884.38088835158
-0.277398334576979,2884.39088835158
-0.27957425916906,2884.40088835158
-0.281782886996418,2884.41088835158
-0.284294726233957,2884.42088835158
-0.287369425970633,2884.43088835158
-0.290514518077247,2884.44088835158
-0.294346278173532,2884.45088835158
-0.297760972100421,2884.46088835158
-0.300368495137811,2884.47088835158
-0.302477133882572,2884.48088835158
-0.303955000645651,2884.49088835158
-0.303790680741959,2884.50088835158
-0.302341392972208,2884.51088835158
-0.29866574252086,2884.52088835158
-0.292307729922168,2884.53088835158
-0.283636280040934,2884.54088835158
-0.272774229567609,2884.55088835158
-0.261299499464344,2884.56088835158
-0.249825274430739,2884.57088835158
-0.238807916754697,2884.58088835158
-0.228572902217525,2884.59088835158
-0.219852714017577,2884.60088835158
-0.211947575702231,2884.61088835158
-0.205257885231235,2884.62088835158
-0.199959624876957,2884.63088835158
-0.195153866769081,2884.64088835158
-0.191792764667302,2884.65088835158
-0.189270681884462,2884.66088835158
-0.187212182642267,2884.67088835158
-0.18572937746744,2884.68088835158
-0.18426785551993,2884.69088835158
-0.182976532856728,2884.70088835158
-0.181163202546184,2884.71088835158
-0.179329606080366,2884.72088835158
-0.176824656998933,2884.73088835158
-0.174769761754934,2884.74088835158
-0.172574232064456,2884.75088835158
-0.170823390664819,2884.76088835158
-0.168966553782678,2884.77088835158
-0.16787474983621,2884.78088835158
-0.167419526036627,2884.79088835158
-0.16707874830189,2884.80088835158
-0.16665980595359,2884.81088835158
-0.167307176991486,2884.82088835158
-0.16787929915301,2884.83088835158
-0.168524423283811,2884.84088835158
-0.169438945229585,2884.85088835158
-0.169873517712509,2884.86088835158
-0.169735010213986,2884.87088835158
-0.16899084746735,2884.88088835158
-0.168222302781697,2884.89088835158
-0.167213410299571,2884.90088835158
-0.165711710198107,2884.91088835158
-0.163574600980682,2884.92088835158
-0.162053965086779,2884.93088835158
-0.160143369475522,2884.94088835158
-0.159157491208012,2884.95088835158
-0.15870598085582,2884.96088835158
-0.158323565992839,2884.97088835158
-0.158331372536322,2884.98088835158
-0.159183602658432,2884.99088835158
-0.159956709868809,2885.00088835158
-0.161122280181892,2885.01088835158
-0.162805679605382,2885.02088835158
-0.164409295196486,2885.03088835158
-0.166273843409281,2885.04088835158
-0.167700626800721,2885.05088835158
-0.168875903551793,2885.06088835158
-0.170099493883935,2885.07088835158
-0.171542075171894,2885.08088835158
-0.173214847306593,2885.09088835158
-0.174577957920803,2885.10088835158
-0.176362459895228,2885.11088835158
-0.17833566387912,2885.12088835158
-0.180177171645863,2885.13088835158
-0.182397366457778,2885.14088835158
-0.184239941945246,2885.15088835158
-0.185813295583797,2885.16088835158
-0.186731268075422,2885.17088835158
-0.187635253540627,2885.18088835158
-0.188369969150785,2885.19088835158
-0.189350902656336,2885.20088835158
-0.190467161063886,2885.21088835158
-0.191516269234503,2885.22088835158
-0.19276288306168,2885.23088835158
-0.193974281800883,2885.24088835158
-0.195473834429199,2885.25088835158
-0.19726602989632,2885.26088835158
-0.199146570422006,2885.27088835158
-0.201215797077581,2885.28088835158
-0.203600711698225,2885.29088835158
-0.206221061481382,2885.30088835158
-0.20849260782414,2885.31088835158
-0.210672764173012,2885.32088835158
-0.212507443758492,2885.33088835158
-0.214115528685311,2885.34088835158
-0.215877405904722,2885.35088835158
-0.217834307041289,2885.36088835158
-0.219882497945811,2885.37088835158
-0.222400169748797,2885.38088835158
-0.224776165763305,2885.39088835158
-0.227489991276583,2885.40088835158
-0.229793543935862,2885.41088835158
-0.232176000474469,2885.42088835158
-0.234051946227039,2885.43088835158
-0.236261004738043,2885.44088835158
-0.238167925296561,2885.45088835158
-0.240143879269371,2885.46088835158
-0.242528562416774,2885.47088835158
-0.245013002712807,2885.48088835158
-0.246922175600697,2885.49088835158
-0.248990088373319,2885.50088835158
-0.251316333017927,2885.51088835158
-0.253379919567181,2885.52088835158
-0.25598551980703,2885.53088835158
-0.258390342508392,2885.54088835158
-0.260539938319642,2885.55088835158
-0.262121253006832,2885.56088835158
-0.262937756220076,2885.57088835158
-0.263246856430046,2885.58088835158
-0.262080984171196,2885.59088835158
-0.259031793925949,2885.60088835158
-0.253227816909437,2885.61088835158
-0.244342279877634,2885.62088835158
-0.23269619667911,2885.63088835158
-0.219319757845287,2885.64088835158
-0.205371389151618,2885.65088835158
-0.191107870840128,2885.66088835158
-0.178415952064465,2885.67088835158
-0.166232418517224,2885.68088835158
-0.155434159993523,2885.69088835158
-0.146538334544941,2885.70088835158
-0.139168974452099,2885.71088835158
-0.133162624594327,2885.72088835158
-0.128866789327806,2885.73088835158
-0.125341890929926,2885.74088835158
-0.122296396419516,2885.75088835158
-0.120254385390292,2885.76088835158
-0.117608132400318,2885.77088835158
-0.115190139648525,2885.78088835158
-0.1128190140334,2885.79088835158
-0.110551790204932,2885.80088835158
-0.108388237798949,2885.81088835158
-0.106171665662322,2885.82088835158
-0.103951510870923,2885.83088835158
-0.101525714091225,2885.84088835158
-0.0994939112478101,2885.85088835158
-0.0973322253099869,2885.86088835158
-0.095879239120884,2885.87088835158
-0.0951070276452283,2885.88088835158
-0.0946612575736678,2885.89088835158
-0.0952768589013607,2885.90088835158
-0.0957905855756602,2885.91088835158
-0.0966844206767267,2885.92088835158
-0.0974665068677796,2885.93088835158
-0.0979105727827023,2885.94088835158
-0.0981308097140941,2885.95088835158
-0.097601830374013,2885.96088835158
-0.096703706869208,2885.97088835158
-0.0950444306196217,2885.98088835158
-0.0926563299964729,2885.99088835158
-0.0894706353379796,2886.00088835158
-0.0862894112691962,2886.01088835158
-0.0829253968885839,2886.02088835158
-0.0805117118075518,2886.03088835158
-0.0788543371479185,2886.04088835158
-0.0778329459846658,2886.05088835158
-0.0786033753435245,2886.06088835158
-0.0798215557477292,2886.07088835158
-0.081252453366969,2886.08088835158
-0.0828597232142482,2886.09088835158
-0.0849154225936786,2886.10088835158
-0.0871153455882566,2886.11088835158
-0.0898485255595694,2886.12088835158
-0.0922622175330086,2886.13088835158
-0.0947293322988152,2886.14088835158
-0.0971015928748729,2886.15088835158
-0.0989805573098166,2886.16088835158
-0.100659581565219,2886.17088835158
-0.101858955825614,2886.18088835158
-0.10326802703669,2886.19088835158
-0.104566349315526,2886.20088835158
-0.105592643350988,2886.21088835158
-0.106562025837956,2886.22088835158
-0.107269878750806,2886.23088835158
-0.108071239331355,2886.24088835158
-0.108337208971811,2886.25088835158
-0.108730368011509,2886.26088835158
-0.108917441253527,2886.27088835158
-0.109562645641449,2886.28088835158
-0.110323091251712,2886.29088835158
-0.111772396448471,2886.30088835158
-0.113300435285216,2886.31088835158
-0.114856342690823,2886.32088835158
-0.116444120145185,2886.33088835158
-0.118140648891825,2886.34088835158
-0.120422026782605,2886.35088835158
-0.122304798807526,2886.36088835158
-0.124216925458771,2886.37088835158
-0.126265409067091,2886.38088835158
-0.128457732088528,2886.39088835158
-0.131079096139873,2886.40088835158
-0.133237020677113,2886.41088835158
-0.135427510154737,2886.42088835158
-0.137250078377865,2886.43088835158
-0.13885163573037,2886.44088835158
-0.140739687524789,2886.45088835158
-0.143180022630536,2886.46088835158
-0.146017020813034,2886.47088835158
-0.148676308041391,2886.48088835158
-0.151175905255642,2886.49088835158
-0.153265160664236,2886.50088835158
-0.154879308322981,2886.51088835158
-0.156443813160144,2886.52088835158
-0.157980067397953,2886.53088835158
-0.159536045168798,2886.54088835158
-0.161811818293799,2886.55088835158
-0.164261778679528,2886.56088835158
