PPG,time
0.0198850378472952,1506.39014406036
0.0397185313436812,1506.40014406036
0.035033299157828,1506.41014406036
0.0376001498793799,1506.42014406036
0.035915352953473,1506.43014406036
0.0373688829904727,1506.44014406036
0.0377444976632857,1506.45014406036
0.0398229238682312,1506.46014406036
0.0409867271863633,1506.47014406036
0.0429407700167127,1506.48014406036
0.044709517532787,1506.49014406036
0.0465058756713847,1506.50014406036
0.0485492221248226,1506.51014406036
0.0506956131124058,1506.52014406036
0.0523522049384784,1506.53014406036
0.0535288738544186,1506.54014406036
0.0542327296944838,1506.55014406036
0.0538882885617994,1506.56014406036
0.0527612763431533,1506.57014406036
0.0519396274697203,1506.58014406036
0.0515136967613442,1506.59014406036
0.0509990771935379,1506.60014406036
0.0505728076983248,1506.61014406036
0.0504158693463224,1506.62014406036
0.0510160061823256,1506.63014406036
0.0517388187497407,1506.64014406036
0.052147160597851,1506.65014406036
0.0533109583619424,1506.66014406036
0.054252519994614,1506.67014406036
0.0549835339103257,1506.68014406036
0.0559286001819528,1506.69014406036
0.0563065742622001,1506.70014406036
0.056420245138978,1506.71014406036
0.0564984276514678,1506.72014406036
0.0562884224466569,1506.73014406036
0.0561668890602177,1506.74014406036
0.0556443550816083,1506.75014406036
0.0550739351439643,1506.76014406036
0.0547481580121861,1506.77014406036
0.05448577906363,1506.78014406036
0.0543282157832911,1506.79014406036
0.0540327484276621,1506.80014406036
0.0538487897157071,1506.81014406036
0.0533561322452326,1506.82014406036
0.0528069365413993,1506.83014406036
0.051927775504908,1506.84014406036
0.0511147486717619,1506.85014406036
0.0502733242786516,1506.86014406036
0.0494024442860778,1506.87014406036
0.0484925489951717,1506.88014406036
0.0469947862455378,1506.89014406036
0.0462871503648168,1506.90014406036
0.0451468618766296,1506.91014406036
0.0444600545793508,1506.92014406036
0.0440119545624345,1506.93014406036
0.0436757996625883,1506.94014406036
0.0434171899718664,1506.95014406036
0.0430179309899849,1506.96014406036
0.0424037576871426,1506.97014406036
0.0413174239222446,1506.98014406036
0.040490976928461,1506.99014406036
0.0393623086480672,1507.00014406036
0.0379053117321624,1507.01014406036
0.036045742975175,1507.02014406036
0.0359485773892157,1507.03014406036
0.0349955481516439,1507.04014406036
0.0324007083398935,1507.05014406036
0.0323939077599796,1507.06014406036
0.0325328382560362,1507.07014406036
0.03276770862321,1507.08014406036
0.0316900771304644,1507.09014406036
0.029873044335228,1507.10014406036
0.0278908858812578,1507.11014406036
0.0265750829639205,1507.12014406036
0.0255298294485186,1507.13014406036
0.0250511202037318,1507.14014406036
0.0241110351018716,1507.15014406036
0.022935601384748,1507.16014406036
0.0216811871401908,1507.17014406036
0.0201696572233442,1507.18014406036
0.018352024308138,1507.19014406036
0.0163925688007311,1507.20014406036
0.0149102131394221,1507.21014406036
0.0130316337324668,1507.22014406036
0.0113624506227122,1507.23014406036
0.00896638782135292,1507.24014406036
0.0067726199064158,1507.25014406036
0.00474107540985607,1507.26014406036
0.00337322031926842,1507.27014406036
0.00373943413284555,1507.28014406036
0.00616187609959295,1507.29014406036
0.0105692583284513,1507.30014406036
0.0167777042573272,1507.31014406036
0.0245698941173995,1507.32014406036
0.0326704721348582,1507.33014406036
0.0407128489710229,1507.34014406036
0.0476226566451655,1507.35014406036
0.0529972627202629,1507.36014406036
0.0572265026453015,1507.37014406036
0.0606802824854525,1507.38014406036
0.0631112341064199,1507.39014406036
0.0645700214509484,1507.40014406036
0.0664778177703637,1507.41014406036
0.0677833726776053,1507.42014406036
0.0690879367834042,1507.43014406036
0.0700376286092649,1507.44014406036
0.0713517218019484,1507.45014406036
0.0723903586921644,1507.46014406036
0.0740359034648781,1507.47014406036
0.0753686628244608,1507.48014406036
0.0768662520944629,1507.49014406036
0.0785635765997076,1507.50014406036
0.0800424403483576,1507.51014406036
0.0818732534273548,1507.52014406036
0.0836975349505767,1507.53014406036
0.0850125683196089,1507.54014406036
0.0858082923338168,1507.55014406036
0.0860873436050555,1507.56014406036
0.0859614240223242,1507.57014406036
0.0849386682163424,1507.58014406036
0.0840498843018073,1507.59014406036
0.0836118733206798,1507.60014406036
0.0836904297938036,1507.61014406036
0.0845966102797422,1507.62014406036
0.0861210328140209,1507.63014406036
0.0874536166822416,1507.64014406036
0.0886252326182131,1507.65014406036
0.0892196147444379,1507.66014406036
0.0898073272133825,1507.67014406036
0.0904187861483944,1507.68014406036
0.0908207022929155,1507.69014406036
0.0913137302721867,1507.70014406036
0.0911633304245588,1507.71014406036
0.0912047515871929,1507.72014406036
0.0913374151923344,1507.73014406036
0.0914956408520391,1507.74014406036
0.091794729822852,1507.75014406036
0.0927700486103098,1507.76014406036
0.0936429498660303,1507.77014406036
0.0939378377682093,1507.78014406036
0.0937258274025355,1507.79014406036
0.0928469970395164,1507.80014406036
0.0913849967879952,1507.81014406036
0.09001438487517,1507.82014406036
0.0886384881021953,1507.83014406036
0.0878621190891229,1507.84014406036
0.0869462353226543,1507.85014406036
0.0861097543472491,1507.86014406036
0.0851894043828117,1507.87014406036
0.0846890722143357,1507.88014406036
0.0835884506238893,1507.89014406036
0.0824139226168809,1507.90014406036
0.0817119239635041,1507.91014406036
0.0803192775352406,1507.92014406036
0.0790837313732149,1507.93014406036
0.0774260653995446,1507.94014406036
0.0757944644948632,1507.95014406036
0.0747440017442804,1507.96014406036
0.0741217091910201,1507.97014406036
0.0737417426714451,1507.98014406036
0.0738691366805373,1507.99014406036
0.0733639610284125,1508.00014406036
0.0732902786181918,1508.01014406036
0.0732532647047974,1508.02014406036
0.0730306717339878,1508.03014406036
0.073038450430781,1508.04014406036
0.0725757654975497,1508.05014406036
0.0720413141749477,1508.06014406036
0.0711910278005706,1508.07014406036
0.06992002091524,1508.08014406036
0.0687251352861503,1508.09014406036
0.0675159750410921,1508.10014406036
0.0661953611296366,1508.11014406036
0.0652941255748376,1508.12014406036
0.064152887594693,1508.13014406036
0.0633228511123815,1508.14014406036
0.0626461772908585,1508.15014406036
0.0619441406028661,1508.16014406036
0.0625111012780142,1508.17014406036
0.0640113836824142,1508.18014406036
0.0674757146881974,1508.19014406036
0.0731261796244509,1508.20014406036
0.0800624736928937,1508.21014406036
0.0880856842531589,1508.22014406036
0.0966865929965917,1508.23014406036
0.10466107002722,1508.24014406036
0.111840619638716,1508.25014406036
0.118081061044454,1508.26014406036
0.122740552022926,1508.27014406036
0.125738542096646,1508.28014406036
0.127849697640983,1508.29014406036
0.128861090660664,1508.30014406036
0.129266466423329,1508.31014406036
0.129561790246738,1508.32014406036
0.130198528451,1508.33014406036
0.130841236705877,1508.34014406036
0.13132412276255,1508.35014406036
0.132128521735385,1508.36014406036
0.13269477874526,1508.37014406036
0.133252752839911,1508.38014406036
0.1343377578009,1508.39014406036
0.135549465376497,1508.40014406036
0.137448826555349,1508.41014406036
0.138936212039631,1508.42014406036
0.140035961529701,1508.43014406036
0.140929080960105,1508.44014406036
0.141394316627633,1508.45014406036
0.141612640056552,1508.46014406036
0.141683793261809,1508.47014406036
0.141019773973187,1508.48014406036
0.140381422937774,1508.49014406036
0.140071084587449,1508.50014406036
0.139533193463407,1508.51014406036
0.139407876829782,1508.52014406036
0.139732566256282,1508.53014406036
0.140237107623054,1508.54014406036
0.140272711942789,1508.55014406036
0.140598262572455,1508.56014406036
0.141058329995896,1508.57014406036
0.14049415024729,1508.58014406036
0.140528712140801,1508.59014406036
0.140115051715831,1508.60014406036
0.140334695684258,1508.61014406036
0.139691060541022,1508.62014406036
0.139009251992105,1508.63014406036
0.13781049890567,1508.64014406036
0.135703052920534,1508.65014406036
0.133427041002876,1508.66014406036
0.130778095353217,1508.67014406036
0.128199620700609,1508.68014406036
0.126004345348061,1508.69014406036
0.123654284510004,1508.70014406036
0.122031831678431,1508.71014406036
0.120267292522348,1508.72014406036
0.118651243337234,1508.73014406036
0.117039713178987,1508.74014406036
0.11633201534573,1508.75014406036
0.115901515446995,1508.76014406036
0.115349307815156,1508.77014406036
0.114570331326106,1508.78014406036
0.113405139038275,1508.79014406036
0.112419153638892,1508.80014406036
0.110652485016258,1508.81014406036
0.109527292932164,1508.82014406036
0.108324563456807,1508.83014406036
0.107130390522249,1508.84014406036
0.106159440374244,1508.85014406036
0.105141072001493,1508.86014406036
0.103749447619693,1508.87014406036
0.102009066112307,1508.88014406036
0.0997352668126202,1508.89014406036
0.0978903971801967,1508.90014406036
0.0959243933898324,1508.91014406036
0.0940747195386285,1508.92014406036
0.092581073415042,1508.93014406036
0.0915300643999876,1508.94014406036
0.090719019336229,1508.95014406036
0.0900559715628164,1508.96014406036
0.0892417288883675,1508.97014406036
0.0885954818249424,1508.98014406036
0.088314871200608,1508.99014406036
0.0891897248349838,1509.00014406036
0.0911532737906422,1509.01014406036
0.095125285816846,1509.02014406036
0.100802156763766,1509.03014406036
0.107875772497694,1509.04014406036
0.115906793478461,1509.05014406036
0.124190168453181,1509.06014406036
0.132126392953983,1509.07014406036
0.139242492200019,1509.08014406036
0.1453695510133,1509.09014406036
0.150682730034157,1509.10014406036
0.154333660797523,1509.11014406036
0.157207669302342,1509.12014406036
0.15861470593784,1509.13014406036
0.159179597618543,1509.14014406036
0.1595937065644,1509.15014406036
0.159802826247709,1509.16014406036
0.159872105314316,1509.17014406036
0.160128535557203,1509.18014406036
0.16028628682588,1509.19014406036
0.160831305115006,1509.20014406036
0.161506156064674,1509.21014406036
0.162758213902269,1509.22014406036
0.164299397279852,1509.23014406036
0.166018340475336,1509.24014406036
0.168075681826792,1509.25014406036
0.16953040790216,1509.26014406036
0.170706626349818,1509.27014406036
0.170920280573153,1509.28014406036
0.170872989877394,1509.29014406036
0.170724434988946,1509.30014406036
0.170527653358472,1509.31014406036
0.171124040672626,1509.32014406036
0.171693661604852,1509.33014406036
0.172324502445356,1509.34014406036
0.173318058430707,1509.35014406036
0.174463050999201,1509.36014406036
0.175420216389524,1509.37014406036
0.176629048608702,1509.38014406036
0.177909709064795,1509.39014406036
0.178926118429933,1509.40014406036
0.179933104325377,1509.41014406036
0.180694179532732,1509.42014406036
0.180945314767608,1509.43014406036
0.181204867970148,1509.44014406036
0.181546222090761,1509.45014406036
0.181540409311496,1509.46014406036
0.181786176628943,1509.47014406036
0.182091979947292,1509.48014406036
0.181989590736578,1509.49014406036
0.181908287950543,1509.50014406036
0.181862512797789,1509.51014406036
0.18151110236359,1509.52014406036
0.18098633279714,1509.53014406036
0.179900839439165,1509.54014406036
0.179285716529849,1509.55014406036
0.178550680925752,1509.56014406036
0.177881766777682,1509.57014406036
0.177306272054457,1509.58014406036
0.176527491369982,1509.59014406036
0.175471906358818,1509.60014406036
0.174736901820321,1509.61014406036
0.173238717635615,1509.62014406036
0.171781969748399,1509.63014406036
0.169716983112515,1509.64014406036
0.167091298986818,1509.65014406036
0.165276886087993,1509.66014406036
0.163543378075901,1509.67014406036
0.162558160022702,1509.68014406036
0.161810203586754,1509.69014406036
0.161110021193897,1509.70014406036
0.161251898929402,1509.71014406036
0.160842131588688,1509.72014406036
0.160232465235339,1509.73014406036
0.15918001301274,1509.74014406036
0.157489557338471,1509.75014406036
0.155314019629784,1509.76014406036
0.152806471301315,1509.77014406036
0.15068105155041,1509.78014406036
0.148324870426218,1509.79014406036
0.146196084468071,1509.80014406036
0.144945657708377,1509.81014406036
0.14506953851912,1509.82014406036
0.147745448826094,1509.83014406036
0.152630207846139,1509.84014406036
0.159672789061605,1509.85014406036
0.168226038284887,1509.86014406036
0.17725253265306,1509.87014406036
0.186224786083892,1509.88014406036
0.195484138516556,1509.89014406036
0.202920286081417,1509.90014406036
0.208480761941374,1509.91014406036
0.212577097046548,1509.92014406036
0.21584691667123,1509.93014406036
0.21801903646682,1509.94014406036
0.219235900127699,1509.95014406036
0.219994567282942,1509.96014406036
0.220424237486986,1509.97014406036
0.220726697075671,1509.98014406036
0.221233229657012,1509.99014406036
0.221964777996602,1510.00014406036
0.222779783443121,1510.01014406036
0.224023043680326,1510.02014406036
0.225021716976694,1510.03014406036
0.2257448769151,1510.04014406036
0.225895271157586,1510.05014406036
0.226222431621526,1510.06014406036
0.226062042744447,1510.07014406036
0.224932912685343,1510.08014406036
0.223257531633538,1510.09014406036
0.222093010680013,1510.10014406036
0.220491494319441,1510.11014406036
0.219209153902916,1510.12014406036
0.218322802113534,1510.13014406036
0.217982233800043,1510.14014406036
0.218350500116816,1510.15014406036
0.218576085960392,1510.16014406036
0.219339585380079,1510.17014406036
0.219421833926802,1510.18014406036
0.219435976519901,1510.19014406036
0.219142000567409,1510.20014406036
0.219118992606895,1510.21014406036
0.219005702158166,1510.22014406036
0.218386069865278,1510.23014406036
0.218348996278822,1510.24014406036
0.217632585392528,1510.25014406036
0.217408636640551,1510.26014406036
0.216212453295857,1510.27014406036
0.214641122743504,1510.28014406036
0.212790398574271,1510.29014406036
0.210736446702582,1510.30014406036
0.208590828312013,1510.31014406036
0.206943154218717,1510.32014406036
0.205390944757856,1510.33014406036
0.203969943491127,1510.34014406036
0.202586549778171,1510.35014406036
0.200604867364418,1510.36014406036
0.198701229441357,1510.37014406036
0.196800741850646,1510.38014406036
0.194591845328079,1510.39014406036
0.192987593710728,1510.40014406036
0.191887889967595,1510.41014406036
0.190504778053355,1510.42014406036
0.188594500969702,1510.43014406036
0.186289481290388,1510.44014406036
0.183601219768989,1510.45014406036
0.181375252642097,1510.46014406036
0.179212686186905,1510.47014406036
0.176946886069453,1510.48014406036
0.174771941203282,1510.49014406036
0.171966851849187,1510.50014406036
0.169541750457748,1510.51014406036
0.167346637693002,1510.52014406036
0.165100071342511,1510.53014406036
0.162732168865699,1510.54014406036
0.160488472644831,1510.55014406036
0.15815346142629,1510.56014406036
0.155880929711575,1510.57014406036
0.154461406046262,1510.58014406036
0.153946120580665,1510.59014406036
0.155311683740499,1510.60014406036
0.158386764264,1510.61014406036
0.163717219708679,1510.62014406036
0.170664859736598,1510.63014406036
0.179138180088635,1510.64014406036
0.188211881670908,1510.65014406036
0.197152028708207,1510.66014406036
0.204846489063539,1510.67014406036
0.211734776083134,1510.68014406036
0.21714756345409,1510.69014406036
0.22107213944205,1510.70014406036
0.223533769671778,1510.71014406036
0.225276726786565,1510.72014406036
0.225803874487346,1510.73014406036
0.226138557654105,1510.74014406036
0.226373937337783,1510.75014406036
0.226869727530019,1510.76014406036
0.227605195201934,1510.77014406036
0.228720664418314,1510.78014406036
0.229757675444025,1510.79014406036
0.231384149691262,1510.80014406036
0.232140662788611,1510.81014406036
0.232181998007246,1510.82014406036
0.232195629762453,1510.83014406036
0.231599115835987,1510.84014406036
0.230600041999127,1510.85014406036
0.229227343194218,1510.86014406036
0.227812780486376,1510.87014406036
0.226475634928648,1510.88014406036
0.225090868397962,1510.89014406036
0.22391013395326,1510.90014406036
0.222839251873021,1510.91014406036
0.222190818965178,1510.92014406036
0.221828272834457,1510.93014406036
0.221859839195506,1510.94014406036
0.221769486474396,1510.95014406036
0.221269175859982,1510.96014406036
0.221010522604782,1510.97014406036
0.220231370127941,1510.98014406036
0.219959159260956,1510.99014406036
0.219617673098159,1511.00014406036
0.219230441527529,1511.01014406036
0.218600910016774,1511.02014406036
0.217084288643263,1511.03014406036
0.215584369016023,1511.04014406036
0.213872529898787,1511.05014406036
0.212298927037667,1511.06014406036
0.210470598959162,1511.07014406036
0.208458652098843,1511.08014406036
0.206331493307688,1511.09014406036
0.204205054783362,1511.10014406036
0.202507953563438,1511.11014406036
0.200755510429401,1511.12014406036
0.199396281456375,1511.13014406036
0.197849278778282,1511.14014406036
0.19618144629654,1511.15014406036
0.193486906196303,1511.16014406036
0.191350031851454,1511.17014406036
0.189035576728209,1511.18014406036
0.18658208299548,1511.19014406036
0.184818124837361,1511.20014406036
0.182771174254654,1511.21014406036
0.181056131907696,1511.22014406036
0.178775588573711,1511.23014406036
0.176501709177799,1511.24014406036
0.174228894802934,1511.25014406036
0.172135573039286,1511.26014406036
0.170125481585577,1511.27014406036
0.168392709093134,1511.28014406036
0.166319363212608,1511.29014406036
0.164105184086536,1511.30014406036
0.16242889737269,1511.31014406036
0.159996769735298,1511.32014406036
0.157780944153311,1511.33014406036
0.156630579341128,1511.34014406036
0.156361967359845,1511.35014406036
0.158605207622873,1511.36014406036
0.163057191287898,1511.37014406036
0.169919128257623,1511.38014406036
0.178165392017205,1511.39014406036
0.187917942393764,1511.40014406036
0.197671649504706,1511.41014406036
0.206342403811136,1511.42014406036
0.213485464819659,1511.43014406036
0.218630217607338,1511.44014406036
0.221955756557187,1511.45014406036
0.22431065149466,1511.46014406036
0.2258163177663,1511.47014406036
0.226945056989686,1511.48014406036
0.227558050979995,1511.49014406036
0.227739117351857,1511.50014406036
0.22785480451472,1511.51014406036
0.228180703252709,1511.52014406036
0.228208779904805,1511.53014406036
0.228536147571459,1511.54014406036
0.22929061366315,1511.55014406036
0.229978916951761,1511.56014406036
0.230798698111699,1511.57014406036
0.231032680272403,1511.58014406036
0.231504406278564,1511.59014406036
0.230938265500342,1511.60014406036
0.229819946988273,1511.61014406036
0.227591318466455,1511.62014406036
0.224696113995303,1511.63014406036
0.221413725144679,1511.64014406036
0.218610327251753,1511.65014406036
0.216310270755606,1511.66014406036
0.214862168954448,1511.67014406036
0.214592326118222,1511.68014406036
0.214370702353884,1511.69014406036
0.214369445884917,1511.70014406036
0.214124070830154,1511.71014406036
0.214234389237962,1511.72014406036
0.214329053538504,1511.73014406036
0.214866425849675,1511.74014406036
0.215182171037594,1511.75014406036
0.215353145560739,1511.76014406036
0.215222006057189,1511.77014406036
0.214501068339256,1511.78014406036
0.213926964759603,1511.79014406036
0.212783573513779,1511.80014406036
0.21095195431313,1511.81014406036
0.208523845452363,1511.82014406036
0.20602824800564,1511.83014406036
0.203187087220621,1511.84014406036
0.200194932254653,1511.85014406036
0.197448658023896,1511.86014406036
0.194514708948369,1511.87014406036
0.192113680587796,1511.88014406036
0.189443346988905,1511.89014406036
0.18710722889316,1511.90014406036
0.184508994476043,1511.91014406036
0.182053464200371,1511.92014406036
0.179407770060985,1511.93014406036
0.17677629090068,1511.94014406036
0.174277149246173,1511.95014406036
0.17190944867597,1511.96014406036
0.169399771075765,1511.97014406036
0.166657908939127,1511.98014406036
0.163511658393613,1511.99014406036
0.160165567210004,1512.00014406036
0.156652457357532,1512.01014406036
0.152913694539694,1512.02014406036
0.149519272793789,1512.03014406036
0.145669834783334,1512.04014406036
0.141704186003413,1512.05014406036
0.138044648361955,1512.06014406036
0.134401571726836,1512.07014406036
0.132106996704011,1512.08014406036
0.130781141122708,1512.09014406036
0.131494759790444,1512.10014406036
0.13405070983356,1512.11014406036
0.139152762125974,1512.12014406036
0.145791993637631,1512.13014406036
0.153928515602174,1512.14014406036
0.162861363664621,1512.15014406036
0.172056699186235,1512.16014406036
0.180389647879437,1512.17014406036
0.18728625772057,1512.18014406036
0.192495187411955,1512.19014406036
0.196177194565565,1512.20014406036
0.198403890763831,1512.21014406036
0.199115953298946,1512.22014406036
0.199224956221056,1512.23014406036
0.199031395157157,1512.24014406036
0.198434979312229,1512.25014406036
0.198093818107011,1512.26014406036
0.197588984886479,1512.27014406036
0.197936287447248,1512.28014406036
0.198617756409649,1512.29014406036
0.199186242756181,1512.30014406036
0.20048974817118,1512.31014406036
0.202011996070838,1512.32014406036
0.203286894448524,1512.33014406036
0.204118586886523,1512.34014406036
0.203823343873522,1512.35014406036
0.202946668456859,1512.36014406036
0.200860290051898,1512.37014406036
0.198337303798993,1512.38014406036
0.195859340834515,1512.39014406036
0.193304009370348,1512.40014406036
0.191529352130065,1512.41014406036
0.190183786542653,1512.42014406036
0.188685552032961,1512.43014406036
0.18770324418806,1512.44014406036
0.186629246885069,1512.45014406036
0.18584835711104,1512.46014406036
0.184876948777384,1512.47014406036
0.184272169828007,1512.48014406036
0.1838735920067,1512.49014406036
0.18384824525221,1512.50014406036
0.183271382723821,1512.51014406036
0.182517864320822,1512.52014406036
0.181780292789787,1512.53014406036
0.180855631018421,1512.54014406036
0.179243275306186,1512.55014406036
0.177462244655831,1512.56014406036
0.175374537696883,1512.57014406036
0.172942163175053,1512.58014406036
0.170209481123536,1512.59014406036
0.167272043156276,1512.60014406036
0.163991611360287,1512.61014406036
0.160769118961792,1512.62014406036
0.156746546512513,1512.63014406036
0.151335918965688,1512.64014406036
0.144737720597494,1512.65014406036
0.136568153904443,1512.66014406036
0.127439865441072,1512.67014406036
0.117221321139511,1512.68014406036
0.10730637867141,1512.69014406036
0.0983281626879015,1512.70014406036
0.0905780844028744,1512.71014406036
0.084912505881716,1512.72014406036
0.0809553034035598,1512.73014406036
0.0781513153188244,1512.74014406036
0.0755330051612589,1512.75014406036
0.0729836341577072,1512.76014406036
0.070116546861324,1512.77014406036
0.0670950396179902,1512.78014406036
0.0642085091238011,1512.79014406036
0.0611419825666257,1512.80014406036
0.0590622953042746,1512.81014406036
0.0568400494034346,1512.82014406036
0.0554680675284419,1512.83014406036
0.0538598643101547,1512.84014406036
0.0527010206087862,1512.85014406036
0.0530378875746921,1512.86014406036
0.0547251633973677,1512.87014406036
0.0592183420954877,1512.88014406036
0.0656811627167053,1512.89014406036
0.0745289307061699,1512.90014406036
0.0838216624252703,1512.91014406036
0.0932737599768986,1512.92014406036
0.101412400746445,1512.93014406036
0.108011177406681,1512.94014406036
0.112456497024533,1512.95014406036
0.115402458050742,1512.96014406036
0.117100856807112,1512.97014406036
0.117720844890293,1512.98014406036
0.117947722328456,1512.99014406036
0.118635891613672,1513.00014406036
0.119464665228078,1513.01014406036
0.120113677003955,1513.02014406036
0.121452966229468,1513.03014406036
0.122679599564759,1513.04014406036
0.123286440592366,1513.05014406036
0.124659866274413,1513.06014406036
0.125733954194035,1513.07014406036
0.127678172970411,1513.08014406036
0.12968289944967,1513.09014406036
0.13168195290969,1513.10014406036
0.133319497595588,1513.11014406036
0.134446102131805,1513.12014406036
0.134437235132755,1513.13014406036
0.133185849588985,1513.14014406036
0.13060076093383,1513.15014406036
0.127591254871833,1513.16014406036
0.124068721639682,1513.17014406036
0.120583902139816,1513.18014406036
0.117905387901494,1513.19014406036
0.115906027888628,1513.20014406036
0.11479508317235,1513.21014406036
0.113812333815992,1513.22014406036
0.113533423193287,1513.23014406036
0.112712832116883,1513.24014406036
0.111845863749884,1513.25014406036
0.111480942122367,1513.26014406036
0.11051316622174,1513.27014406036
0.109354723970214,1513.28014406036
0.107586434967428,1513.29014406036
0.105316976013442,1513.30014406036
0.103112138466205,1513.31014406036
0.100706936419454,1513.32014406036
0.0983934739960335,1513.33014406036
0.0958979846164033,1513.34014406036
0.0935711601754118,1513.35014406036
0.0909377445804178,1513.36014406036
0.0881620319961382,1513.37014406036
0.08507786887678,1513.38014406036
0.0818811335639039,1513.39014406036
0.0795664861123696,1513.40014406036
0.076476443985832,1513.41014406036
0.0731427984525055,1513.42014406036
0.0702071758613961,1513.43014406036
0.0674857706658838,1513.44014406036
0.0647913518920133,1513.45014406036
0.0619320091046334,1513.46014406036
0.058554749611533,1513.47014406036
0.0549220751815054,1513.48014406036
0.051314946717405,1513.49014406036
0.0477304745464296,1513.50014406036
0.0439644514113019,1513.51014406036
0.0406627214810082,1513.52014406036
0.0378248303694971,1513.53014406036
0.0355986995627161,1513.54014406036
0.0337307128686643,1513.55014406036
0.0320413490377933,1513.56014406036
0.030340286269605,1513.57014406036
0.0284341805733906,1513.58014406036
0.0262429419182867,1513.59014406036
0.0242089040998762,1513.60014406036
0.0215770304906169,1513.61014406036
0.0188612482721404,1513.62014406036
0.0157539702928743,1513.63014406036
0.0127948850275999,1513.64014406036
0.00954663376023004,1513.65014406036
0.0074131015312974,1513.66014406036
0.00611440376955716,1513.67014406036
0.00598337569067931,1513.68014406036
0.00747855103629782,1513.69014406036
0.0114108513077284,1513.70014406036
0.0169099785133484,1513.71014406036
0.0231506095984027,1513.72014406036
0.0298785988020257,1513.73014406036
0.0363293127122816,1513.74014406036
0.0421830187378173,1513.75014406036
0.0467390575503941,1513.76014406036
0.0496525727089629,1513.77014406036
0.0511649293548909,1513.78014406036
0.0517851277680789,1513.79014406036
0.0520422229495532,1513.80014406036
0.0523740428574556,1513.81014406036
0.0517320924893745,1513.82014406036
0.0511436460688936,1513.83014406036
0.0501125456926457,1513.84014406036
0.0490953556461327,1513.85014406036
0.0487164248304294,1513.86014406036
0.0489661817960122,1513.87014406036
0.0492076869015435,1513.88014406036
0.0493977621610493,1513.89014406036
0.0499217340897143,1513.90014406036
0.0497988230672598,1513.91014406036
0.0496045093257911,1513.92014406036
0.0490990732371664,1513.93014406036
0.048202833281455,1513.94014406036
0.0468576706140345,1513.95014406036
0.0447967339920656,1513.96014406036
0.0427046154896418,1513.97014406036
0.0408607783999348,1513.98014406036
0.0388567384238829,1513.99014406036
0.0369582748420304,1514.00014406036
0.0358700382145211,1514.01014406036
0.0350915521722556,1514.02014406036
0.0346431162434556,1514.03014406036
0.0338339391721393,1514.04014406036
0.0333780029512575,1514.05014406036
0.0327960162234202,1514.06014406036
0.0322496903141238,1514.07014406036
0.0314895963276042,1514.08014406036
0.0310294028517395,1514.09014406036
0.0310229601833928,1514.10014406036
0.0306352293526698,1514.11014406036
0.0297148436616197,1514.12014406036
0.0289241503593454,1514.13014406036
0.0276108798463508,1514.14014406036
0.0262965052811868,1514.15014406036
0.0251411042183975,1514.16014406036
0.0236783433694679,1514.17014406036
0.0223328263950945,1514.18014406036
0.0201425545247525,1514.19014406036
0.017984910590676,1514.20014406036
0.0156795929198303,1514.21014406036
0.0131943107280237,1514.22014406036
0.0110950204452035,1514.23014406036
0.00940363354390741,1514.24014406036
0.00785900423257123,1514.25014406036
0.00669878065791378,1514.26014406036
0.00561252002409267,1514.27014406036
0.00394176926134299,1514.28014406036
0.00219736326536071,1514.29014406036
0.000322733503637183,1514.30014406036
-0.00205178222235967,1514.31014406036
-0.00486226019167561,1514.32014406036
-0.00738137855105138,1514.33014406036
-0.00931061022190428,1514.34014406036
-0.0111567205238662,1514.35014406036
-0.0124396360237778,1514.36014406036
-0.0137406402275193,1514.37014406036
-0.0154123225615325,1514.38014406036
-0.0173318996489938,1514.39014406036
-0.0192274236202825,1514.40014406036
-0.0213443587673027,1514.41014406036
-0.0234281596692459,1514.42014406036
-0.0253493710690543,1514.43014406036
-0.0270269459413361,1514.44014406036
-0.0280506632065286,1514.45014406036
-0.0293643776322741,1514.46014406036
-0.0309036683940619,1514.47014406036
-0.0329060042706253,1514.48014406036
-0.0347918646995528,1514.49014406036
-0.0374974071654952,1514.50014406036
-0.0396915910979344,1514.51014406036
-0.0421243945475142,1514.52014406036
-0.0442954486900455,1514.53014406036
-0.046163288169818,1514.54014406036
-0.0476777610575109,1514.55014406036
-0.0480463943787783,1514.56014406036
-0.0471398052504981,1514.57014406036
-0.0440680222221748,1514.58014406036
-0.0390568740055786,1514.59014406036
-0.0330640297846488,1514.60014406036
-0.0264076677799749,1514.61014406036
-0.0199491010666213,1514.62014406036
-0.014013310842594,1514.63014406036
-0.00909232839006965,1514.64014406036
-0.00561030519909076,1514.65014406036
-0.00385998444707737,1514.66014406036
-0.00371158168214118,1514.67014406036
-0.00476149081999316,1514.68014406036
-0.00617085439829895,1514.69014406036
-0.00753068306068609,1514.70014406036
-0.00852293675304657,1514.71014406036
-0.00899166747422129,1514.72014406036
-0.00880600365004017,1514.73014406036
-0.00852438972291971,1514.74014406036
-0.00843515335110283,1514.75014406036
-0.00835973847914422,1514.76014406036
-0.00866796858252073,1514.77014406036
-0.00903411457023242,1514.78014406036
-0.00929949951579755,1514.79014406036
-0.00890255080098627,1514.80014406036
-0.00846196596337337,1514.81014406036
-0.00803505823320643,1514.82014406036
-0.0081357030408363,1514.83014406036
-0.00874694329372186,1514.84014406036
-0.0105320576839733,1514.85014406036
-0.012869180145259,1514.86014406036
-0.0157681269653382,1514.87014406036
-0.0183826990849788,1514.88014406036
-0.0205938306100404,1514.89014406036
-0.0218454367435682,1514.90014406036
-0.022886722934525,1514.91014406036
-0.0232893088799506,1514.92014406036
-0.0235840100771272,1514.93014406036
-0.0243421165264717,1514.94014406036
-0.0248721848275337,1514.95014406036
-0.0260793505025805,1514.96014406036
-0.0271562644958852,1514.97014406036
-0.0282142041237087,1514.98014406036
-0.0292627656370149,1514.99014406036
-0.0306326265826155,1515.00014406036
-0.0316770482093076,1515.01014406036
-0.0326871038549666,1515.02014406036
-0.0337479114209307,1515.03014406036
-0.0348039752503005,1515.04014406036
-0.0354673135454666,1515.05014406036
-0.035787726667539,1515.06014406036
-0.0360621705007536,1515.07014406036
-0.0370047302143795,1515.08014406036
-0.038368982115345,1515.09014406036
-0.0402058888958656,1515.10014406036
-0.0417181616643532,1515.11014406036
-0.0434160435310128,1515.12014406036
-0.0456272914535088,1515.13014406036
-0.0474303064295663,1515.14014406036
-0.0494390735963267,1515.15014406036
-0.0510051207668831,1515.16014406036
-0.0520991889018901,1515.17014406036
-0.053306370061871,1515.18014406036
-0.0541541057952174,1515.19014406036
-0.0552237465929988,1515.20014406036
-0.0568174687266866,1515.21014406036
-0.0587200918321965,1515.22014406036
-0.0607627639595812,1515.23014406036
-0.0626052692064916,1515.24014406036
-0.0643073389933976,1515.25014406036
-0.065910282697925,1515.26014406036
-0.0677031591877471,1515.27014406036
-0.0693997348062198,1515.28014406036
-0.0710681790276214,1515.29014406036
-0.0729708167696401,1515.30014406036
-0.0749776580357603,1515.31014406036
-0.0768933392823548,1515.32014406036
-0.0793184816351732,1515.33014406036
-0.081230504280099,1515.34014406036
-0.0832655974270597,1515.35014406036
-0.0849953697419254,1515.36014406036
-0.0860982516743734,1515.37014406036
-0.0872766215470215,1515.38014406036
-0.0885753257316609,1515.39014406036
-0.089649338141595,1515.40014406036
-0.0907677451764812,1515.41014406036
-0.0921144701960194,1515.42014406036
-0.093578959994017,1515.43014406036
-0.0953648124584934,1515.44014406036
-0.0969982158970416,1515.45014406036
-0.0985457188449334,1515.46014406036
-0.0995563762915505,1515.47014406036
-0.0993975966685046,1515.48014406036
-0.0983285692830531,1515.49014406036
-0.0952779857452927,1515.50014406036
-0.0907597394353567,1515.51014406036
-0.0852980617596953,1515.52014406036
-0.0790829835791665,1515.53014406036
-0.0727136523263433,1515.54014406036
-0.0671210119469263,1515.55014406036
-0.0623840163390242,1515.56014406036
-0.0587066985224816,1515.57014406036
-0.0566509271062303,1515.58014406036
-0.0560416527006684,1515.59014406036
-0.0568241398927426,1515.60014406036
-0.05798750020083,1515.61014406036
-0.0594297972071692,1515.62014406036
-0.0605964784599226,1515.63014406036
-0.0619441849473469,1515.64014406036
-0.0627064794387394,1515.65014406036
-0.062619026358764,1515.66014406036
-0.0620790029510136,1515.67014406036
-0.0609082396786527,1515.68014406036
-0.0602100285865116,1515.69014406036
-0.0596875446054388,1515.70014406036
-0.0595422940409504,1515.71014406036
-0.059475698137656,1515.72014406036
-0.059785167719194,1515.73014406036
-0.0595976772427001,1515.74014406036
-0.059661835223169,1515.75014406036
-0.0590916543677091,1515.76014406036
-0.0585285092749475,1515.77014406036
-0.058550930518264,1515.78014406036
-0.059224400625612,1515.79014406036
-0.0602541292668894,1515.80014406036
-0.0613162815258259,1515.81014406036
-0.0622892168119333,1515.82014406036
-0.0625817941064964,1515.83014406036
-0.0618584432260292,1515.84014406036
-0.0610510424373338,1515.85014406036
-0.0600654633856681,1515.86014406036
-0.0593532547636472,1515.87014406036
-0.0595103073173133,1515.88014406036
-0.0597334846532221,1515.89014406036
-0.0593911596818116,1515.90014406036
-0.0587835543100291,1515.91014406036
-0.0581357508558784,1515.92014406036
-0.0577569311098632,1515.93014406036
-0.0577943920895209,1515.94014406036
-0.0586114758880153,1515.95014406036
-0.0597223251378392,1515.96014406036
-0.0612229665702374,1515.97014406036
-0.0627551020059484,1515.98014406036
-0.0641304123675101,1515.99014406036
-0.0660620953034558,1516.00014406036
-0.0673590020063685,1516.01014406036
-0.0687996148143892,1516.02014406036
-0.0699232945289381,1516.03014406036
-0.0711305922734772,1516.04014406036
-0.0720909896137569,1516.05014406036
-0.0729329747484614,1516.06014406036
-0.0737449739134501,1516.07014406036
-0.0746607959871707,1516.08014406036
-0.0756707947109995,1516.09014406036
-0.0767680000266832,1516.10014406036
-0.0778788128663001,1516.11014406036
-0.0796007568668165,1516.12014406036
-0.0806244299550379,1516.13014406036
-0.0821541416195408,1516.14014406036
-0.0830873569289975,1516.15014406036
-0.0846274589044167,1516.16014406036
-0.0860810757951626,1516.17014406036
-0.0869109999037734,1516.18014406036
-0.0878200218101604,1516.19014406036
-0.0886361725743568,1516.20014406036
-0.089479568051128,1516.21014406036
-0.0905480812842304,1516.22014406036
-0.0912478046571889,1516.23014406036
-0.0917648634297811,1516.24014406036
-0.0920510453847925,1516.25014406036
-0.0920174577736587,1516.26014406036
-0.092376820860132,1516.27014406036
-0.0931459371919597,1516.28014406036
-0.0945124196058593,1516.29014406036
-0.0960417183809499,1516.30014406036
-0.0971207537610249,1516.31014406036
-0.0988224148331763,1516.32014406036
-0.0999638242618258,1516.33014406036
-0.100959701615001,1516.34014406036
-0.101990232975308,1516.35014406036
-0.102844171730254,1516.36014406036
-0.10299244642079,1516.37014406036
-0.101637789650196,1516.38014406036
-0.0986129102790578,1516.39014406036
-0.0935179226258531,1516.40014406036
-0.0868828824737403,1516.41014406036
-0.0791221893817389,1516.42014406036
-0.0717148019420197,1516.43014406036
-0.0653338428584884,1516.44014406036
-0.0600777871736934,1516.45014406036
-0.0569532860592205,1516.46014406036
-0.0553023481037854,1516.47014406036
-0.0550018793948141,1516.48014406036
-0.0551317816900267,1516.49014406036
-0.0559866536397618,1516.50014406036
-0.0572532798066698,1516.51014406036
-0.0581938066893435,1516.52014406036
-0.0594400205473731,1516.53014406036
-0.0596778391237,1516.54014406036
-0.0597537349410321,1516.55014406036
-0.0596294608346637,1516.56014406036
-0.0595997129711195,1516.57014406036
-0.0588177138533622,1516.58014406036
-0.0575858440739132,1516.59014406036
-0.0567019837339489,1516.60014406036
-0.0555688045310768,1516.61014406036
-0.0549058581394347,1516.62014406036
-0.054490792128831,1516.63014406036
-0.0550715551451966,1516.64014406036
-0.0555631819797717,1516.65014406036
-0.0565842335051241,1516.66014406036
-0.0579312298044423,1516.67014406036
-0.05889126741166,1516.68014406036
-0.059442029854854,1516.69014406036
-0.0595479515236741,1516.70014406036
-0.0591572143190778,1516.71014406036
-0.0582243723819019,1516.72014406036
-0.0572843354243744,1516.73014406036
-0.0563665716511224,1516.74014406036
-0.0558906836892478,1516.75014406036
-0.0552326469458699,1516.76014406036
-0.0546131400683142,1516.77014406036
-0.0546390687464781,1516.78014406036
-0.0550076189036775,1516.79014406036
-0.0556039886684466,1516.80014406036
-0.0564886082945296,1516.81014406036
-0.0574034744699327,1516.82014406036
-0.058135352625582,1516.83014406036
-0.0583481980102502,1516.84014406036
-0.0587250114435302,1516.85014406036
-0.0594094297173052,1516.86014406036
-0.0606766180638605,1516.87014406036
-0.0618473461822219,1516.88014406036
-0.0629712493163774,1516.89014406036
-0.0639065772917059,1516.90014406036
-0.0649029225851901,1516.91014406036
-0.0652279720421258,1516.92014406036
-0.0656404878457609,1516.93014406036
-0.0655864699814826,1516.94014406036
-0.0655026743792483,1516.95014406036
-0.065692212593627,1516.96014406036
-0.0658928297835004,1516.97014406036
-0.066836517695946,1516.98014406036
-0.0678531030984125,1516.99014406036
-0.0690146386274789,1517.00014406036
-0.0698559361979237,1517.01014406036
-0.0703443251739981,1517.02014406036
-0.070535759645366,1517.03014406036
-0.0712046848362498,1517.04014406036
-0.0718613225642036,1517.05014406036
-0.0718674675168736,1517.06014406036
-0.0718582804869369,1517.07014406036
-0.0724384128663799,1517.08014406036
-0.0732832401653257,1517.09014406036
-0.0743363679302164,1517.10014406036
-0.0749177596512068,1517.11014406036
-0.0755055066436329,1517.12014406036
-0.0760938504856985,1517.13014406036
-0.0763203632276679,1517.14014406036
-0.0770409595652201,1517.15014406036
-0.0782168763805252,1517.16014406036
-0.0795996686687733,1517.17014406036
-0.0809621634222485,1517.18014406036
-0.0827627686477381,1517.19014406036
-0.0842288133071386,1517.20014406036
-0.0857992630057756,1517.21014406036
-0.0871955829759434,1517.22014406036
-0.087531683395245,1517.23014406036
-0.0871278151363523,1517.24014406036
-0.0844142121761632,1517.25014406036
-0.0791494302473635,1517.26014406036
-0.0720848691970351,1517.27014406036
-0.0637927897837164,1517.28014406036
-0.0553247707009575,1517.29014406036
-0.0478636335777539,1517.30014406036
-0.0415953141277969,1517.31014406036
-0.0368815438064205,1517.32014406036
-0.0332258573512194,1517.33014406036
-0.03116897280613,1517.34014406036
-0.0296467020755585,1517.35014406036
-0.028722483585567,1517.36014406036
-0.0279752417650075,1517.37014406036
-0.0274760775483997,1517.38014406036
-0.0271473234900589,1517.39014406036
-0.0264327265169433,1517.40014406036
-0.0257953581025978,1517.41014406036
-0.0254305998443109,1517.42014406036
-0.0247399658014947,1517.43014406036
-0.0240653905766679,1517.44014406036
-0.0234136202352497,1517.45014406036
-0.0227782927278039,1517.46014406036
-0.0223869594614452,1517.47014406036
-0.0219315271502909,1517.48014406036
-0.0215741714420791,1517.49014406036
-0.0214114226463075,1517.50014406036
-0.0220341216967613,1517.51014406036
-0.0228983018904104,1517.52014406036
-0.023799904007495,1517.53014406036
-0.0246604413346714,1517.54014406036
-0.0254706525141529,1517.55014406036
-0.0259563477620596,1517.56014406036
-0.0259868151441232,1517.57014406036
-0.0265920538073297,1517.58014406036
-0.0264157391133143,1517.59014406036
-0.0259100149824901,1517.60014406036
-0.025572581699163,1517.61014406036
-0.0245544510065703,1517.62014406036
-0.0233747414605356,1517.63014406036
-0.0217446971999475,1517.64014406036
-0.0205512937047181,1517.65014406036
-0.0193247986846895,1517.66014406036
-0.0183061693835055,1517.67014406036
-0.0181462064135417,1517.68014406036
-0.0181047936645242,1517.69014406036
-0.018661120954537,1517.70014406036
-0.0197314218363464,1517.71014406036
-0.0212291036584138,1517.72014406036
-0.0224861347753571,1517.73014406036
-0.0233522282135459,1517.74014406036
-0.0241156516655421,1517.75014406036
-0.0244715189900656,1517.76014406036
-0.0252571388243312,1517.77014406036
-0.0255797957936455,1517.78014406036
-0.0258661597890124,1517.79014406036
-0.0260583446914367,1517.80014406036
-0.0260013930599204,1517.81014406036
-0.0265337148552355,1517.82014406036
-0.0265348080316084,1517.83014406036
-0.0274345154391554,1517.84014406036
-0.0278909234470233,1517.85014406036
-0.0289182902381045,1517.86014406036
-0.0300150230648014,1517.87014406036
-0.0310029264539501,1517.88014406036
-0.0322635309736421,1517.89014406036
-0.0334292275129999,1517.90014406036
-0.0341552356308291,1517.91014406036
-0.0347600470869754,1517.92014406036
-0.0353833106607232,1517.93014406036
-0.0363121706790508,1517.94014406036
-0.0375876867726436,1517.95014406036
-0.038550252287347,1517.96014406036
-0.0388205494263368,1517.97014406036
-0.0385749216159958,1517.98014406036
-0.0382702022599652,1517.99014406036
-0.0380557942317751,1518.00014406036
-0.0385793273633229,1518.01014406036
-0.0396992883190624,1518.02014406036
-0.0407180463481977,1518.03014406036
-0.0414845643244577,1518.04014406036
-0.0426318109647385,1518.05014406036
-0.0436595446891081,1518.06014406036
-0.044102550195204,1518.07014406036
-0.0449702185795229,1518.08014406036
-0.0453538291610907,1518.09014406036
-0.0455735198024894,1518.10014406036
-0.0459363995708118,1518.11014406036
-0.0460065044076994,1518.12014406036
-0.0459963543865985,1518.13014406036
-0.0447226954410141,1518.14014406036
-0.0420535240542042,1518.15014406036
-0.0377139118492864,1518.16014406036
-0.0316996324605838,1518.17014406036
-0.0240696465112129,1518.18014406036
-0.0163639686163215,1518.19014406036
-0.00858813343639489,1518.20014406036
-0.00170018977101236,1518.21014406036
0.00412060553687132,1518.22014406036
0.00892401319222267,1518.23014406036
0.0120968603239574,1518.24014406036
0.0139262380239338,1518.25014406036
0.0152513129374249,1518.26014406036
0.0156862254631062,1518.27014406036
0.0160958078509624,1518.28014406036
0.016681798799035,1518.29014406036
0.0178600493159324,1518.30014406036
0.0184901761081219,1518.31014406036
0.0196554991587349,1518.32014406036
0.0204491007508767,1518.33014406036
0.0212022298510677,1518.34014406036
0.0227045230730506,1518.35014406036
0.0244052520227641,1518.36014406036
0.025929278656689,1518.37014406036
0.0278484182468765,1518.38014406036
0.0289729315625042,1518.39014406036
0.0299451838243089,1518.40014406036
0.0299175503320593,1518.41014406036
0.0289565828773693,1518.42014406036
0.0274497813719685,1518.43014406036
0.0259561880159506,1518.44014406036
0.0249001125909728,1518.45014406036
0.0243125458041846,1518.46014406036
0.0241106986892038,1518.47014406036
0.024885689696873,1518.48014406036
0.0257282970851647,1518.49014406036
0.0266060592200113,1518.50014406036
0.0273205590184057,1518.51014406036
0.0280942564275353,1518.52014406036
0.0288414750458087,1518.53014406036
0.0292631430038188,1518.54014406036
0.0295291561529681,1518.55014406036
0.029898430856847,1518.56014406036
0.0297771292992014,1518.57014406036
0.0301975862680893,1518.58014406036
0.0297373713664323,1518.59014406036
0.0293011107483343,1518.60014406036
0.028167112894049,1518.61014406036
0.0271333790766322,1518.62014406036
0.0260915493127901,1518.63014406036
0.025403477702714,1518.64014406036
0.0247089694244948,1518.65014406036
0.0239400432975668,1518.66014406036
0.0239135951002814,1518.67014406036
0.0242128818685104,1518.68014406036
0.0245650362625146,1518.69014406036
0.0245426952835656,1518.70014406036
0.0244027056952555,1518.71014406036
0.0238654432678053,1518.72014406036
0.0233074351726358,1518.73014406036
0.0227567894068439,1518.74014406036
0.0219544763305396,1518.75014406036
0.0207151017415134,1518.76014406036
0.0195745120707881,1518.77014406036
0.0180502780209204,1518.78014406036
0.0168198233773306,1518.79014406036
0.0158877316766616,1518.80014406036
0.0147769242305959,1518.81014406036
0.013456755393129,1518.82014406036
0.0122404231800308,1518.83014406036
0.0110690300273669,1518.84014406036
0.0101740291778854,1518.85014406036
0.00913824990575495,1518.86014406036
0.00875660047288339,1518.87014406036
0.00784126651770345,1518.88014406036
0.00705564579777161,1518.89014406036
0.00612395766856296,1518.90014406036
0.0047265879432998,1518.91014406036
0.00348284944976628,1518.92014406036
0.00207265696806633,1518.93014406036
0.00086147452045688,1518.94014406036
0.000405409056935637,1518.95014406036
4.44577532313034e-05,1518.96014406036
0.000139872343458725,1518.97014406036
-4.86651902569366e-05,1518.98014406036
-0.000313702610822802,1518.99014406036
-0.000671503454441214,1519.00014406036
-0.00137033518425816,1519.01014406036
-0.00242610505155393,1519.02014406036
-0.00378756804802782,1519.03014406036
-0.00536367115149421,1519.04014406036
-0.00693302771818817,1519.05014406036
-0.00808067361347497,1519.06014406036
-0.00865727206152829,1519.07014406036
-0.00751189189432644,1519.08014406036
-0.00500914332880793,1519.09014406036
-0.000331531212613395,1519.10014406036
0.00653222428398106,1519.11014406036
0.0146020036345896,1519.12014406036
0.0225411994913454,1519.13014406036
0.0308148781656409,1519.14014406036
0.0387106131286958,1519.15014406036
0.0454346543302226,1519.16014406036
0.0508546736585156,1519.17014406036
0.0546436590337883,1519.18014406036
0.0571309782338314,1519.19014406036
0.0587205276989745,1519.20014406036
0.0594435955132729,1519.21014406036
0.0597429275923344,1519.22014406036
0.0603770319266415,1519.23014406036
0.0616667195476274,1519.24014406036
0.0633679695613812,1519.25014406036
0.0652494717938085,1519.26014406036
0.0671826883893365,1519.27014406036
0.068685905131739,1519.28014406036
0.0702716675937245,1519.29014406036
0.0716964535541965,1519.30014406036
0.0729874483203757,1519.31014406036
0.0742053972563415,1519.32014406036
0.0756869674039749,1519.33014406036
0.0764366085951016,1519.34014406036
0.0770547876142355,1519.35014406036
0.0770458464439571,1519.36014406036
0.0769965447334413,1519.37014406036
0.0762748839060695,1519.38014406036
0.0758211725352257,1519.39014406036
0.0752927293119097,1519.40014406036
0.0747797273239962,1519.41014406036
0.0748714221547602,1519.42014406036
0.0752070388359151,1519.43014406036
0.076027007652222,1519.44014406036
0.0771300938131359,1519.45014406036
0.0789197600748388,1519.46014406036
0.0799298659234183,1519.47014406036
0.0807934040341045,1519.48014406036
0.0816568642425969,1519.49014406036
0.0822135972875321,1519.50014406036
0.0824700636214298,1519.51014406036
0.0826378327021004,1519.52014406036
0.08309045923379,1519.53014406036
0.0831385134302162,1519.54014406036
0.0833780576382563,1519.55014406036
0.0834482974628072,1519.56014406036
0.0832158009710461,1519.57014406036
0.0823082176747599,1519.58014406036
0.0807218254917004,1519.59014406036
0.0796361379869903,1519.60014406036
0.0779450443356402,1519.61014406036
0.0759310455134965,1519.62014406036
0.0749677658501999,1519.63014406036
0.0741762475569244,1519.64014406036
0.0737337631726755,1519.65014406036
0.0728490710745226,1519.66014406036
0.0720298590267657,1519.67014406036
0.0709332436707309,1519.68014406036
0.0699052139390128,1519.69014406036
0.0690638122631751,1519.70014406036
0.0681418707924555,1519.71014406036
0.0672338010748281,1519.72014406036
0.0666791527438844,1519.73014406036
0.0658319590842556,1519.74014406036
0.0646466660861847,1519.75014406036
0.0636832636108142,1519.76014406036
0.0628864897056387,1519.77014406036
0.0616034701233288,1519.78014406036
0.0609375191655638,1519.79014406036
0.0602674940584172,1519.80014406036
0.0597388036809771,1519.81014406036
0.0591375550536547,1519.82014406036
0.057833677457078,1519.83014406036
0.0565690368645511,1519.84014406036
0.0550173567152212,1519.85014406036
0.0532864338594301,1519.86014406036
0.0518521601651579,1519.87014406036
0.0502577050269131,1519.88014406036
0.0489836307702563,1519.89014406036
0.0476318115195333,1519.90014406036
0.0466192636341368,1519.91014406036
0.0458166733634607,1519.92014406036
0.0451288915268553,1519.93014406036
0.0448471853794885,1519.94014406036
0.0436014968414912,1519.95014406036
0.0425146394589114,1519.96014406036
0.0412987661987065,1519.97014406036
0.0401852080577137,1519.98014406036
0.0389767075640575,1519.99014406036
0.0373413971651268,1520.00014406036
0.0359683895336262,1520.01014406036
0.0343779437253262,1520.02014406036
0.0328664261588319,1520.03014406036
0.0319430243283637,1520.04014406036
0.0317180312876491,1520.05014406036
0.0331548961558321,1520.06014406036
0.036751118367033,1520.07014406036
0.0427893040000889,1520.08014406036
0.050346845635152,1520.09014406036
0.0590599038272138,1520.10014406036
0.068123750128368,1520.11014406036
0.0768776560678358,1520.12014406036
0.0846485085045825,1520.13014406036
0.0909388714022848,1520.14014406036
0.0960302206835969,1520.15014406036
0.0998895256593953,1520.16014406036
0.102304596919454,1520.17014406036
0.10382743960771,1520.18014406036
0.1049144171718,1520.19014406036
0.106008251270827,1520.20014406036
0.106741414548833,1520.21014406036
0.107481639247244,1520.22014406036
0.108606523988696,1520.23014406036
0.109778790786894,1520.24014406036
0.110870562051922,1520.25014406036
0.112400504442028,1520.26014406036
0.114493880840713,1520.27014406036
0.116393234712476,1520.28014406036
0.118847957947936,1520.29014406036
0.120332054217785,1520.30014406036
0.121480109110098,1520.31014406036
0.121797736056125,1520.32014406036
0.12138410235673,1520.33014406036
0.120881262803872,1520.34014406036
0.120175957144349,1520.35014406036
0.119255085056664,1520.36014406036
0.118602448991735,1520.37014406036
0.117864428045109,1520.38014406036
0.117956162354138,1520.39014406036
0.118065800641974,1520.40014406036
0.118908576573956,1520.41014406036
0.119978767431613,1520.42014406036
0.121288174641342,1520.43014406036
0.123065929482996,1520.44014406036
0.124356633054496,1520.45014406036
0.126023295107923,1520.46014406036
0.127155280369814,1520.47014406036
0.128501380633804,1520.48014406036
0.129268448905451,1520.49014406036
0.129854875835533,1520.50014406036
0.130779995284932,1520.51014406036
0.130824042321245,1520.52014406036
0.130697334900771,1520.53014406036
0.129823188644354,1520.54014406036
0.128889476129017,1520.55014406036
0.127928038174456,1520.56014406036
0.127192476426501,1520.57014406036
0.126125725334854,1520.58014406036
0.125848424794025,1520.59014406036
0.125428709157856,1520.60014406036
0.124736357992935,1520.61014406036
0.123518145995008,1520.62014406036
0.121978896357835,1520.63014406036
0.120234462971081,1520.64014406036
0.118464477630449,1520.65014406036
0.116867961323619,1520.66014406036
0.115489891158768,1520.67014406036
0.114149308697284,1520.68014406036
0.112497561449313,1520.69014406036
0.111069008564605,1520.70014406036
0.109770268948203,1520.71014406036
0.108402552351331,1520.72014406036
0.107739393260711,1520.73014406036
0.106962110943468,1520.74014406036
0.105578648493626,1520.75014406036
0.104330078112778,1520.76014406036
0.102594266938953,1520.77014406036
0.100783786264595,1520.78014406036
0.0991985540559479,1520.79014406036
0.097967927052073,1520.80014406036
0.0964830114805332,1520.81014406036
0.0952791581961695,1520.82014406036
0.0937252364481852,1520.83014406036
0.0921026589853935,1520.84014406036
0.0902660859879218,1520.85014406036
0.0883317519032377,1520.86014406036
0.0866699592980679,1520.87014406036
0.0847393731243574,1520.88014406036
0.0831455283942305,1520.89014406036
0.0816874044921348,1520.90014406036
0.0803942536831604,1520.91014406036
0.0792635835699647,1520.92014406036
0.0774142738971368,1520.93014406036
0.0755148073841892,1520.94014406036
0.0737091296946488,1520.95014406036
0.07186394662412,1520.96014406036
0.0712343587538039,1520.97014406036
0.0721751159846411,1520.98014406036
0.0756541503911057,1520.99014406036
0.081394931696966,1521.00014406036
0.0891394581592135,1521.01014406036
0.0986644126637138,1521.02014406036
0.107812557177141,1521.03014406036
0.116707251863783,1521.04014406036
0.125043240276208,1521.05014406036
0.131858973822915,1521.06014406036
0.137193761940864,1521.07014406036
0.141243146447628,1521.08014406036
0.143773846282972,1521.09014406036
0.145392050336437,1521.10014406036
0.146653748432754,1521.11014406036
0.147050671901679,1521.12014406036
0.147765405009494,1521.13014406036
0.148753099000779,1521.14014406036
0.149650411737269,1521.15014406036
0.150808836568279,1521.16014406036
0.152451611306526,1521.17014406036
0.153194559683857,1521.18014406036
0.154138385044686,1521.19014406036
0.155661313657946,1521.20014406036
0.157358333359015,1521.21014406036
0.158898163703314,1521.22014406036
0.160801971789974,1521.23014406036
0.161885179122624,1521.24014406036
0.16190642521009,1521.25014406036
0.161543813356151,1521.26014406036
0.160820279018737,1521.27014406036
0.15980773054282,1521.28014406036
0.1588773591897,1521.29014406036
0.158045114874111,1521.30014406036
0.157694603324317,1521.31014406036
0.157829421489602,1521.32014406036
0.15898182425912,1521.33014406036
0.160245676157914,1521.34014406036
0.161720084551909,1521.35014406036
0.162810662844694,1521.36014406036
0.1638915069347,1521.37014406036
0.163996357047681,1521.38014406036
0.163980360773316,1521.39014406036
0.16390566723452,1521.40014406036
0.1642468453618,1521.41014406036
0.163785364883716,1521.42014406036
0.16353220553573,1521.43014406036
0.162817951704185,1521.44014406036
0.162294674042305,1521.45014406036
0.161414444373987,1521.46014406036
0.16019520667416,1521.47014406036
0.159619501589308,1521.48014406036
0.15872245096631,1521.49014406036
0.157671284850864,1521.50014406036
0.157146153690549,1521.51014406036
0.155909934151761,1521.52014406036
0.154852401858586,1521.53014406036
0.154157038909798,1521.54014406036
0.152969921247685,1521.55014406036
0.151912708487658,1521.56014406036
0.150295127129723,1521.57014406036
0.149126195932754,1521.58014406036
0.147790527435624,1521.59014406036
0.146272993113759,1521.60014406036
0.144044951784001,1521.61014406036
0.141668286908929,1521.62014406036
0.139191277659895,1521.63014406036
0.137157102676196,1521.64014406036
0.134909487993949,1521.65014406036
0.133125147326746,1521.66014406036
0.13169963507717,1521.67014406036
0.12989695990947,1521.68014406036
0.128428450322324,1521.69014406036
0.126633110274141,1521.70014406036
0.124601078546522,1521.71014406036
0.1231720019149,1521.72014406036
0.121354159441666,1521.73014406036
0.119852440374509,1521.74014406036
0.118372746942011,1521.75014406036
0.116401636182752,1521.76014406036
0.114425986853171,1521.77014406036
0.112290893429647,1521.78014406036
0.110363305772829,1521.79014406036
0.109082900622878,1521.80014406036
0.10798428029951,1521.81014406036
0.107093325082656,1521.82014406036
0.10582132252856,1521.83014406036
0.104531189746113,1521.84014406036
0.103211073804649,1521.85014406036
0.101234608290105,1521.86014406036
0.100132435940521,1521.87014406036
0.100620979596547,1521.88014406036
0.103366558672862,1521.89014406036
0.108643049578598,1521.90014406036
0.116404212125762,1521.91014406036
0.126366843500672,1521.92014406036
0.137275132143489,1521.93014406036
0.148671318553028,1521.94014406036
0.1596145691252,1521.95014406036
0.169519857957803,1521.96014406036
0.177742848074868,1521.97014406036
0.183932026136351,1521.98014406036
0.187586061476634,1521.99014406036
0.189912328620736,1522.00014406036
0.191246350606145,1522.01014406036
0.192028056547826,1522.02014406036
0.19281470556974,1522.03014406036
0.193806785374704,1522.04014406036
0.195222445965816,1522.05014406036
0.19641330949712,1522.06014406036
0.19746196219004,1522.07014406036
0.198620522143085,1522.08014406036
0.200798909635292,1522.09014406036
0.203451673757659,1522.10014406036
0.206437370509447,1522.11014406036
0.209617410204841,1522.12014406036
0.212689975867012,1522.13014406036
0.214502265051761,1522.14014406036
0.215393060871643,1522.15014406036
0.214602553045359,1522.16014406036
0.21342458994736,1522.17014406036
0.211851032057473,1522.18014406036
0.210744799687364,1522.19014406036
0.209499369146014,1522.20014406036
0.208982074927657,1522.21014406036
0.20898934339886,1522.22014406036
0.209520779421261,1522.23014406036
0.210463938495503,1522.24014406036
0.211733357224468,1522.25014406036
0.213011685040288,1522.26014406036
0.214431665095161,1522.27014406036
0.215378015379507,1522.28014406036
0.215721089121984,1522.29014406036
0.216067827519071,1522.30014406036
0.215912132372479,1522.31014406036
0.215250122534801,1522.32014406036
0.214698593073923,1522.33014406036
0.213980189380799,1522.34014406036
0.213281952285393,1522.35014406036
0.213121879933977,1522.36014406036
0.212519188884541,1522.37014406036
0.212435982317082,1522.38014406036
0.212193001796021,1522.39014406036
0.211775290521639,1522.40014406036
0.21121930219251,1522.41014406036
0.210228109345622,1522.42014406036
0.208457453561794,1522.43014406036
0.206763827585302,1522.44014406036
0.204273579922577,1522.45014406036
0.201861778686656,1522.46014406036
0.199286240546042,1522.47014406036
0.197252463911034,1522.48014406036
0.195699899134342,1522.49014406036
0.194239068050528,1522.50014406036
0.192986340425245,1522.51014406036
0.191101328678373,1522.52014406036
0.189800476576414,1522.53014406036
0.187892931863771,1522.54014406036
0.186075566365575,1522.55014406036
0.184659521192631,1522.56014406036
0.182724069877784,1522.57014406036
0.181108725440683,1522.58014406036
0.178744515134477,1522.59014406036
0.176337660495544,1522.60014406036
0.174024582070414,1522.61014406036
0.171771516781961,1522.62014406036
0.169488565300683,1522.63014406036
0.167273948616958,1522.64014406036
0.165031335695223,1522.65014406036
0.163060210478838,1522.66014406036
0.160846021377232,1522.67014406036
0.158952857329032,1522.68014406036
0.157360794876298,1522.69014406036
0.154841677193428,1522.70014406036
0.15266084191597,1522.71014406036
0.150606355138932,1522.72014406036
0.148349218718829,1522.73014406036
0.146803410259354,1522.74014406036
0.144613797052632,1522.75014406036
0.142791817117788,1522.76014406036
0.140801033017135,1522.77014406036
0.138646762628527,1522.78014406036
0.136376024644773,1522.79014406036
0.134288194823598,1522.80014406036
0.132316175342606,1522.81014406036
0.130839619828858,1522.82014406036
0.131168538939157,1522.83014406036
0.133611698680263,1522.84014406036
0.138808900752214,1522.85014406036
0.146204994924076,1522.86014406036
0.155337912157712,1522.87014406036
0.165592856401104,1522.88014406036
0.176353233662159,1522.89014406036
0.18724056420528,1522.90014406036
0.196677970402832,1522.91014406036
0.205095712307979,1522.92014406036
0.211626671033832,1522.93014406036
0.216313514774442,1522.94014406036
0.219834976964955,1522.95014406036
0.222009601586059,1522.96014406036
0.223664190199332,1522.97014406036
0.225284297689876,1522.98014406036
0.226620116193738,1522.99014406036
0.227943335018474,1523.00014406036
0.229664077075934,1523.01014406036
0.231309307419656,1523.02014406036
0.23333031151652,1523.03014406036
0.235474312575516,1523.04014406036
0.237438857164817,1523.05014406036
0.239831841643223,1523.06014406036
0.241810913156914,1523.07014406036
0.243800132985557,1523.08014406036
0.245529485794808,1523.09014406036
0.246611941681432,1523.10014406036
0.247502053352952,1523.11014406036
0.247322956705747,1523.12014406036
0.24658732109703,1523.13014406036
0.245656305698218,1523.14014406036
0.24422002723902,1523.15014406036
0.242950474387849,1523.16014406036
0.242092924507014,1523.17014406036
0.241202451545338,1523.18014406036
0.240995865559542,1523.19014406036
0.24148348344591,1523.20014406036
0.2432010655125,1523.21014406036
0.245232418580581,1523.22014406036
0.246827371506021,1523.23014406036
0.247886479365826,1523.24014406036
0.248861133919628,1523.25014406036
0.248726896100858,1523.26014406036
0.248710869203762,1523.27014406036
0.248373742703372,1523.28014406036
0.247351998833644,1523.29014406036
0.246568607196374,1523.30014406036
0.245548502497176,1523.31014406036
0.244171909248469,1523.32014406036
0.242602361849356,1523.33014406036
0.241156846673698,1523.34014406036
0.239061441456501,1523.35014406036
0.23666574056649,1523.36014406036
0.233925636394701,1523.37014406036
0.231418397732708,1523.38014406036
0.229512685515285,1523.39014406036
0.227463172378066,1523.40014406036
0.225695313585247,1523.41014406036
0.224215663016286,1523.42014406036
0.222173661082383,1523.43014406036
0.220849440752014,1523.44014406036
0.219135776418027,1523.45014406036
0.21755875972688,1523.46014406036
0.216114591017342,1523.47014406036
0.214372502510571,1523.48014406036
0.212880060924792,1523.49014406036
0.211408399559478,1523.50014406036
0.209408167136528,1523.51014406036
0.207303369209332,1523.52014406036
0.20486781977632,1523.53014406036
0.202423897785144,1523.54014406036
0.200226613361991,1523.55014406036
0.19794298065008,1523.56014406036
0.19501873375416,1523.57014406036
0.192294666134775,1523.58014406036
0.189414434105032,1523.59014406036
0.186803492008334,1523.60014406036
0.183952187355047,1523.61014406036
0.181345461976461,1523.62014406036
0.178778264141943,1523.63014406036
0.176361832321774,1523.64014406036
0.174190807678354,1523.65014406036
0.171886652130425,1523.66014406036
0.169471387636513,1523.67014406036
0.167090504018395,1523.68014406036
0.164301205245691,1523.69014406036
0.161723642923191,1523.70014406036
0.158858267443849,1523.71014406036
0.156451739933694,1523.72014406036
0.15367636641713,1523.73014406036
0.150945252240838,1523.74014406036
0.148069055199833,1523.75014406036
0.145679396152858,1523.76014406036
0.144082778515285,1523.77014406036
0.14346419412644,1523.78014406036
0.145576137884397,1523.79014406036
0.150414056251081,1523.80014406036
0.157744647143359,1523.81014406036
0.167158686754358,1523.82014406036
0.177592191526033,1523.83014406036
0.188634930200151,1523.84014406036
0.198900655702615,1523.85014406036
0.208540762513483,1523.86014406036
0.21668981702413,1523.87014406036
0.222594292391853,1523.88014406036
0.226451352322603,1523.89014406036
0.228790846724328,1523.90014406036
0.230219686914693,1523.91014406036
0.230503718993849,1523.92014406036
0.231128555538678,1523.93014406036
0.231552373310418,1523.94014406036
0.23159008213281,1523.95014406036
0.232218387107796,1523.96014406036
0.232092602589796,1523.97014406036
0.231898969253862,1523.98014406036
0.231790185780549,1523.99014406036
0.23095680937216,1524.00014406036
0.229615637439633,1524.01014406036
0.227918228939013,1524.02014406036
0.225914656397879,1524.03014406036
0.223849181429645,1524.04014406036
0.221723960923821,1524.05014406036
0.219814575096293,1524.06014406036
0.218536382541933,1524.07014406036
0.217868967004045,1524.08014406036
0.217976691452803,1524.09014406036
0.218752603915931,1524.10014406036
0.219411910006631,1524.11014406036
0.220207003043074,1524.12014406036
0.220729239779345,1524.13014406036
0.22140300439846,1524.14014406036
0.221999874247162,1524.15014406036
0.222919190792808,1524.16014406036
0.224098652633394,1524.17014406036
0.224561185217574,1524.18014406036
0.224629718874353,1524.19014406036
0.223520236063952,1524.20014406036
0.221987059169034,1524.21014406036
0.220406160964483,1524.22014406036
0.218754629163424,1524.23014406036
0.216784287536465,1524.24014406036
0.215015343692867,1524.25014406036
0.213051835000033,1524.26014406036
0.21055046671885,1524.27014406036
0.208769672550421,1524.28014406036
0.207017334783621,1524.29014406036
0.20535103082063,1524.30014406036
0.202783489637267,1524.31014406036
0.200098412547036,1524.32014406036
0.196732262544841,1524.33014406036
0.193688843615743,1524.34014406036
0.190967708614079,1524.35014406036
0.188452780617933,1524.36014406036
0.186545994716486,1524.37014406036
0.18498024911766,1524.38014406036
0.183056294714916,1524.39014406036
0.181147861147288,1524.40014406036
0.179062349640385,1524.41014406036
0.176232624512609,1524.42014406036
0.173838077713672,1524.43014406036
0.171431056115639,1524.44014406036
0.168747601514913,1524.45014406036
0.16626499319507,1524.46014406036
0.16372879668683,1524.47014406036
0.160865309213071,1524.48014406036
0.157861927262947,1524.49014406036
0.154795753230081,1524.50014406036
0.151817413946638,1524.51014406036
0.149513384817778,1524.52014406036
0.147552404672152,1524.53014406036
0.14571950642559,1524.54014406036
0.144194907775427,1524.55014406036
0.142620077680617,1524.56014406036
0.140981220233578,1524.57014406036
0.139484476932962,1524.58014406036
0.137494682372493,1524.59014406036
0.135163022752531,1524.60014406036
0.132341257588337,1524.61014406036
0.129613583491062,1524.62014406036
0.126453494320315,1524.63014406036
0.123270077297788,1524.64014406036
0.120512693439028,1524.65014406036
0.117917524288685,1524.66014406036
0.115629356749723,1524.67014406036
0.113203598148746,1524.68014406036
0.11107329035303,1524.69014406036
0.108274589820324,1524.70014406036
0.105510676868368,1524.71014406036
0.103215569239341,1524.72014406036
0.101869308539396,1524.73014406036
0.102021641698461,1524.74014406036
0.104524732538982,1524.75014406036
0.1096688861776,1524.76014406036
0.116977205563511,1524.77014406036
0.12668656635564,1524.78014406036
0.137243741919771,1524.79014406036
0.148259667184636,1524.80014406036
0.158510605332182,1524.81014406036
0.167708651801283,1524.82014406036
0.17536330349919,1524.83014406036
0.181539246651279,1524.84014406036
0.185954848081565,1524.85014406036
0.189140241939519,1524.86014406036
0.190736004917472,1524.87014406036
0.190900840481641,1524.88014406036
0.190214954538366,1524.89014406036
0.189252847759638,1524.90014406036
0.188778261166505,1524.91014406036
0.188555743431806,1524.92014406036
0.188766736064202,1524.93014406036
0.189451756675338,1524.94014406036
0.19064353910293,1524.95014406036
0.192383473917126,1524.96014406036
0.193911811533097,1524.97014406036
0.195464390055533,1524.98014406036
0.196599633054383,1524.99014406036
0.196579647459923,1525.00014406036
0.19553297678018,1525.01014406036
0.193865486759531,1525.02014406036
0.192277643207277,1525.03014406036
0.190904389640724,1525.04014406036
0.189595262525299,1525.05014406036
0.188632038146762,1525.06014406036
0.187918532667643,1525.07014406036
0.187774006573236,1525.08014406036
0.187469207308607,1525.09014406036
0.18822032480404,1525.10014406036
0.188918483636534,1525.11014406036
0.189713773889677,1525.12014406036
0.190567783742956,1525.13014406036
0.191313335844374,1525.14014406036
0.191970201950956,1525.15014406036
0.192599620637642,1525.16014406036
0.192867135532322,1525.17014406036
0.192613124132997,1525.18014406036
0.192066982109404,1525.19014406036
0.191027865832453,1525.20014406036
0.189870362025575,1525.21014406036
0.188549452740761,1525.22014406036
0.187193737035484,1525.23014406036
0.185840369275883,1525.24014406036
0.183824783288282,1525.25014406036
0.182183056244865,1525.26014406036
0.180870630692272,1525.27014406036
0.179452457364958,1525.28014406036
0.178434954203855,1525.29014406036
0.17713428192761,1525.30014406036
0.175977800422582,1525.31014406036
0.174264444350415,1525.32014406036
0.172644500560433,1525.33014406036
0.170272350437799,1525.34014406036
0.167869826949299,1525.35014406036
0.165266278420058,1525.36014406036
0.162898247901724,1525.37014406036
0.160082366578684,1525.38014406036
0.157390761438744,1525.39014406036
0.15456062324047,1525.40014406036
0.151241118866153,1525.41014406036
0.148508013569988,1525.42014406036
0.146067065615309,1525.43014406036
0.14393825112665,1525.44014406036
0.142419696524958,1525.45014406036
0.14057656267327,1525.46014406036
0.138927653230541,1525.47014406036
0.136558981447599,1525.48014406036
0.134173484487303,1525.49014406036
0.131677651281703,1525.50014406036
0.129147361490011,1525.51014406036
0.126209017656752,1525.52014406036
0.123388814814193,1525.53014406036
0.120205799202911,1525.54014406036
0.116333403645422,1525.55014406036
0.113045749453859,1525.56014406036
0.109793947457605,1525.57014406036
0.107153581343641,1525.58014406036
0.106005333193573,1525.59014406036
0.107741662529189,1525.60014406036
0.111909247081932,1525.61014406036
0.119091759435693,1525.62014406036
0.128914916495273,1525.63014406036
0.139903670545468,1525.64014406036
0.151511799121366,1525.65014406036
0.162798465383145,1525.66014406036
0.172700037409201,1525.67014406036
0.181853395385123,1525.68014406036
0.189308345957249,1525.69014406036
0.195648551956402,1525.70014406036
0.200949659548876,1525.71014406036
0.204952633237227,1525.72014406036
0.20813311738238,1525.73014406036
0.21088165290064,1525.74014406036
0.213235024573261,1525.75014406036
0.215328146559469,1525.76014406036
0.217303070557302,1525.77014406036
0.220174074451575,1525.78014406036
0.222523320992759,1525.79014406036
0.225357724631021,1525.80014406036
0.228357771105783,1525.81014406036
0.231712424752715,1525.82014406036
0.235695478197766,1525.83014406036
0.239253528288447,1525.84014406036
0.242300388696458,1525.85014406036
0.24427740135689,1525.86014406036
0.245165751379805,1525.87014406036
0.245062702421256,1525.88014406036
0.244033898670247,1525.89014406036
0.242513314290096,1525.90014406036
0.241014008136327,1525.91014406036
0.240055518001624,1525.92014406036
0.240080607121142,1525.93014406036
0.240330724912017,1525.94014406036
0.240809552787421,1525.95014406036
0.241875694336736,1525.96014406036
0.242618017062968,1525.97014406036
0.243438089706637,1525.98014406036
0.244009931367924,1525.99014406036
0.244528058168578,1526.00014406036
0.245096546698044,1526.01014406036
0.245795800021858,1526.02014406036
0.246404327242028,1526.03014406036
0.246595039145673,1526.04014406036
0.246361022284418,1526.05014406036
0.246134589081021,1526.06014406036
0.245792293098936,1526.07014406036
0.245219661992802,1526.08014406036
0.24430694529352,1526.09014406036
0.242545076720845,1526.10014406036
0.24088883760959,1526.11014406036
0.238321921429737,1526.12014406036
0.236229637851235,1526.13014406036
0.233499521721297,1526.14014406036
0.231049825004403,1526.15014406036
0.228549176966751,1526.16014406036
0.226055732105172,1526.17014406036
0.223990281604284,1526.18014406036
0.221445924167204,1526.19014406036
0.218842146414826,1526.20014406036
0.216434706210758,1526.21014406036
0.213847262550825,1526.22014406036
0.211101107483983,1526.23014406036
0.207822061504978,1526.24014406036
0.204975255670202,1526.25014406036
0.202078594110967,1526.26014406036
0.199507279636564,1526.27014406036
0.197537605656239,1526.28014406036
0.19531197352218,1526.29014406036
0.193001951806804,1526.30014406036
0.190637609557585,1526.31014406036
0.188198840396861,1526.32014406036
0.186067132350503,1526.33014406036
0.183315718188957,1526.34014406036
0.180773765657319,1526.35014406036
0.178240225208628,1526.36014406036
0.1756374157548,1526.37014406036
0.172901656033906,1526.38014406036
0.169776211438535,1526.39014406036
0.16672020435173,1526.40014406036
0.163717532315773,1526.41014406036
0.160971167013674,1526.42014406036
0.158315330916909,1526.43014406036
0.155941271677293,1526.44014406036
0.154673194333258,1526.45014406036
0.15546212509676,1526.46014406036
0.158545536635649,1526.47014406036
0.164329572915522,1526.48014406036
0.172494045047693,1526.49014406036
0.182656899309321,1526.50014406036
0.193615849277425,1526.51014406036
0.205117422160909,1526.52014406036
0.216515440635431,1526.53014406036
0.227304027911839,1526.54014406036
0.236857337539112,1526.55014406036
0.244927290755126,1526.56014406036
0.251081402550358,1526.57014406036
0.256241356602553,1526.58014406036
0.260546731485945,1526.59014406036
0.263868135773714,1526.60014406036
0.267334189961497,1526.61014406036
0.269931262840454,1526.62014406036
0.273165398408789,1526.63014406036
0.276662404154216,1526.64014406036
0.280818675673167,1526.65014406036
0.284751757747329,1526.66014406036
0.288692675023331,1526.67014406036
0.292996746350321,1526.68014406036
0.297531712646173,1526.69014406036
0.301893457835645,1526.70014406036
0.305621165858317,1526.71014406036
0.30888759485414,1526.72014406036
0.31076323065814,1526.73014406036
0.311173967793766,1526.74014406036
0.310704831556111,1526.75014406036
0.309897258823797,1526.76014406036
0.308936550003743,1526.77014406036
0.307843307965756,1526.78014406036
0.306665112966289,1526.79014406036
0.305874810729781,1526.80014406036
0.305637462611587,1526.81014406036
0.305804145831661,1526.82014406036
0.306499768870355,1526.83014406036
0.307748360174836,1526.84014406036
0.309264150116349,1526.85014406036
0.310916882981478,1526.86014406036
0.312712989841365,1526.87014406036
0.313915430027645,1526.88014406036
0.314852003957511,1526.89014406036
0.315259436845619,1526.90014406036
0.315408848362895,1526.91014406036
0.314948196201936,1526.92014406036
0.313897226758544,1526.93014406036
0.312219599059859,1526.94014406036
0.310310037794932,1526.95014406036
0.308351279383394,1526.96014406036
0.305990000714074,1526.97014406036
0.304075608251848,1526.98014406036
0.301396154716597,1526.99014406036
0.299124685504917,1527.00014406036
0.296272124659985,1527.01014406036
0.293183189618473,1527.02014406036
0.290358152053562,1527.03014406036
0.287973960203003,1527.04014406036
0.285090359322441,1527.05014406036
0.282257535955916,1527.06014406036
0.279132040453816,1527.07014406036
0.275770691953168,1527.08014406036
0.272190139384287,1527.09014406036
0.268495158594593,1527.10014406036
0.264555500694116,1527.11014406036
0.260678655842416,1527.12014406036
0.256857592422957,1527.13014406036
0.2535416677298,1527.14014406036
0.250248812269394,1527.15014406036
0.247157053493899,1527.16014406036
0.24471147805756,1527.17014406036
0.241462151629094,1527.18014406036
0.238158508000416,1527.19014406036
0.234407602230852,1527.20014406036
0.230446880307664,1527.21014406036
0.226936888609453,1527.22014406036
0.222675154011258,1527.23014406036
0.219013594619937,1527.24014406036
0.215232037114821,1527.25014406036
0.210942253038705,1527.26014406036
0.206610932346559,1527.27014406036
0.202082051069103,1527.28014406036
0.197667407535191,1527.29014406036
0.193879192829722,1527.30014406036
0.191100674951774,1527.31014406036
0.189879827540408,1527.32014406036
0.190593085680948,1527.33014406036
0.193707891499846,1527.34014406036
0.199614491241686,1527.35014406036
0.208017859551695,1527.36014406036
0.218086933271762,1527.37014406036
0.229002277865112,1527.38014406036
0.240076317046361,1527.39014406036
0.250246178328845,1527.40014406036
0.259605536646197,1527.41014406036
0.267327670360475,1527.42014406036
0.274062971659476,1527.43014406036
0.279122634997319,1527.44014406036
0.28291779441343,1527.45014406036
0.286118042982375,1527.46014406036
0.288661682698903,1527.47014406036
0.290985995486566,1527.48014406036
0.293431842491158,1527.49014406036
0.295846463990035,1527.50014406036
0.29793090444689,1527.51014406036
0.300022724112697,1527.52014406036
0.302544053938061,1527.53014406036
0.305078399195514,1527.54014406036
0.307820833557501,1527.55014406036
0.310472893506599,1527.56014406036
0.31277842705395,1527.57014406036
0.314488318167809,1527.58014406036
0.315313152377457,1527.59014406036
0.315787845192972,1527.60014406036
0.314989472247554,1527.61014406036
0.313797658563722,1527.62014406036
0.311039736623337,1527.63014406036
0.308664674789855,1527.64014406036
0.306585312715932,1527.65014406036
0.305023548860043,1527.66014406036
0.304592930024034,1527.67014406036
0.304445751584343,1527.68014406036
0.304280549839096,1527.69014406036
0.304292456262195,1527.70014406036
0.304146949167049,1527.71014406036
0.303841378167796,1527.72014406036
0.303822109932435,1527.73014406036
0.303452963363296,1527.74014406036
0.302815428790854,1527.75014406036
0.301714700326591,1527.76014406036
0.300646425609517,1527.77014406036
0.299095545250858,1527.78014406036
0.297247281815989,1527.79014406036
0.295222501192158,1527.80014406036
0.292469392091563,1527.81014406036
0.289965399124733,1527.82014406036
0.287653633543128,1527.83014406036
0.285346766539577,1527.84014406036
0.282787390419851,1527.85014406036
0.279979800008553,1527.86014406036
0.277606431513977,1527.87014406036
0.27495002859871,1527.88014406036
0.272213922778158,1527.89014406036
0.269315059423621,1527.90014406036
0.265977179968012,1527.91014406036
0.262835657474625,1527.92014406036
0.259893606300404,1527.93014406036
0.256721977678074,1527.94014406036
0.253518985752139,1527.95014406036
0.250340579084765,1527.96014406036
0.247038336454725,1527.97014406036
0.243295905510182,1527.98014406036
0.239162691696216,1527.99014406036
0.234911852225694,1528.00014406036
0.230858651337152,1528.01014406036
0.226734302378968,1528.02014406036
0.222639850056813,1528.03014406036
0.218672906945854,1528.04014406036
0.214376283146313,1528.05014406036
0.209956484291864,1528.06014406036
0.205602235038461,1528.07014406036
0.201410174183717,1528.08014406036
0.197570035995058,1528.09014406036
0.193673700941428,1528.10014406036
0.189948132532548,1528.11014406036
0.186130566206249,1528.12014406036
0.181828647413183,1528.13014406036
0.176894971128983,1528.14014406036
0.171730078738408,1528.15014406036
0.167443871573836,1528.16014406036
0.164637732144695,1528.17014406036
0.164253830487299,1528.18014406036
0.166871552034076,1528.19014406036
0.172362437425647,1528.20014406036
0.18102043834346,1528.21014406036
0.191057768259666,1528.22014406036
0.20223126233698,1528.23014406036
0.213447573136047,1528.24014406036
0.223907356481212,1528.25014406036
0.233530217429817,1528.26014406036
0.241802088467742,1528.27014406036
0.24903215895539,1528.28014406036
0.254369435307761,1528.29014406036
0.258267075817056,1528.30014406036
0.261143914841835,1528.31014406036
0.263185514285312,1528.32014406036
0.264823667947376,1528.33014406036
0.265930594575661,1528.34014406036
0.267142504402798,1528.35014406036
0.268610371865063,1528.36014406036
0.270844855960908,1528.37014406036
0.27363445476854,1528.38014406036
0.276530163751371,1528.39014406036
0.27939687230601,1528.40014406036
0.281985726761496,1528.41014406036
0.284233186433692,1528.42014406036
0.286280333409549,1528.43014406036
0.287337150761605,1528.44014406036
0.287121906549684,1528.45014406036
0.286092944197725,1528.46014406036
0.283647595087693,1528.47014406036
0.2807747819499,1528.48014406036
0.27789144659987,1528.49014406036
0.275252226225422,1528.50014406036
0.273486832859369,1528.51014406036
0.272151029810866,1528.52014406036
0.271271428906086,1528.53014406036
0.270544421468943,1528.54014406036
0.26964032234606,1528.55014406036
0.268817821606291,1528.56014406036
0.267752224821955,1528.57014406036
0.26706861218137,1528.58014406036
0.266465271098949,1528.59014406036
0.265706833615846,1528.60014406036
0.265307999267277,1528.61014406036
0.264542154093786,1528.62014406036
0.263098099036098,1528.63014406036
0.261625175141927,1528.64014406036
0.259610501249696,1528.65014406036
0.257135740776297,1528.66014406036
0.254744080641684,1528.67014406036
0.25186771383956,1528.68014406036
0.248956572389767,1528.69014406036
0.245920760679101,1528.70014406036
0.242424922972407,1528.71014406036
0.238909138492393,1528.72014406036
0.235548140008891,1528.73014406036
0.232189278967027,1528.74014406036
0.228848981745417,1528.75014406036
0.225643486792691,1528.76014406036
0.222112330322878,1528.77014406036
0.218393248377659,1528.78014406036
0.214782830280466,1528.79014406036
0.211163370529161,1528.80014406036
0.207198183610022,1528.81014406036
0.203485546648366,1528.82014406036
0.199760912777208,1528.83014406036
0.195676246596693,1528.84014406036
0.192018552466161,1528.85014406036
0.187745946254769,1528.86014406036
0.183523390328067,1528.87014406036
0.178990061846513,1528.88014406036
0.173797855828992,1528.89014406036
0.16822685960172,1528.90014406036
0.162928008946532,1528.91014406036
0.158034698134832,1528.92014406036
0.153381095044514,1528.93014406036
0.149583274673068,1528.94014406036
0.14561237984212,1528.95014406036
0.141542053171896,1528.96014406036
0.136789151010263,1528.97014406036
0.132270515240294,1528.98014406036
0.128286602558068,1528.99014406036
0.124293876482009,1529.00014406036
0.120186382177286,1529.01014406036
0.116076521892115,1529.02014406036
0.111724141899618,1529.03014406036
0.107326073682276,1529.04014406036
0.104092789453971,1529.05014406036
0.102715698619312,1529.06014406036
0.103749386214096,1529.07014406036
0.107961789691364,1529.08014406036
0.115274370040328,1529.09014406036
0.124375037458712,1529.10014406036
0.135270662409537,1529.11014406036
0.146257067405494,1529.12014406036
0.156680144318976,1529.13014406036
0.165824829508227,1529.14014406036
0.173597362458101,1529.15014406036
0.1798349374402,1529.16014406036
0.184344890952823,1529.17014406036
0.187652428946056,1529.18014406036
0.190479107656296,1529.19014406036
0.192258841819186,1529.20014406036
0.193724530302702,1529.21014406036
0.194689451456848,1529.22014406036
0.196182927876801,1529.23014406036
0.197912735056143,1529.24014406036
0.199791061248219,1529.25014406036
0.202042107407014,1529.26014406036
0.203584837702336,1529.27014406036
0.205445815886063,1529.28014406036
0.207096501719776,1529.29014406036
0.208799517683891,1529.30014406036
0.21083590775045,1529.31014406036
0.212560022656065,1529.32014406036
0.213699910722856,1529.33014406036
0.214365284586098,1529.34014406036
0.21416611209611,1529.35014406036
0.213228733222786,1529.36014406036
0.211475552602888,1529.37014406036
0.209792611076257,1529.38014406036
0.207629579774774,1529.39014406036
0.206023703984325,1529.40014406036
0.204887756154192,1529.41014406036
0.204478368796984,1529.42014406036
0.204264336738515,1529.43014406036
0.204543947633965,1529.44014406036
0.204933809272548,1529.45014406036
0.205499334738746,1529.46014406036
0.206077511437875,1529.47014406036
0.206360513642544,1529.48014406036
0.205934549207558,1529.49014406036
0.204861986033203,1529.50014406036
0.203352026510173,1529.51014406036
0.201878549740079,1529.52014406036
0.200147108731664,1529.53014406036
0.197839396377668,1529.54014406036
0.195403999962439,1529.55014406036
0.192323808375257,1529.56014406036
0.189453106059911,1529.57014406036
0.186336758198807,1529.58014406036
0.183487455623699,1529.59014406036
0.180187523809616,1529.60014406036
0.176782014097783,1529.61014406036
0.173759650089411,1529.62014406036
0.170874351880591,1529.63014406036
0.168440032261495,1529.64014406036
0.166089240087106,1529.65014406036
0.163413339207237,1529.66014406036
0.160621356603277,1529.67014406036
0.157456063518745,1529.68014406036
0.154088829241322,1529.69014406036
0.150743040614006,1529.70014406036
0.147385468418848,1529.71014406036
0.144031409213537,1529.72014406036
0.139934873764148,1529.73014406036
0.136435910703206,1529.74014406036
0.132737156085781,1529.75014406036
0.128785830056048,1529.76014406036
0.124453412487536,1529.77014406036
0.120537855217273,1529.78014406036
0.116503044458431,1529.79014406036
0.11296142125462,1529.80014406036
0.109648527310714,1529.81014406036
0.105911269054264,1529.82014406036
0.102222276075066,1529.83014406036
0.0984623466382963,1529.84014406036
0.0947131004026349,1529.85014406036
0.0911831263545256,1529.86014406036
0.0876945824189852,1529.87014406036
0.0835895959817644,1529.88014406036
0.0797962739797637,1529.89014406036
0.0758469346896649,1529.90014406036
0.0717448858256898,1529.91014406036
0.0677520466257221,1529.92014406036
0.0639726828444101,1529.93014406036
0.0598149731143066,1529.94014406036
0.0555483094341338,1529.95014406036
0.051385038872172,1529.96014406036
0.0473031900546934,1529.97014406036
0.0446728176077587,1529.98014406036
0.0438655052359848,1529.99014406036
0.0454171377118475,1530.00014406036
0.0501602801700323,1530.01014406036
0.0574243861846525,1530.02014406036
0.0665670732230736,1530.03014406036
0.0765736566735901,1530.04014406036
0.0866541239938504,1530.05014406036
0.0966697673920053,1530.06014406036
0.105749412606874,1530.07014406036
0.113599571615632,1530.08014406036
0.120387509051606,1530.09014406036
0.125448922285071,1530.10014406036
0.129124126328919,1530.11014406036
0.132026441482829,1530.12014406036
0.134247751852355,1530.13014406036
0.136225330664199,1530.14014406036
0.138215504305161,1530.15014406036
0.139935203058953,1530.16014406036
0.14196730702436,1530.17014406036
0.144259973079833,1530.18014406036
0.147010458198662,1530.19014406036
0.149953893811954,1530.20014406036
0.152832640509766,1530.21014406036
0.15579845716721,1530.22014406036
0.158721353434717,1530.23014406036
0.160938110171924,1530.24014406036
0.162750217427941,1530.25014406036
0.164047634019313,1530.26014406036
0.164417730689051,1530.27014406036
0.163978147436709,1530.28014406036
0.16255823596383,1530.29014406036
0.160867639209594,1530.30014406036
0.159312791625888,1530.31014406036
0.157874974430332,1530.32014406036
0.156938808956261,1530.33014406036
0.156607533391809,1530.34014406036
0.156510652319294,1530.35014406036
0.156470043164025,1530.36014406036
0.156628434197006,1530.37014406036
0.157055896396606,1530.38014406036
0.157886058410384,1530.39014406036
0.158965940858095,1530.40014406036
0.160071140663629,1530.41014406036
0.160613033609541,1530.42014406036
0.159930005755945,1530.43014406036
0.15855256240306,1530.44014406036
0.156451201510003,1530.45014406036
0.154153774760242,1530.46014406036
0.152131275735157,1530.47014406036
0.14990574359754,1530.48014406036
0.147933477259588,1530.49014406036
0.146267621285509,1530.50014406036
0.144307342858259,1530.51014406036
0.142356143316443,1530.52014406036
0.140109100284582,1530.53014406036
0.137892811352092,1530.54014406036
0.135246639455664,1530.55014406036
0.132805158146562,1530.56014406036
0.130209974155196,1530.57014406036
0.127287976662551,1530.58014406036
0.124732583847874,1530.59014406036
0.122056013764604,1530.60014406036
0.119131754348043,1530.61014406036
0.115926865421901,1530.62014406036
0.112721867970924,1530.63014406036
0.109841436182504,1530.64014406036
0.107102651631519,1530.65014406036
0.10422380112204,1530.66014406036
0.101490009071212,1530.67014406036
0.0983785027113968,1530.68014406036
0.0950658730945412,1530.69014406036
0.0916255351475107,1530.70014406036
0.0884567597354073,1530.71014406036
0.0854816528503137,1530.72014406036
0.0824460897688332,1530.73014406036
0.0793541720939269,1530.74014406036
0.0759692845289384,1530.75014406036
0.0719774718088255,1530.76014406036
0.0678023241668358,1530.77014406036
0.064201929053214,1530.78014406036
0.0606088681319449,1530.79014406036
0.0572139342619133,1530.80014406036
0.0539646474477428,1530.81014406036
0.050563989684095,1530.82014406036
0.0465928083773343,1530.83014406036
0.0427912468904618,1530.84014406036
0.0390389466124536,1530.85014406036
0.0349039005827399,1530.86014406036
0.0308700071139791,1530.87014406036
0.026838728046788,1530.88014406036
0.023329570541219,1530.89014406036
0.0198215474948316,1530.90014406036
0.0164528674622648,1530.91014406036
0.0128395518981103,1530.92014406036
0.00939759566925319,1530.93014406036
0.00715287898309041,1530.94014406036
0.00707400843260799,1530.95014406036
0.00979602808034009,1530.96014406036
0.0147985621067273,1530.97014406036
0.0230427575471072,1530.98014406036
0.0332825681815284,1530.99014406036
0.044300951428338,1531.00014406036
0.055369057361885,1531.01014406036
0.0661181979194721,1531.02014406036
0.0753468268539011,1531.03014406036
0.0816954239057424,1531.04014406036
0.0865061817826709,1531.05014406036
0.0897713566441213,1531.06014406036
0.0914355643115975,1531.07014406036
0.0931718568988293,1531.08014406036
0.0945789275967166,1531.09014406036
0.096820872038584,1531.10014406036
0.0992872368580736,1531.11014406036
0.10175218183808,1531.12014406036
0.104322126934286,1531.13014406036
0.107601105108625,1531.14014406036
0.110840438890361,1531.15014406036
0.114320176116534,1531.16014406036
0.118194300750551,1531.17014406036
0.121972246992948,1531.18014406036
0.125481269118384,1531.19014406036
0.128405495226779,1531.20014406036
0.130281562241503,1531.21014406036
0.131101900097459,1531.22014406036
0.130818980689977,1531.23014406036
0.129894369949953,1531.24014406036
0.128587143932814,1531.25014406036
0.12706167016168,1531.26014406036
0.12563163139357,1531.27014406036
0.12448141824589,1531.28014406036
0.123540441075367,1531.29014406036
0.122690384785429,1531.30014406036
0.12245943374234,1531.31014406036
0.122540985077655,1531.32014406036
0.12312182140757,1531.33014406036
0.123290755406916,1531.34014406036
0.124045625517865,1531.35014406036
0.124198246220293,1531.36014406036
0.123930123590297,1531.37014406036
0.123363949227522,1531.38014406036
0.1226015276904,1531.39014406036
0.122183510439333,1531.40014406036
0.12192329118772,1531.41014406036
0.121061415407947,1531.42014406036
0.120136368261644,1531.43014406036
0.118893151102634,1531.44014406036
0.116926928002156,1531.45014406036
0.115101445823127,1531.46014406036
0.11340590358186,1531.47014406036
0.111654067853032,1531.48014406036
0.110021692381099,1531.49014406036
0.108267933575968,1531.50014406036
0.105845789686118,1531.51014406036
0.10335002303401,1531.52014406036
0.100202548890158,1531.53014406036
0.0970043184541044,1531.54014406036
0.0940628891560868,1531.55014406036
0.0917184980768163,1531.56014406036
0.089505240636728,1531.57014406036
0.0875036975546489,1531.58014406036
0.0849365076126908,1531.59014406036
0.0821289137730506,1531.60014406036
0.0793366502377799,1531.61014406036
0.0762539670090245,1531.62014406036
0.0730893457035188,1531.63014406036
0.0701063572714655,1531.64014406036
0.0671738679355572,1531.65014406036
0.0640746201478311,1531.66014406036
0.0607195316684104,1531.67014406036
0.0575805630398153,1531.68014406036
0.0549743089336195,1531.69014406036
0.0522202280072894,1531.70014406036
0.0495413180476336,1531.71014406036
0.0466658697548562,1531.72014406036
0.0431442433489693,1531.73014406036
0.0397760203140152,1531.74014406036
0.0355621876647844,1531.75014406036
0.0312748198421653,1531.76014406036
0.0274803801011378,1531.77014406036
0.0239602139672376,1531.78014406036
0.020675875765123,1531.79014406036
0.017339992109788,1531.80014406036
0.0146894640456493,1531.81014406036
0.0119075019751251,1531.82014406036
0.00853776446443608,1531.83014406036
0.0053241235084266,1531.84014406036
0.00171747538655964,1531.85014406036
-0.0018980011209763,1531.86014406036
-0.005370815756367,1531.87014406036
-0.00912929370618129,1531.88014406036
-0.0133225990578404,1531.89014406036
-0.0179473578189075,1531.90014406036
-0.022493022174689,1531.91014406036
-0.0259020020997096,1531.92014406036
-0.0273686831682265,1531.93014406036
-0.0261664215331664,1531.94014406036
-0.0226681008777723,1531.95014406036
-0.0164378072715335,1531.96014406036
-0.0087611183820197,1531.97014406036
0.000376165346193763,1531.98014406036
0.0103961303728925,1531.99014406036
0.0195090005202452,1532.00014406036
0.0284607354588454,1532.01014406036
0.0353753426477188,1532.02014406036
0.0403644092949489,1532.03014406036
0.0437729454172865,1532.04014406036
0.0458672351835472,1532.05014406036
0.0471986485383648,1532.06014406036
0.0479475673707848,1532.07014406036
0.0481749786046121,1532.08014406036
0.048423601131623,1532.09014406036
0.0483043194040297,1532.10014406036
0.0489190173120767,1532.11014406036
0.0492190580211659,1532.12014406036
0.0501542622263394,1532.13014406036
0.0516226501057928,1532.14014406036
0.0534091096572071,1532.15014406036
0.0556168464161184,1532.16014406036
0.0580080397621252,1532.17014406036
0.0604579446692924,1532.18014406036
0.0619452848887043,1532.19014406036
0.0630209379296674,1532.20014406036
0.0625672699672558,1532.21014406036
0.0616822462660125,1532.22014406036
0.0605906579734923,1532.23014406036
0.0596303507028055,1532.24014406036
0.0585402766476565,1532.25014406036
0.0575393477588824,1532.26014406036
0.0569671878423729,1532.27014406036
0.0562923555418589,1532.28014406036
0.0559764039838431,1532.29014406036
0.0556089345403031,1532.30014406036
0.0558150122748627,1532.31014406036
0.0564694378406767,1532.32014406036
0.0570687387948124,1532.33014406036
0.0574042279692212,1532.34014406036
0.056909588861703,1532.35014406036
0.0563301762505122,1532.36014406036
0.0555892964535445,1532.37014406036
0.0539884470473167,1532.38014406036
0.0524575849431673,1532.39014406036
0.0507438050751547,1532.40014406036
0.0493867712287371,1532.41014406036
0.0482583425363224,1532.42014406036
0.0468994772178389,1532.43014406036
0.0454877328822497,1532.44014406036
0.0436623368881825,1532.45014406036
0.0418014098939834,1532.46014406036
0.0397167901561856,1532.47014406036
0.0373943285087796,1532.48014406036
0.0353580769963405,1532.49014406036
0.033286619825197,1532.50014406036
0.0312312918218348,1532.51014406036
0.0290320771965793,1532.52014406036
0.0268539916080229,1532.53014406036
0.0243830865975283,1532.54014406036
0.0223969617133084,1532.55014406036
0.0204790860842507,1532.56014406036
0.0180163480105692,1532.57014406036
0.0152761652673181,1532.58014406036
0.0125745413270147,1532.59014406036
0.00917480514949859,1532.60014406036
0.00556550461335476,1532.61014406036
0.00222294490756636,1532.62014406036
-0.000456425735301443,1532.63014406036
-0.0028788110762098,1532.64014406036
-0.00535945379845139,1532.65014406036
-0.00758215792819086,1532.66014406036
-0.00988116370559468,1532.67014406036
-0.0122035702647808,1532.68014406036
-0.0141302369624508,1532.69014406036
-0.0164757873359603,1532.70014406036
-0.0190181204310142,1532.71014406036
-0.0220511411607583,1532.72014406036
-0.0252177449651064,1532.73014406036
-0.0283822002803663,1532.74014406036
-0.0316295465904749,1532.75014406036
-0.0348064802369458,1532.76014406036
-0.0377098365836535,1532.77014406036
-0.0405444708633256,1532.78014406036
-0.0431957541293538,1532.79014406036
-0.0465129628984007,1532.80014406036
-0.0501163963660698,1532.81014406036
-0.0527562857237094,1532.82014406036
-0.0542784022451919,1532.83014406036
-0.0538395155603664,1532.84014406036
-0.0512319154241284,1532.85014406036
-0.0459637537708368,1532.86014406036
-0.0386812782420995,1532.87014406036
-0.0298602897569563,1532.88014406036
-0.0208631385525003,1532.89014406036
-0.0123105749846206,1532.90014406036
-0.00437417961680128,1532.91014406036
0.00248299237974491,1532.92014406036
0.00815626062510831,1532.93014406036
0.0130396287889654,1532.94014406036
0.0161969224692373,1532.95014406036
0.0182553576076673,1532.96014406036
0.0196817822187836,1532.97014406036
0.0202422867739091,1532.98014406036
0.0206765907756816,1532.99014406036
0.0210563377425992,1533.00014406036
0.0220793611718958,1533.01014406036
0.0228225102937984,1533.02014406036
0.0236992454242778,1533.03014406036
0.0248174654305785,1533.04014406036
0.0260317968542579,1533.05014406036
0.0276608751485705,1533.06014406036
0.0296103337510161,1533.07014406036
0.03142303764291,1533.08014406036
0.0327595585902885,1533.09014406036
0.0331705497520419,1533.10014406036
0.0330116085834977,1533.11014406036
0.0318127943212248,1533.12014406036
0.0299737270533302,1533.13014406036
0.0284201940863368,1533.14014406036
0.0271045500195444,1533.15014406036
0.0263337013518413,1533.16014406036
0.0262996448127413,1533.17014406036
0.0262208954390404,1533.18014406036
0.0267103819940804,1533.19014406036
0.0267621687381153,1533.20014406036
0.027345056054994,1533.21014406036
0.0275728020992911,1533.22014406036
0.0281457799192318,1533.23014406036
0.029337440679271,1533.24014406036
0.0297458015087761,1533.25014406036
0.0302405180432087,1533.26014406036
0.0306211840359415,1533.27014406036
0.0308809538216458,1533.28014406036
0.0306780067291675,1533.29014406036
0.0301306370057163,1533.30014406036
0.0291863941526202,1533.31014406036
0.0274747424383955,1533.32014406036
0.0254685114104653,1533.33014406036
0.0232911050376817,1533.34014406036
0.0214298675954483,1533.35014406036
0.019123205326489,1533.36014406036
0.0167260679835524,1533.37014406036
0.0141948577393066,1533.38014406036
0.0112903204336922,1533.39014406036
0.00858235435300596,1533.40014406036
0.00646823429430851,1533.41014406036
0.00490580054388729,1533.42014406036
0.00386952363718496,1533.43014406036
0.00313392168502287,1533.44014406036
0.00213689462007158,1533.45014406036
0.000417189641840316,1533.46014406036
-0.00142210009148313,1533.47014406036
-0.00344696255427166,1533.48014406036
-0.005853713058679,1533.49014406036
-0.00825099124209127,1533.50014406036
-0.0104428064926867,1533.51014406036
-0.0129249724438263,1533.52014406036
-0.0158267828736254,1533.53014406036
-0.0187431003111433,1533.54014406036
-0.0215179267288759,1533.55014406036
-0.0244337558538827,1533.56014406036
-0.0276713777671579,1533.57014406036
-0.030124268996751,1533.58014406036
-0.0322721725696668,1533.59014406036
-0.0342368636564513,1533.60014406036
-0.0359424356406663,1533.61014406036
-0.0374748418387781,1533.62014406036
-0.0396678824343179,1533.63014406036
-0.0418943521435164,1533.64014406036
-0.0444288606695454,1533.65014406036
-0.0472101562722595,1533.66014406036
-0.0501070603546439,1533.67014406036
-0.0521239039196062,1533.68014406036
-0.0532236876130948,1533.69014406036
-0.0525048723171223,1533.70014406036
-0.0498818618960412,1533.71014406036
-0.0446049760108181,1533.72014406036
-0.0373740013241903,1533.73014406036
-0.0289123559354391,1533.74014406036
-0.0196787800706755,1533.75014406036
-0.0100233520467819,1533.76014406036
-0.000902599968457094,1533.77014406036
0.00702520927067158,1533.78014406036
0.0136434683456416,1533.79014406036
0.0187329881019794,1533.80014406036
0.0224251283048827,1533.81014406036
0.0250574948295483,1533.82014406036
0.0263114790355834,1533.83014406036
0.027132719129972,1533.84014406036
0.0275939238955477,1533.85014406036
0.0287775304907614,1533.86014406036
0.0307109797532869,1533.87014406036
0.0334826290829203,1533.88014406036
0.0371351298775866,1533.89014406036
0.0411357028170627,1533.90014406036
0.0447894772549693,1533.91014406036
0.0487502680428487,1533.92014406036
0.0519825188416222,1533.93014406036
0.0552950933589231,1533.94014406036
0.0581198378539841,1533.95014406036
0.0600471943469367,1533.96014406036
0.0608435526904462,1533.97014406036
0.0602504406677697,1533.98014406036
0.0590557219118175,1533.99014406036
0.0574650103047769,1534.00014406036
0.0557675610945835,1534.01014406036
0.0541433179598874,1534.02014406036
0.0533124237802924,1534.03014406036
0.0532832770729471,1534.04014406036
0.0542551761415401,1534.05014406036
0.0558205976834481,1534.06014406036
0.0572214558544583,1534.07014406036
0.058917060933542,1534.08014406036
0.0604344997539042,1534.09014406036
0.0616831349111196,1534.10014406036
0.0626579783721106,1534.11014406036
0.0629331287665038,1534.12014406036
0.0628571510631505,1534.13014406036
0.0624067553417512,1534.14014406036
0.0614080346291894,1534.15014406036
0.0612263006400482,1534.16014406036
0.0609195953804234,1534.17014406036
0.0610305129114729,1534.18014406036
0.0605024918161612,1534.19014406036
0.059433638669281,1534.20014406036
0.0580961695723359,1534.21014406036
0.0559988302729119,1534.22014406036
0.0544296730406019,1534.23014406036
0.0519505895240688,1534.24014406036
0.0493592949472108,1534.25014406036
0.0473443813386605,1534.26014406036
0.0452162252755375,1534.27014406036
0.0431258948702622,1534.28014406036
0.0408704561909548,1534.29014406036
0.0391723333038368,1534.30014406036
0.0372360981175503,1534.31014406036
0.0355111080225167,1534.32014406036
0.0337893902994205,1534.33014406036
0.0313904879614132,1534.34014406036
0.0292134226196335,1534.35014406036
0.0266447789613371,1534.36014406036
0.0240592457441421,1534.37014406036
0.021475722863875,1534.38014406036
0.0185329906559251,1534.39014406036
0.0163498087537006,1534.40014406036
0.0137820947251472,1534.41014406036
0.0120069752651214,1534.42014406036
0.0101700383983499,1534.43014406036
0.00785296460013498,1534.44014406036
0.00536640848802961,1534.45014406036
0.00285147616517974,1534.46014406036
-0.00013270548462382,1534.47014406036
-0.00301443290988983,1534.48014406036
-0.00635460593974044,1534.49014406036
-0.00951928764500156,1534.50014406036
-0.0128287535348733,1534.51014406036
-0.0161004693075089,1534.52014406036
-0.0196532375278332,1534.53014406036
-0.0228492414756696,1534.54014406036
-0.0254748231064392,1534.55014406036
-0.0275070752638605,1534.56014406036
-0.0281334536176146,1534.57014406036
-0.0270015984075546,1534.58014406036
-0.0234214294576441,1534.59014406036
-0.0173902602336598,1534.60014406036
-0.00965419047129357,1534.61014406036
-0.000266289020430548,1534.62014406036
0.0101543681372711,1534.63014406036
0.0200776143394396,1534.64014406036
0.0293478440547141,1534.65014406036
0.0367159279736684,1534.66014406036
0.042906079579696,1534.67014406036
0.0473767646831896,1534.68014406036
0.0508182490016368,1534.69014406036
0.053215430808585,1534.70014406036
0.0555144519687169,1534.71014406036
0.0570467866394243,1534.72014406036
0.0589886544621304,1534.73014406036
0.0610153259413697,1534.74014406036
0.0634870082251066,1534.75014406036
0.0663532793061,1534.76014406036
0.0698389760553548,1534.77014406036
0.073175456788978,1534.78014406036
0.0770732060065543,1534.79014406036
0.0806422559745372,1534.80014406036
0.083985471740757,1534.81014406036
0.0864691029725297,1534.82014406036
0.0884132454577166,1534.83014406036
0.0897635685692699,1534.84014406036
0.0903001650585586,1534.85014406036
0.0910200809055101,1534.86014406036
0.090493579119628,1534.87014406036
0.0892442611764525,1534.88014406036
0.0879588097933137,1534.89014406036
0.0864604853498183,1534.90014406036
0.0856785407948275,1534.91014406036
0.0854650494376746,1534.92014406036
0.0855229154071982,1534.93014406036
0.085915995329233,1534.94014406036
0.086242400099276,1534.95014406036
0.0871105886940936,1534.96014406036
0.0877771243872353,1534.97014406036
0.0875919172095038,1534.98014406036
0.0874969738334663,1534.99014406036
0.0869601243952353,1535.00014406036
0.0869075883675848,1535.01014406036
0.0866356344260839,1535.02014406036
0.086175414116103,1535.03014406036
0.0852616408205251,1535.04014406036
0.0845243774137646,1535.05014406036
0.0834300252686117,1535.06014406036
0.0820893452690057,1535.07014406036
0.0810072717003265,1535.08014406036
0.0796800092019354,1535.09014406036
0.0784644729420488,1535.10014406036
0.0767479463954924,1535.11014406036
0.0752314283527396,1535.12014406036
0.0736363310916958,1535.13014406036
0.0719987740784966,1535.14014406036
0.069369011681506,1535.15014406036
0.0669458109893611,1535.16014406036
0.0638720535360282,1535.17014406036
0.0610578016398027,1535.18014406036
0.0585039740898608,1535.19014406036
0.0559842713648414,1535.20014406036
0.0534108014529511,1535.21014406036
0.0509234868567211,1535.22014406036
0.0485619660268334,1535.23014406036
0.0460329560887329,1535.24014406036
0.0433308152442642,1535.25014406036
0.0409577444085687,1535.26014406036
0.0385195115451109,1535.27014406036
0.0362701863400595,1535.28014406036
0.0342078444866059,1535.29014406036
0.0310701292739286,1535.30014406036
0.0278865627687503,1535.31014406036
0.0245728697018369,1535.32014406036
0.0216324603414402,1535.33014406036
0.0184408531630217,1535.34014406036
0.016168652079364,1535.35014406036
0.014259300975962,1535.36014406036
0.0119496522236517,1535.37014406036
0.0102819672058703,1535.38014406036
0.00787299691397346,1535.39014406036
0.00538204731784813,1535.40014406036
0.0025865834407214,1535.41014406036
-0.000632202453968218,1535.42014406036
-0.00433832494989205,1535.43014406036
-0.00764449398391939,1535.44014406036
-0.0106421854624058,1535.45014406036
-0.0135063239501353,1535.46014406036
-0.0170949373065394,1535.47014406036
-0.0206972428202613,1535.48014406036
-0.0234445930400109,1535.49014406036
-0.0256029458678955,1535.50014406036
-0.0260507790713072,1535.51014406036
-0.0246535213281341,1535.52014406036
-0.0207043417116196,1535.53014406036
-0.0149666596240819,1535.54014406036
-0.00744902523993125,1535.55014406036
0.00129555847516319,1535.56014406036
0.0101944967423718,1535.57014406036
0.0186026222046454,1535.58014406036
0.0259624755135104,1535.59014406036
0.03165814099873,1535.60014406036
0.035664278084185,1535.61014406036
0.0382351143855774,1535.62014406036
0.0399009224883767,1535.63014406036
0.04064905908369,1535.64014406036
0.041701224245393,1535.65014406036
0.0421961820550781,1535.66014406036
0.0426876832262513,1535.67014406036
0.0430511181258586,1535.68014406036
0.0439627712571461,1535.69014406036
0.0449912504973048,1535.70014406036
0.0464556759431556,1535.71014406036
0.0486667444844882,1535.72014406036
0.0507792430633399,1535.73014406036
0.0530512457945564,1535.74014406036
0.0551307912935577,1535.75014406036
0.0568786485288328,1535.76014406036
0.0580855736724952,1535.77014406036
0.0590089528845959,1535.78014406036
0.0591063881548048,1535.79014406036
0.0579810959544816,1535.80014406036
0.0567372573644408,1535.81014406036
0.0552802760962232,1535.82014406036
0.0541936882190057,1535.83014406036
0.0527591796870614,1535.84014406036
0.052051415852627,1535.85014406036
0.0515580979038117,1535.86014406036
0.0514187746093408,1535.87014406036
0.0518926599047804,1535.88014406036
0.0523646019375436,1535.89014406036
0.0532940792697497,1535.90014406036
0.0534773512418269,1535.91014406036
0.0539830569693296,1535.92014406036
0.0539917392012218,1535.93014406036
0.0537294903810514,1535.94014406036
0.0527151360826438,1535.95014406036
0.0518066559069842,1535.96014406036
0.0508276948692157,1535.97014406036
0.0496624820897478,1535.98014406036
0.0484713834422152,1535.99014406036
0.0477935913355454,1536.00014406036
0.0468270963611942,1536.01014406036
0.0454266213938322,1536.02014406036
0.0441927655956718,1536.03014406036
0.042156733754127,1536.04014406036
0.0402166445582426,1536.05014406036
0.0377643982374072,1536.06014406036
0.0350477758788145,1536.07014406036
0.0324614872711727,1536.08014406036
0.0298978877422402,1536.09014406036
0.0272351655301291,1536.10014406036
0.0247588291490382,1536.11014406036
0.0229167588753062,1536.12014406036
0.0208443165778341,1536.13014406036
0.018595769921582,1536.14014406036
0.0165896463671744,1536.15014406036
0.0139324400436416,1536.16014406036
0.0119967780783436,1536.17014406036
0.0097426747716697,1536.18014406036
0.00758981877307365,1536.19014406036
0.00560512836124434,1536.20014406036
0.00270659548046816,1536.21014406036
-0.000169729478759825,1536.22014406036
-0.00323990042757262,1536.23014406036
-0.00660793844886616,1536.24014406036
-0.0104131842819786,1536.25014406036
-0.014021932843372,1536.26014406036
-0.0172843828337918,1536.27014406036
-0.0205379027806723,1536.28014406036
-0.0233899808345939,1536.29014406036
-0.0263176085014636,1536.30014406036
-0.0296428652645477,1536.31014406036
-0.0329702835357435,1536.32014406036
-0.0361238231101921,1536.33014406036
-0.0390942170870589,1536.34014406036
-0.0420029831640188,1536.35014406036
-0.044802891417974,1536.36014406036
-0.0473311989156454,1536.37014406036
-0.0494446401611484,1536.38014406036
-0.0512914703887419,1536.39014406036
-0.0530113687723988,1536.40014406036
-0.0553161270068877,1536.41014406036
-0.0580918000570439,1536.42014406036
-0.0613888290001524,1536.43014406036
-0.0652662372768358,1536.44014406036
-0.0694813467332547,1536.45014406036
-0.0735816629615084,1536.46014406036
-0.0766064802846967,1536.47014406036
-0.079009813463521,1536.48014406036
-0.07942132663744,1536.49014406036
-0.0772534103148192,1536.50014406036
-0.0733869365103249,1536.51014406036
-0.0676249221708272,1536.52014406036
-0.0601434030252985,1536.53014406036
-0.0520658626332557,1536.54014406036
-0.0443267901234263,1536.55014406036
-0.0374482716788762,1536.56014406036
-0.0322450013213247,1536.57014406036
-0.0287965404617244,1536.58014406036
-0.0265673411202054,1536.59014406036
-0.0251903831010088,1536.60014406036
-0.0238968662945027,1536.61014406036
-0.0228401855883621,1536.62014406036
-0.0221277532401284,1536.63014406036
-0.0221967535107577,1536.64014406036
-0.0225034696371875,1536.65014406036
-0.0230983283315099,1536.66014406036
-0.0231153384429586,1536.67014406036
-0.0231189737424587,1536.68014406036
-0.0230588537448609,1536.69014406036
-0.0226940842059567,1536.70014406036
-0.021864549853515,1536.71014406036
-0.0213233118687926,1536.72014406036
-0.020426368791619,1536.73014406036
-0.0192706290639283,1536.74014406036
-0.0183127739778728,1536.75014406036
-0.0182831757040147,1536.76014406036
-0.0190433888981123,1536.77014406036
-0.0203971561159823,1536.78014406036
-0.0215722364742204,1536.79014406036
-0.0228174696484778,1536.80014406036
-0.0236453443493141,1536.81014406036
-0.0240884341267274,1536.82014406036
-0.0245132686198387,1536.83014406036
-0.0245740492374119,1536.84014406036
-0.0247462417065092,1536.85014406036
-0.0246950501065279,1536.86014406036
-0.0247134306649874,1536.87014406036
-0.0248733163035012,1536.88014406036
-0.0248047526657615,1536.89014406036
-0.0246826520445748,1536.90014406036
-0.0244737851964984,1536.91014406036
-0.0247356844856227,1536.92014406036
-0.025176067559221,1536.93014406036
-0.0258474220404353,1536.94014406036
-0.0271432288222329,1536.95014406036
-0.028445247010311,1536.96014406036
-0.0304109184992958,1536.97014406036
-0.032237096388402,1536.98014406036
-0.0338941805315217,1536.99014406036
-0.0355710550528911,1537.00014406036
-0.0369409542911336,1537.01014406036
-0.0378385549896883,1537.02014406036
-0.038593736510916,1537.03014406036
-0.0396244704519684,1537.04014406036
-0.0406117129454427,1537.05014406036
-0.0422488618368468,1537.06014406036
-0.0443532793661899,1537.07014406036
-0.0470455407381297,1537.08014406036
-0.0490884262711525,1537.09014406036
-0.0515458910637695,1537.10014406036
-0.053421335250943,1537.11014406036
-0.0552377799371052,1537.12014406036
-0.0576392296550565,1537.13014406036
-0.0599567870105181,1537.14014406036
-0.0623661486152398,1537.15014406036
-0.0645026242626916,1537.16014406036
-0.0669733983246025,1537.17014406036
-0.0691822528813469,1537.18014406036
-0.0711091839902389,1537.19014406036
-0.0733767850284055,1537.20014406036
-0.0748345084846028,1537.21014406036
-0.0767066820037354,1537.22014406036
-0.0785889762806948,1537.23014406036
-0.0800876369979493,1537.24014406036
-0.0820537715026395,1537.25014406036
-0.0839207885371684,1537.26014406036
-0.0859317752072264,1537.27014406036
-0.0880813423481944,1537.28014406036
-0.0905356751326537,1537.29014406036
-0.0934166309845456,1537.30014406036
-0.0961782099376652,1537.31014406036
-0.0985893252313493,1537.32014406036
-0.100813511823975,1537.33014406036
-0.103281002311803,1537.34014406036
-0.105532761088578,1537.35014406036
-0.107883925660481,1537.36014406036
-0.110468841304723,1537.37014406036
-0.112849753485723,1537.38014406036
-0.115335411083447,1537.39014406036
-0.116998970071197,1537.40014406036
-0.117467122741771,1537.41014406036
-0.115617119178769,1537.42014406036
-0.111511289106248,1537.43014406036
-0.105945079466185,1537.44014406036
-0.099456135034887,1537.45014406036
-0.0921428677486627,1537.46014406036
-0.0852499047525553,1537.47014406036
-0.079174721706667,1537.48014406036
-0.0743658542769613,1537.49014406036
-0.0708758759067416,1537.50014406036
-0.0687441296796915,1537.51014406036
-0.0671941031563849,1537.52014406036
-0.0664532341050649,1537.53014406036
-0.0659908246656265,1537.54014406036
-0.0657276505985128,1537.55014406036
-0.0655646624495244,1537.56014406036
-0.0653045614789393,1537.57014406036
-0.0653275985914044,1537.58014406036
-0.0649830932980679,1537.59014406036
-0.0645164861153774,1537.60014406036
-0.0636283434900083,1537.61014406036
-0.0629473969057466,1537.62014406036
-0.0621684007602233,1537.63014406036
-0.0614298585595361,1537.64014406036
-0.0610373331928296,1537.65014406036
-0.0603698815821428,1537.66014406036
-0.059890417725746,1537.67014406036
-0.0601602189156132,1537.68014406036
-0.0604498747316769,1537.69014406036
-0.0611148069424231,1537.70014406036
-0.0621160761955872,1537.71014406036
-0.0625591525957577,1537.72014406036
-0.0630501042585132,1537.73014406036
-0.0630236246797986,1537.74014406036
-0.0625966853267665,1537.75014406036
-0.0623531350100858,1537.76014406036
-0.0617419456686005,1537.77014406036
-0.0611702208812187,1537.78014406036
-0.0602778615378046,1537.79014406036
-0.0598638549311074,1537.80014406036
-0.059364022243188,1537.81014406036
-0.0593171322882941,1537.82014406036
-0.0598073462709572,1537.83014406036
-0.0607834280884642,1537.84014406036
-0.0618052640032042,1537.85014406036
-0.0634954094984339,1537.86014406036
-0.0649024147965499,1537.87014406036
-0.0658686178546088,1537.88014406036
-0.0664368380240925,1537.89014406036
-0.0668016795827303,1537.90014406036
-0.0678173626442067,1537.91014406036
-0.0685965663943876,1537.92014406036
-0.0694502581193798,1537.93014406036
-0.0701149917482821,1537.94014406036
-0.0710504306076574,1537.95014406036
-0.0722055755269595,1537.96014406036
-0.0738129303834911,1537.97014406036
-0.0752391536660928,1537.98014406036
-0.0767968809315518,1537.99014406036
-0.0783574411532897,1538.00014406036
-0.0795934163364127,1538.01014406036
-0.0811497027796417,1538.02014406036
-0.0823070843861193,1538.03014406036
-0.0836467150607996,1538.04014406036
-0.0853930562614389,1538.05014406036
-0.0877590664475289,1538.06014406036
-0.0900267953740812,1538.07014406036
-0.0921876958673904,1538.08014406036
-0.0945691516657178,1538.09014406036
-0.0962905293890469,1538.10014406036
-0.0978842617234902,1538.11014406036
-0.0999094125750281,1538.12014406036
-0.101024022747291,1538.13014406036
-0.102503001773565,1538.14014406036
-0.104131695625749,1538.15014406036
-0.105763757537693,1538.16014406036
-0.107557594080948,1538.17014406036
-0.109448829679381,1538.18014406036
-0.110811240625946,1538.19014406036
-0.112168006281332,1538.20014406036
-0.113716243299078,1538.21014406036
-0.114699831555327,1538.22014406036
-0.115817732504682,1538.23014406036
-0.117213211668927,1538.24014406036
-0.118984673381745,1538.25014406036
-0.121073664276625,1538.26014406036
-0.122785440459813,1538.27014406036
-0.124665691206176,1538.28014406036
-0.126302949365955,1538.29014406036
-0.127944704523545,1538.30014406036
-0.129347988420172,1538.31014406036
-0.129842506989041,1538.32014406036
-0.129212802417244,1538.33014406036
-0.126665665213834,1538.34014406036
-0.122076462642925,1538.35014406036
-0.115666747791447,1538.36014406036
-0.108093505275074,1538.37014406036
-0.0998469456867761,1538.38014406036
-0.0915987787081157,1538.39014406036
-0.0838156919988944,1538.40014406036
-0.0770671640094974,1538.41014406036
-0.0717567788809977,1538.42014406036
-0.0685521972981736,1538.43014406036
-0.0667059675518405,1538.44014406036
-0.0656153007427098,1538.45014406036
-0.0653975819994691,1538.46014406036
-0.0659801717325204,1538.47014406036
-0.0660376329382297,1538.48014406036
-0.066004353526222,1538.49014406036
-0.0652326793548458,1538.50014406036
-0.0638867819459829,1538.51014406036
-0.0621258873721686,1538.52014406036
-0.0606563000785532,1538.53014406036
-0.0595694091658296,1538.54014406036
-0.0585873896107446,1538.55014406036
-0.0572379727554646,1538.56014406036
-0.0555614277686423,1538.57014406036
-0.0535529283466913,1538.58014406036
-0.0521827852834579,1538.59014406036
-0.0513028708694578,1538.60014406036
-0.0506894461836387,1538.61014406036
-0.0511219029996473,1538.62014406036
-0.052256064895877,1538.63014406036
-0.0534389134040169,1538.64014406036
-0.0544660325673115,1538.65014406036
-0.0551918329662736,1538.66014406036
-0.0554759754512711,1538.67014406036
-0.0550368679353797,1538.68014406036
-0.0547175516804925,1538.69014406036
-0.0537551145749116,1538.70014406036
-0.0527929372669476,1538.71014406036
-0.0522171651844233,1538.72014406036
-0.0509701093596104,1538.73014406036
-0.0504060489373536,1538.74014406036
-0.049421849572139,1538.75014406036
-0.0485339153307451,1538.76014406036
-0.0485355103596906,1538.77014406036
-0.0486118721976275,1538.78014406036
-0.0490035568413632,1538.79014406036
-0.0497130166660574,1538.80014406036
-0.0503486722888258,1538.81014406036
-0.0510939024001903,1538.82014406036
-0.0517808118713517,1538.83014406036
-0.0525159129548478,1538.84014406036
-0.0532097653483496,1538.85014406036
-0.0537952933665196,1538.86014406036
-0.0543547504861405,1538.87014406036
-0.0548396202716187,1538.88014406036
-0.0556878631196367,1538.89014406036
-0.057014497879337,1538.90014406036
-0.0580104840234532,1538.91014406036
-0.0592908613693414,1538.92014406036
-0.0599959383976182,1538.93014406036
-0.0608553211288409,1538.94014406036
-0.0618548386124942,1538.95014406036
-0.0628200387514019,1538.96014406036
-0.0640749110815975,1538.97014406036
-0.0653533967888605,1538.98014406036
-0.066659135648436,1538.99014406036
-0.0680845288561752,1539.00014406036
-0.0690980666250673,1539.01014406036
-0.0702802518812485,1539.02014406036
-0.0717806669262056,1539.03014406036
-0.0734833148475992,1539.04014406036
-0.075502849515564,1539.05014406036
-0.0778371469300224,1539.06014406036
-0.079757461650444,1539.07014406036
-0.081599414955954,1539.08014406036
-0.0831596009903545,1539.09014406036
-0.0840529966337369,1539.10014406036
-0.0851779245323719,1539.11014406036
-0.0859496844140531,1539.12014406036
-0.0871500647688074,1539.13014406036
-0.0883226825410414,1539.14014406036
-0.0894753548242089,1539.15014406036
-0.0906567222637304,1539.16014406036
-0.0916118276579905,1539.17014406036
-0.0928212892637154,1539.18014406036
-0.0944465547242604,1539.19014406036
-0.0957965860174292,1539.20014406036
-0.0969070360957946,1539.21014406036
-0.097777515297153,1539.22014406036
-0.0991053497896991,1539.23014406036
-0.100328361135622,1539.24014406036
-0.102193462169582,1539.25014406036
-0.104077327758148,1539.26014406036
-0.105191347881125,1539.27014406036
-0.105362512277105,1539.28014406036
-0.104077461102821,1539.29014406036
-0.101092516832308,1539.30014406036
-0.0954196117918717,1539.31014406036
-0.0878076433890959,1539.32014406036
-0.0793946763213886,1539.33014406036
-0.0699651692875094,1539.34014406036
-0.0612088777041845,1539.35014406036
-0.0532771365016866,1539.36014406036
-0.047397469357099,1539.37014406036
-0.0434837009780963,1539.38014406036
-0.0410472488230371,1539.39014406036
-0.039428321257559,1539.40014406036
-0.0385861758959728,1539.41014406036
-0.0381420817780329,1539.42014406036
-0.0375268924080985,1539.43014406036
-0.0369432274762345,1539.44014406036
-0.0359948027419613,1539.45014406036
-0.0346672662664379,1539.46014406036
-0.0333777072583643,1539.47014406036
-0.0315525068630855,1539.48014406036
-0.0295816009761328,1539.49014406036
-0.0273320667173113,1539.50014406036
-0.025279869750881,1539.51014406036
-0.02240655254643,1539.52014406036
-0.019515496118991,1539.53014406036
-0.0173445767240088,1539.54014406036
-0.0160564214818259,1539.55014406036
-0.0154379789384792,1539.56014406036
-0.0161841363921919,1539.57014406036
-0.0171402316197909,1539.58014406036
-0.0181843007325401,1539.59014406036
-0.0189573203916508,1539.60014406036
-0.0190190911847784,1539.61014406036
-0.0188594761934771,1539.62014406036
-0.0176826689483145,1539.63014406036
-0.0163254297604064,1539.64014406036
-0.0148624746669112,1539.65014406036
-0.0134918908270098,1539.66014406036
-0.0121554640605789,1539.67014406036
-0.0108497470739457,1539.68014406036
-0.00933362740903767,1539.69014406036
-0.00864980701398862,1539.70014406036
-0.00842851778513202,1539.71014406036
-0.00820763385799042,1539.72014406036
-0.00904572035774545,1539.73014406036
-0.0104438695088529,1539.74014406036
-0.0117229700295333,1539.75014406036
-0.0116648020691651,1539.76014406036
-0.0115791901731151,1539.77014406036
-0.0112737508715365,1539.78014406036
-0.0112073444822455,1539.79014406036
-0.0113575395606457,1539.80014406036
-0.011708002921152,1539.81014406036
-0.0128307849764116,1539.82014406036
-0.0141098519152125,1539.83014406036
-0.0153933311372023,1539.84014406036
-0.0163502541542485,1539.85014406036
-0.01699833239655,1539.86014406036
-0.0175392204789151,1539.87014406036
-0.0179018890069435,1539.88014406036
-0.018596754017135,1539.89014406036
-0.0197741724271808,1539.90014406036
-0.0204036326397413,1539.91014406036
-0.0215526930243368,1539.92014406036
-0.0223765648800744,1539.93014406036
-0.0230342359022343,1539.94014406036
-0.0242748025994782,1539.95014406036
-0.0255561043898567,1539.96014406036
