PPG,time
-0.0971316945934022,2171.66560876051
-0.210080055025542,2171.67560876051
-0.210207443098696,2171.68560876051
-0.24379624605549,2171.69560876051
-0.257275559891988,2171.70560876051
-0.28299688740816,2171.71560876051
-0.301039814251207,2171.72560876051
-0.323157850446061,2171.73560876051
-0.341973988535124,2171.74560876051
-0.361494743765628,2171.75560876051
-0.37819175264099,2171.76560876051
-0.39406072835643,2171.77560876051
-0.408371652606366,2171.78560876051
-0.421324058431097,2171.79560876051
-0.434144596862979,2171.80560876051
-0.446306592030477,2171.81560876051
-0.458374584484871,2171.82560876051
-0.470413586760242,2171.83560876051
-0.482067825426455,2171.84560876051
-0.493262170935688,2171.85560876051
-0.504287650144063,2171.86560876051
-0.515584433772955,2171.87560876051
-0.52622547847423,2171.88560876051
-0.536605317894017,2171.89560876051
-0.546427883219411,2171.90560876051
-0.556392894506544,2171.91560876051
-0.566859215924503,2171.92560876051
-0.577474577782935,2171.93560876051
-0.588464536516092,2171.94560876051
-0.599398544502398,2171.95560876051
-0.61011492291135,2171.96560876051
-0.618410255847985,2171.97560876051
-0.618236931589612,2171.98560876051
-0.596380912399664,2171.99560876051
-0.533849701693859,2172.00560876051
-0.414503517012898,2172.01560876051
-0.236404874447464,2172.02560876051
-0.0181662989787537,2172.03560876051
0.204192388291346,2172.04560876051
0.396618258374577,2172.05560876051
0.537986782120304,2172.06560876051
0.62263692609773,2172.07560876051
0.659836747716155,2172.08560876051
0.664213346947671,2172.09560876051
0.649431195617291,2172.10560876051
0.626022940206044,2172.11560876051
0.59831292425809,2172.12560876051
0.569308836132965,2172.13560876051
0.539417858437777,2172.14560876051
0.507510814995071,2172.15560876051
0.475197485935158,2172.16560876051
0.442423888299664,2172.17560876051
0.410073626908921,2172.18560876051
0.37954945842498,2172.19560876051
0.350834645056772,2172.20560876051
0.324556703111411,2172.21560876051
0.299483355155111,2172.22560876051
0.276381800359947,2172.23560876051
0.254563078709486,2172.24560876051
0.233964600828654,2172.25560876051
0.213787877045127,2172.26560876051
0.192650680383872,2172.27560876051
0.170002127399675,2172.28560876051
0.144657177296618,2172.29560876051
0.116365273623975,2172.30560876051
0.0863215678977667,2172.31560876051
0.0558953201133588,2172.32560876051
0.0271240106608536,2172.33560876051
0.00398431896980723,2172.34560876051
-0.0128054069467293,2172.35560876051
-0.0217025696166242,2172.36560876051
-0.0218924777335311,2172.37560876051
-0.0131244487976904,2172.38560876051
0.0032032034825629,2172.39560876051
0.0247776764866264,2172.40560876051
0.0480217309159184,2172.41560876051
0.0694656656359279,2172.42560876051
0.0860012655616343,2172.43560876051
0.0958831268862526,2172.44560876051
0.0988825207274476,2172.45560876051
0.0943780446530222,2172.46560876051
0.0842591401285677,2172.47560876051
0.0695255404115583,2172.48560876051
0.0509338345769623,2172.49560876051
0.0302445241894022,2172.50560876051
0.00890630106290208,2172.51560876051
-0.0124003328540063,2172.52560876051
-0.0332454823875007,2172.53560876051
-0.0531908063579535,2172.54560876051
-0.0721136700117051,2172.55560876051
-0.0905137426817791,2172.56560876051
-0.107918353146684,2172.57560876051
-0.124776337673176,2172.58560876051
-0.1413565929806,2172.59560876051
-0.157549475627493,2172.60560876051
-0.173718146970889,2172.61560876051
-0.190127344085721,2172.62560876051
-0.205983215009605,2172.63560876051
-0.22128510981061,2172.64560876051
-0.236425428896025,2172.65560876051
-0.252055222727627,2172.66560876051
-0.267412827149487,2172.67560876051
-0.283054191030627,2172.68560876051
-0.298328061081201,2172.69560876051
-0.313039020939935,2172.70560876051
-0.327323327234234,2172.71560876051
-0.341515712580314,2172.72560876051
-0.356109006544616,2172.73560876051
-0.369688808140933,2172.74560876051
-0.383403447667118,2172.75560876051
-0.396156772252713,2172.76560876051
-0.407939785281108,2172.77560876051
-0.419034197517456,2172.78560876051
-0.428992997531644,2172.79560876051
-0.43918009069469,2172.80560876051
-0.449704383862483,2172.81560876051
-0.460338747440205,2172.82560876051
-0.470867888026546,2172.83560876051
-0.481450756078646,2172.84560876051
-0.492481873049256,2172.85560876051
-0.50365336046905,2172.86560876051
-0.513768987148196,2172.87560876051
-0.521748688965061,2172.88560876051
-0.521791755473119,2172.89560876051
-0.501431454885457,2172.90560876051
-0.44316562110187,2172.91560876051
-0.330477313367705,2172.92560876051
-0.161378811669357,2172.93560876051
0.0448526961034699,2172.94560876051
0.254029600988014,2172.95560876051
0.434419945553535,2172.96560876051
0.56637346872192,2172.97560876051
0.64616001402714,2172.98560876051
0.681902504958839,2172.99560876051
0.686201213420894,2173.00560876051
0.671222234587496,2173.01560876051
0.646455811340828,2173.02560876051
0.617442610460913,2173.03560876051
0.586778152236549,2173.04560876051
0.556458464406898,2173.05560876051
0.526672454241521,2173.06560876051
0.497512819128543,2173.07560876051
0.468933981365182,2173.08560876051
0.441161951896981,2173.09560876051
0.414741413536292,2173.10560876051
0.38945450969821,2173.11560876051
0.365853056277152,2173.12560876051
0.343511583639453,2173.13560876051
0.3224074690031,2173.14560876051
0.301923662258215,2173.15560876051
0.282121878996698,2173.16560876051
0.261787285667992,2173.17560876051
0.240367364753798,2173.18560876051
0.216365225144726,2173.19560876051
0.189175379474807,2173.20560876051
0.159336715607083,2173.21560876051
0.127918666341259,2173.22560876051
0.0972122447029713,2173.23560876051
0.0697621998211573,2173.24560876051
0.0478223845741547,2173.25560876051
0.0326746770937315,2173.26560876051
0.0260044793091807,2173.27560876051
0.0283016181376626,2173.28560876051
0.0389731427393941,2173.29560876051
0.0559309108797357,2173.30560876051
0.0769168415966569,2173.31560876051
0.0982695941906058,2173.32560876051
0.116864846940133,2173.33560876051
0.130201060874125,2173.34560876051
0.135502740801147,2173.35560876051
0.133054777585821,2173.36560876051
0.124021858008927,2173.37560876051
0.109436020873778,2173.38560876051
0.0910525827408228,2173.39560876051
0.0707307118456907,2173.40560876051
0.0495735983357645,2173.41560876051
0.028415275384596,2173.42560876051
0.00759396436741511,2173.43560876051
-0.0127068658043549,2173.44560876051
-0.0334226662377622,2173.45560876051
-0.0539735942937261,2173.46560876051
-0.0744751660344807,2173.47560876051
-0.0943702882948355,2173.48560876051
-0.113210312924923,2173.49560876051
-0.131282385725613,2173.50560876051
-0.148755567181212,2173.51560876051
-0.165255044455966,2173.52560876051
-0.182103376579436,2173.53560876051
-0.199151631045365,2173.54560876051
-0.216001672730732,2173.55560876051
-0.23278754901403,2173.56560876051
-0.248905143480136,2173.57560876051
-0.264600712298339,2173.58560876051
-0.279522097815959,2173.59560876051
-0.294215013999526,2173.60560876051
-0.309193456104945,2173.61560876051
-0.324569502862031,2173.62560876051
-0.339888153501051,2173.63560876051
-0.354873843970245,2173.64560876051
-0.369971879802804,2173.65560876051
-0.384505706395034,2173.66560876051
-0.39845258071027,2173.67560876051
-0.412205840765257,2173.68560876051
-0.425471189800519,2173.69560876051
-0.438079743646929,2173.70560876051
-0.450642967769274,2173.71560876051
-0.462502477078212,2173.72560876051
-0.474425744371832,2173.73560876051
-0.485303960810983,2173.74560876051
-0.495236787373142,2173.75560876051
-0.504972273141095,2173.76560876051
-0.513811160279818,2173.77560876051
-0.522667503433568,2173.78560876051
-0.531915567790262,2173.79560876051
-0.54152621311296,2173.80560876051
-0.551816922622309,2173.81560876051
-0.561526629132389,2173.82560876051
-0.571134046102446,2173.83560876051
-0.580152436391998,2173.84560876051
-0.586146692722454,2173.85560876051
-0.582346875543122,2173.86560876051
-0.554192348227729,2173.87560876051
-0.481897129914587,2173.88560876051
-0.350527714111802,2173.89560876051
-0.160268077122925,2173.90560876051
0.064132222558058,2173.91560876051
0.285819068052256,2173.92560876051
0.472545879778513,2173.93560876051
0.605154085296995,2173.94560876051
0.682556009406626,2173.95560876051
0.714737109593471,2173.96560876051
0.716221540382186,2173.97560876051
0.699992853769167,2173.98560876051
0.675263150892648,2173.99560876051
0.647369796969272,2174.00560876051
0.618537414791104,2174.01560876051
0.588950394514868,2174.02560876051
0.55975149479008,2174.03560876051
0.530512469904588,2174.04560876051
0.501738908946657,2174.05560876051
0.474636834185471,2174.06560876051
0.449319999345704,2174.07560876051
0.426593703244728,2174.08560876051
0.406321994829393,2174.09560876051
0.387044273602429,2174.10560876051
0.368894101660412,2174.11560876051
0.352102429223511,2174.12560876051
0.335692035073014,2174.13560876051
0.318990211879499,2174.14560876051
0.301271154980717,2174.15560876051
0.281333773490093,2174.16560876051
0.258417477919581,2174.17560876051
0.232414999921351,2174.18560876051
0.203758126706835,2174.19560876051
0.174278577019926,2174.20560876051
0.146135609551909,2174.21560876051
0.12150795380234,2174.22560876051
0.10260893637958,2174.23560876051
0.0905499513575069,2174.24560876051
0.0861273826629275,2174.25560876051
0.0891655276373279,2174.26560876051
0.0987725114760123,2174.27560876051
0.113453754788768,2174.28560876051
0.130031939459062,2174.29560876051
0.146115920186921,2174.30560876051
0.159292020400827,2174.31560876051
0.167177813557743,2174.32560876051
0.168446956528678,2174.33560876051
0.163606039970019,2174.34560876051
0.153462338925461,2174.35560876051
0.139424990173169,2174.36560876051
0.122491891157878,2174.37560876051
0.104029348288718,2174.38560876051
0.0841166901499463,2174.39560876051
0.0634563504862934,2174.40560876051
0.0423486286534896,2174.41560876051
0.0212383943597865,2174.42560876051
0.000835310773116114,2174.43560876051
-0.0197151308384903,2174.44560876051
-0.0398557427622307,2174.45560876051
-0.0598572623311527,2174.46560876051
-0.0793783838679435,2174.47560876051
-0.0983368898625428,2174.48560876051
-0.116578327133039,2174.49560876051
-0.134623842838093,2174.50560876051
-0.151750815860987,2174.51560876051
-0.168828687764636,2174.52560876051
-0.185922242695892,2174.53560876051
-0.202478330829897,2174.54560876051
-0.219095659480958,2174.55560876051
-0.235886390805441,2174.56560876051
-0.252184814151633,2174.57560876051
-0.268715576869585,2174.58560876051
-0.284854725211421,2174.59560876051
-0.30082988595826,2174.60560876051
-0.316269874072559,2174.61560876051
-0.331286076769617,2174.62560876051
-0.345589344144676,2174.63560876051
-0.359632123722099,2174.64560876051
-0.373312174664004,2174.65560876051
-0.386596740027563,2174.66560876051
-0.399427472209819,2174.67560876051
-0.411260095878464,2174.68560876051
-0.422902362283041,2174.69560876051
-0.434399698324494,2174.70560876051
-0.446158757324044,2174.71560876051
-0.458141255176899,2174.72560876051
-0.469633142753892,2174.73560876051
-0.4815266162428,2174.74560876051
-0.493531204876325,2174.75560876051
-0.504361513101649,2174.76560876051
-0.515308382071808,2174.77560876051
-0.52567288028092,2174.78560876051
-0.535335936370943,2174.79560876051
-0.544549061493096,2174.80560876051
-0.553901545241226,2174.81560876051
-0.562716421419444,2174.82560876051
-0.571278282136657,2174.83560876051
-0.580082440075905,2174.84560876051
-0.588636247024862,2174.85560876051
-0.597394246746853,2174.86560876051
-0.605725149490703,2174.87560876051
-0.614151606568887,2174.88560876051
-0.622683139962535,2174.89560876051
-0.631714120564393,2174.90560876051
-0.641466740323308,2174.91560876051
-0.651261645142205,2174.92560876051
-0.659761010064818,2174.93560876051
-0.66220291142515,2174.94560876051
-0.648311131309559,2174.95560876051
-0.599224145784917,2174.96560876051
-0.497951868739402,2174.97560876051
-0.335079472661622,2174.98560876051
-0.119807656120705,2174.99560876051
0.116514287884553,2175.00560876051
0.33633098027195,2175.01560876051
0.50994544954214,2175.02560876051
0.624565236718623,2175.03560876051
0.684696847494365,2175.04560876051
0.702840715566138,2175.05560876051
0.694200355685776,2175.06560876051
0.671147926616995,2175.07560876051
0.641280652088801,2175.08560876051
0.60958308559553,2175.09560876051
0.577575911665905,2175.10560876051
0.545657677856548,2175.11560876051
0.513227991931767,2175.12560876051
0.48059447926233,2175.13560876051
0.44826905331484,2175.14560876051
0.416590716699006,2175.15560876051
0.386360196362667,2175.16560876051
0.358210664266319,2175.17560876051
0.332238871083875,2175.18560876051
0.308114796191901,2175.19560876051
0.284910374206071,2175.20560876051
0.263100607160003,2175.21560876051
0.241301082666156,2175.22560876051
0.218867106628477,2175.23560876051
0.195294581925687,2175.24560876051
0.168943860018696,2175.25560876051
0.139936610827541,2175.26560876051
0.108315334999002,2175.27560876051
0.0758252396519515,2175.28560876051
0.0440945285348977,2175.29560876051
0.0161136680035343,2175.30560876051
-0.005710401954824,2175.31560876051
-0.0199249663318469,2175.32560876051
-0.0246566191167466,2175.33560876051
-0.0203844584344111,2175.34560876051
-0.00752619071870216,2175.35560876051
0.0124671051312786,2175.36560876051
0.0366278861592414,2175.37560876051
0.0618412363586734,2175.38560876051
0.0839068047533969,2175.39560876051
0.100484922549653,2175.40560876051
0.109306800981483,2175.41560876051
0.11000107173326,2175.42560876051
0.103327668138121,2175.43560876051
0.0910561650225915,2175.44560876051
0.074421571155666,2175.45560876051
0.055230185277048,2175.46560876051
0.0344367855249736,2175.47560876051
0.0139638465115102,2175.48560876051
-0.00684303740728096,2175.49560876051
-0.0275957862512776,2175.50560876051
-0.0483252378420284,2175.51560876051
-0.0677651332275186,2175.52560876051
-0.0872752999681196,2175.53560876051
-0.105964016400122,2175.54560876051
-0.124077172783074,2175.55560876051
-0.142080391631704,2175.56560876051
-0.159769703267111,2175.57560876051
-0.177748729747944,2175.58560876051
-0.195403409453341,2175.59560876051
-0.212935707332699,2175.60560876051
-0.229994476862647,2175.61560876051
-0.246895211657698,2175.62560876051
-0.263501440078186,2175.63560876051
-0.279453334222374,2175.64560876051
-0.295167200817275,2175.65560876051
-0.310181144196269,2175.66560876051
-0.325181603605339,2175.67560876051
-0.339944886421415,2175.68560876051
-0.355315086761776,2175.69560876051
-0.370168544260111,2175.70560876051
-0.384109503915186,2175.71560876051
-0.397809470820088,2175.72560876051
-0.410389531157615,2175.73560876051
-0.422154723500385,2175.74560876051
-0.434029900117219,2175.75560876051
-0.445553348596327,2175.76560876051
-0.457056035321241,2175.77560876051
-0.468868270346414,2175.78560876051
-0.480739627404048,2175.79560876051
-0.492935381348876,2175.80560876051
-0.504550254278207,2175.81560876051
-0.515472827620737,2175.82560876051
-0.525313850622043,2175.83560876051
-0.534099892779874,2175.84560876051
-0.542269277046662,2175.85560876051
-0.550332493548279,2175.86560876051
-0.558644256031788,2175.87560876051
-0.567458280379295,2175.88560876051
-0.576647422473633,2175.89560876051
-0.585880844984367,2175.90560876051
-0.595297109444978,2175.91560876051
-0.604425867409955,2175.92560876051
-0.612546718543877,2175.93560876051
-0.616584765603862,2175.94560876051
-0.60868795547356,2175.95560876051
-0.573456584117933,2175.96560876051
-0.494465164903443,2175.97560876051
-0.360748894677086,2175.98560876051
-0.173833270783223,2175.99560876051
0.0449027668325071,2176.00560876051
0.261679239537754,2176.01560876051
0.444165899671411,2176.02560876051
0.574038388240201,2176.03560876051
0.649483183219229,2176.04560876051
0.679715186899095,2176.05560876051
0.678930695407273,2176.06560876051
0.659953210272679,2176.07560876051
0.632704581025329,2176.08560876051
0.601585144523284,2176.09560876051
0.568861429078141,2176.10560876051
0.534981947458267,2176.11560876051
0.500151126212846,2176.12560876051
0.464514042048014,2176.13560876051
0.428598576582869,2176.14560876051
0.393336544038309,2176.15560876051
0.359398973695905,2176.16560876051
0.326943123024235,2176.17560876051
0.296464647492481,2176.18560876051
0.267862994112558,2176.19560876051
0.241197280944893,2176.20560876051
0.215532481373535,2176.21560876051
0.190580527892547,2176.22560876051
0.165332443710319,2176.23560876051
0.138855353142595,2176.24560876051
0.109964900962128,2176.25560876051
0.0782511408862534,2176.26560876051
0.044396203237938,2176.27560876051
0.0109329365013519,2176.28560876051
-0.0194721865246555,2176.29560876051
-0.0439800254699988,2176.30560876051
-0.060672891993057,2176.31560876051
-0.06738641342963,2176.32560876051
-0.0638837043366571,2176.33560876051
-0.0503236076272457,2176.34560876051
-0.0285291302861856,2176.35560876051
-0.00132809039515823,2176.36560876051
0.0273558322891433,2176.37560876051
0.0547718824802609,2176.38560876051
0.0774603456558712,2176.39560876051
0.0917948290224035,2176.40560876051
0.0980949079679884,2176.41560876051
0.0955614326280924,2176.42560876051
0.0856091537649729,2176.43560876051
0.0705466078683891,2176.44560876051
0.0515121890433383,2176.45560876051
0.0312772669851407,2176.46560876051
0.010685383003441,2176.47560876051
-0.00974216278640688,2176.48560876051
-0.0299273146879371,2176.49560876051
-0.0496162670473822,2176.50560876051
-0.0690078933008631,2176.51560876051
-0.0882206532385082,2176.52560876051
-0.106979926041757,2176.53560876051
-0.125185672208664,2176.54560876051
-0.143386194433576,2176.55560876051
-0.160476682065789,2176.56560876051
-0.177533284716882,2176.57560876051
-0.194469505083442,2176.58560876051
-0.210474054524578,2176.59560876051
-0.226798709926826,2176.60560876051
-0.243026993371472,2176.61560876051
-0.258869430330077,2176.62560876051
-0.274596763525804,2176.63560876051
-0.289566218559791,2176.64560876051
-0.304089303498779,2176.65560876051
-0.318893241826571,2176.66560876051
-0.333321548050213,2176.67560876051
-0.348156439640322,2176.68560876051
-0.36238076577264,2176.69560876051
-0.376735939842652,2176.70560876051
-0.39097757361384,2176.71560876051
-0.404607824736819,2176.72560876051
-0.417819138138392,2176.73560876051
-0.430934006404175,2176.74560876051
-0.442799051234851,2176.75560876051
-0.454042665584992,2176.76560876051
-0.464462958779624,2176.77560876051
-0.474755602872952,2176.78560876051
-0.484415401222242,2176.79560876051
-0.494635913062485,2176.80560876051
-0.504718137677271,2176.81560876051
-0.514714331362931,2176.82560876051
-0.525151798735009,2176.83560876051
-0.535975891033903,2176.84560876051
-0.54694718490473,2176.85560876051
-0.558067346433509,2176.86560876051
-0.568202000371109,2176.87560876051
-0.574727320408078,2176.88560876051
-0.571680184618208,2176.89560876051
-0.54381702588154,2176.90560876051
-0.473707144334766,2176.91560876051
-0.347652246623879,2176.92560876051
-0.164996016275449,2176.93560876051
0.0532162929196288,2176.94560876051
0.273002048600235,2176.95560876051
0.461414088953477,2176.96560876051
0.598440626766841,2176.97560876051
0.681196251574772,2176.98560876051
0.7180787362847,2176.99560876051
0.723708609928281,2177.00560876051
0.710073382269981,2177.01560876051
0.68750205742659,2177.02560876051
0.660841461520844,2177.03560876051
0.632940606341318,2177.04560876051
0.604932970822704,2177.05560876051
0.576823397928969,2177.06560876051
0.548785747051285,2177.07560876051
0.521401000830883,2177.08560876051
0.494704451523013,2177.09560876051
0.469501261210774,2177.10560876051
0.445816634196884,2177.11560876051
0.4233333497113,2177.12560876051
0.402865959274751,2177.13560876051
0.384002142091546,2177.14560876051
0.366320823239201,2177.15560876051
0.349604503558479,2177.16560876051
0.333228015925052,2177.17560876051
0.315824601834114,2177.18560876051
0.296502379060484,2177.19560876051
0.274219579256488,2177.20560876051
0.248466120926072,2177.21560876051
0.219846252410596,2177.22560876051
0.1899334774633,2177.23560876051
0.161772907790643,2177.24560876051
0.137934720213377,2177.25560876051
0.120319411816278,2177.26560876051
0.110870766761315,2177.27560876051
0.10970359495797,2177.28560876051
0.115968641249614,2177.29560876051
0.128534370726915,2177.30560876051
0.145307100924781,2177.31560876051
0.163628407199299,2177.32560876051
0.180182205682962,2177.33560876051
0.192632436739449,2177.34560876051
0.200184770878391,2177.35560876051
0.201672822666631,2177.36560876051
0.197040132279648,2177.37560876051
0.186877998305052,2177.38560876051
0.172234434545421,2177.39560876051
0.154053333679611,2177.40560876051
0.133924790975405,2177.41560876051
0.113181557151895,2177.42560876051
0.0915886234318471,2177.43560876051
0.0704014316835572,2177.44560876051
0.0491990431803617,2177.45560876051
0.0283056922485396,2177.46560876051
0.00854460342952818,2177.47560876051
-0.0112034582954819,2177.48560876051
-0.0301330546494788,2177.49560876051
-0.0480727600039156,2177.50560876051
-0.0658411151202775,2177.51560876051
-0.0836266380799823,2177.52560876051
-0.101539470800898,2177.53560876051
-0.118657885935586,2177.54560876051
-0.136062546166244,2177.55560876051
-0.153367533062626,2177.56560876051
-0.169871842484127,2177.57560876051
-0.186141424714813,2177.58560876051
-0.201951333895585,2177.59560876051
-0.217741069204407,2177.60560876051
-0.23289846467439,2177.61560876051
-0.248575471951998,2177.62560876051
-0.263896372075349,2177.63560876051
-0.279643720277059,2177.64560876051
-0.295532189615788,2177.65560876051
-0.310735002735515,2177.66560876051
-0.325481950820257,2177.67560876051
-0.339677676790005,2177.68560876051
-0.353083348497064,2177.69560876051
-0.366411781487966,2177.70560876051
-0.379182655691479,2177.71560876051
-0.391635855145775,2177.72560876051
-0.403751182699468,2177.73560876051
-0.414758162658227,2177.74560876051
-0.425576700932647,2177.75560876051
-0.436330179117706,2177.76560876051
-0.447458017047326,2177.77560876051
-0.458409556979774,2177.78560876051
-0.468642106915943,2177.79560876051
-0.478432361728478,2177.80560876051
-0.487445274192522,2177.81560876051
-0.496397159101859,2177.82560876051
-0.504437178030365,2177.83560876051
-0.512768493094494,2177.84560876051
-0.520937774042597,2177.85560876051
-0.529335303489756,2177.86560876051
-0.538492306411472,2177.87560876051
-0.547820092593348,2177.88560876051
-0.55769874437784,2177.89560876051
-0.566814846881642,2177.90560876051
-0.572285643519318,2177.91560876051
-0.567016303407575,2177.92560876051
-0.536861244925057,2177.93560876051
-0.464201704730439,2177.94560876051
-0.335989588735601,2177.95560876051
-0.152381657124432,2177.96560876051
0.067911100092902,2177.97560876051
0.289597391889429,2177.98560876051
0.480280235935015,2177.99560876051
0.619190639754222,2178.00560876051
0.702647156160003,2178.01560876051
0.739257135533792,2178.02560876051
0.743307069697809,2178.03560876051
0.727767333067337,2178.04560876051
0.702398155691757,2178.05560876051
0.672779135408229,2178.06560876051
0.641282013626638,2178.07560876051
0.609581899797842,2178.08560876051
0.57773663800911,2178.09560876051
0.546138089597919,2178.10560876051
0.514190032188224,2178.11560876051
0.483224088569133,2178.12560876051
0.453337275377644,2178.13560876051
0.425674509719683,2178.14560876051
0.400921435267868,2178.15560876051
0.377904891392131,2178.16560876051
0.357246056188909,2178.17560876051
0.338498443350224,2178.18560876051
0.320846054034883,2178.19560876051
0.303515514154353,2178.20560876051
0.285214344639292,2178.21560876051
0.265153656881092,2178.22560876051
0.242136977663361,2178.23560876051
0.216090570635945,2178.24560876051
0.187472033851104,2178.25560876051
0.158338313282777,2178.26560876051
0.130474660494524,2178.27560876051
0.107123072210061,2178.28560876051
0.0895666707136917,2178.29560876051
0.0797420021782629,2178.30560876051
0.0788822244902597,2178.31560876051
0.0851166198708758,2178.32560876051
0.0989118024329979,2178.33560876051
0.116817463186305,2178.34560876051
0.136078388457296,2178.35560876051
0.153311980214192,2178.36560876051
0.166268406426379,2178.37560876051
0.17342015395742,2178.38560876051
0.174392739804221,2178.39560876051
0.168966598030014,2178.40560876051
0.158079291374948,2178.41560876051
0.143016809787482,2178.42560876051
0.124831612302098,2178.43560876051
0.104791208354524,2178.44560876051
0.0838075829783025,2178.45560876051
0.0622308013327832,2178.46560876051
0.0399633511762328,2178.47560876051
0.0174236395070318,2178.48560876051
-0.00499667299572049,2178.49560876051
-0.0273084476801214,2178.50560876051
-0.0489489843359187,2178.51560876051
-0.0696497503925739,2178.52560876051
-0.0897515495412719,2178.53560876051
-0.108977214365153,2178.54560876051
-0.127519597390272,2178.55560876051
-0.145440227021735,2178.56560876051
-0.162705098986117,2178.57560876051
-0.179721591586406,2178.58560876051
-0.196658624018089,2178.59560876051
-0.213294985702602,2178.60560876051
-0.229567484976567,2178.61560876051
-0.245781941376261,2178.62560876051
-0.261994579365474,2178.63560876051
-0.277948582614102,2178.64560876051
-0.293262276132056,2178.65560876051
-0.307803513417957,2178.66560876051
-0.322597187134539,2178.67560876051
-0.337076547602757,2178.68560876051
-0.351368633030712,2178.69560876051
-0.365139358146092,2178.70560876051
-0.378222231505527,2178.71560876051
-0.391174953383793,2178.72560876051
-0.403722793134886,2178.73560876051
-0.415835703445264,2178.74560876051
-0.427695413475447,2178.75560876051
-0.438845145775412,2178.76560876051
-0.449536340101919,2178.77560876051
-0.459785663937844,2178.78560876051
-0.469718548723543,2178.79560876051
-0.479381421984813,2178.80560876051
-0.48922550303327,2178.81560876051
-0.498813091757552,2178.82560876051
-0.508133500367491,2178.83560876051
-0.517299236589393,2178.84560876051
-0.525359998518279,2178.85560876051
-0.532889468282754,2178.86560876051
-0.540116036526466,2178.87560876051
-0.547420135563509,2178.88560876051
-0.555140636360048,2178.89560876051
-0.563193907767787,2178.90560876051
-0.571165540240658,2178.91560876051
-0.579072192976893,2178.92560876051
-0.587945969347002,2178.93560876051
-0.596570832473345,2178.94560876051
-0.604767422769886,2178.95560876051
-0.611389697755596,2178.96560876051
-0.610194496204412,2178.97560876051
-0.590398047524403,2178.98560876051
-0.535076532585633,2178.99560876051
-0.42948139309912,2179.00560876051
-0.268082458485906,2179.01560876051
-0.0616576129831164,2179.02560876051
0.161851813878136,2179.03560876051
0.368674203531245,2179.04560876051
0.531271158612311,2179.05560876051
0.637707192988497,2179.06560876051
0.69201829934849,2179.07560876051
0.706264435168009,2179.08560876051
0.693929434164003,2179.09560876051
0.667434594825682,2179.10560876051
0.634336624169173,2179.11560876051
0.598726861885005,2179.12560876051
0.562027670969185,2179.13560876051
0.524307172736169,2179.14560876051
0.486027096204004,2179.15560876051
0.447440128788185,2179.16560876051
0.409222519522134,2179.17560876051
0.372355195022314,2179.18560876051
0.337492307795095,2179.19560876051
0.305075214275442,2179.20560876051
0.275360803793141,2179.21560876051
0.248348306434605,2179.22560876051
0.222957240407798,2179.23560876051
0.199242202862982,2179.24560876051
0.175548120842381,2179.25560876051
0.151251649198075,2179.26560876051
0.124758341435045,2179.27560876051
0.0958763746860635,2179.28560876051
0.0645527333908211,2179.29560876051
0.0324082885149767,2179.30560876051
0.0020017740013319,2179.31560876051
-0.0234959484087699,2179.32560876051
-0.0415609626862109,2179.33560876051
-0.0495765398952745,2179.34560876051
-0.0469208721190653,2179.35560876051
-0.0333395729763591,2179.36560876051
-0.0105421535885045,2179.37560876051
0.0181219439806559,2179.38560876051
0.0493734023836148,2179.39560876051
0.0785220376997315,2179.40560876051
0.102811636199234,2179.41560876051
0.119701454283714,2179.42560876051
0.127728585326341,2179.43560876051
0.127290252387928,2179.44560876051
0.119101754851064,2179.45560876051
0.105092385267229,2179.46560876051
0.0866836418996707,2179.47560876051
0.065789150805473,2179.48560876051
0.0440717205275454,2179.49560876051
0.0216628956699777,2179.50560876051
-0.00027199336037912,2179.51560876051
-0.0216911255580961,2179.52560876051
-0.0419952529465383,2179.53560876051
-0.0620928665651212,2179.54560876051
-0.0810794963353517,2179.55560876051
-0.0996644794335687,2179.56560876051
-0.117548648647248,2179.57560876051
-0.134603429848248,2179.58560876051
-0.152550963694858,2179.59560876051
-0.169924009540139,2179.60560876051
-0.18746566251193,2179.61560876051
-0.205196985850932,2179.62560876051
-0.222661351032168,2179.63560876051
-0.240180885952908,2179.64560876051
-0.256464475503915,2179.65560876051
-0.272707336251259,2179.66560876051
-0.287865121241432,2179.67560876051
-0.302703577617739,2179.68560876051
-0.317097710017862,2179.69560876051
-0.331390979438764,2179.70560876051
-0.346113859384549,2179.71560876051
-0.360064855270506,2179.72560876051
-0.373773480443929,2179.73560876051
-0.387029723737611,2179.74560876051
-0.400523369070049,2179.75560876051
-0.413216949425317,2179.76560876051
-0.42508126811807,2179.77560876051
-0.436748008750329,2179.78560876051
-0.447451960679216,2179.79560876051
-0.457085710954378,2179.80560876051
-0.466521356569049,2179.81560876051
-0.475666461759198,2179.82560876051
-0.484538782955044,2179.83560876051
-0.493400366241003,2179.84560876051
-0.501974231119974,2179.85560876051
-0.510429407938853,2179.86560876051
-0.518440809651899,2179.87560876051
-0.526703125731467,2179.88560876051
-0.535418725556449,2179.89560876051
-0.544573853067823,2179.90560876051
-0.553537833266217,2179.91560876051
-0.562443175916915,2179.92560876051
-0.569144466253079,2179.93560876051
-0.568359638658561,2179.94560876051
-0.548314106189263,2179.95560876051
-0.49357479976484,2179.96560876051
-0.388528142141321,2179.97560876051
-0.227321817127567,2179.98560876051
-0.0222571472955279,2179.99560876051
0.199647392559855,2180.00560876051
0.40394248564829,2180.01560876051
0.564292341282707,2180.02560876051
0.669666259881756,2180.03560876051
0.724613027257242,2180.04560876051
0.740454878633756,2180.05560876051
0.731024553603161,2180.06560876051
0.708165217621586,2180.07560876051
0.67884062084643,2180.08560876051
0.647460170527452,2180.09560876051
0.614964717848288,2180.10560876051
0.582026112791437,2180.11560876051
0.549100815597463,2180.12560876051
0.515676730098714,2180.13560876051
0.483080188297855,2180.14560876051
0.451976663683581,2180.15560876051
0.423062389391425,2180.16560876051
0.396784191782099,2180.17560876051
0.372948604982733,2180.18560876051
0.352330151674193,2180.19560876051
0.333459486110316,2180.20560876051
0.316070375684622,2180.21560876051
0.29968707690242,2180.22560876051
0.283585257573683,2180.23560876051
0.26572777891802,2180.24560876051
0.2450905696744,2180.25560876051
0.221009226579623,2180.26560876051
0.193664850185578,2180.27560876051
0.165106805646249,2180.28560876051
0.137028484776769,2180.29560876051
0.112686808974954,2180.30560876051
0.0938477592305262,2180.31560876051
0.0825659927256697,2180.32560876051
0.0801631655688207,2180.33560876051
0.085609510656135,2180.34560876051
0.0976185058946266,2180.35560876051
0.114072693895644,2180.36560876051
0.132419823180302,2180.37560876051
0.14985497603557,2180.38560876051
0.164024677029832,2180.39560876051
0.173052587797678,2180.40560876051
0.176487118134493,2180.41560876051
0.17359841045628,2180.42560876051
0.165070191350282,2180.43560876051
0.151381179517161,2180.44560876051
0.134223494102728,2180.45560876051
0.113727117826724,2180.46560876051
0.0920733663478772,2180.47560876051
0.0694676497181896,2180.48560876051
0.0467540010578959,2180.49560876051
0.0243432882583433,2180.50560876051
0.00280879290608653,2180.51560876051
-0.0183438135382727,2180.52560876051
-0.0388693987513724,2180.53560876051
-0.0584783108181487,2180.54560876051
-0.078450450118549,2180.55560876051
-0.0980071008461845,2180.56560876051
-0.117199206128998,2180.57560876051
-0.13635874684163,2180.58560876051
-0.155078936277852,2180.59560876051
-0.173968800663586,2180.60560876051
-0.192760282807774,2180.61560876051
-0.211296566219175,2180.62560876051
-0.228863175787079,2180.63560876051
-0.246514867010798,2180.64560876051
-0.262820595462444,2180.65560876051
-0.279029164738616,2180.66560876051
-0.294248025415515,2180.67560876051
-0.309056306674703,2180.68560876051
-0.323647094897641,2180.69560876051
-0.338087722283381,2180.70560876051
-0.352241451947432,2180.71560876051
-0.366324561460085,2180.72560876051
-0.380127420534344,2180.73560876051
-0.39382749012943,2180.74560876051
-0.40667218141656,2180.75560876051
-0.419749409389475,2180.76560876051
-0.432092037655962,2180.77560876051
-0.443728894268011,2180.78560876051
-0.455146269029182,2180.79560876051
-0.465485344605727,2180.80560876051
-0.475330855485638,2180.81560876051
-0.484353074807637,2180.82560876051
-0.493317542976144,2180.83560876051
-0.502214942787655,2180.84560876051
-0.511213533469335,2180.85560876051
-0.520577557367467,2180.86560876051
-0.530374519425062,2180.87560876051
-0.540125799645025,2180.88560876051
-0.549642244248659,2180.89560876051
-0.558602128468384,2180.90560876051
-0.566726453857446,2180.91560876051
-0.574607705180435,2180.92560876051
-0.582113753118545,2180.93560876051
-0.5895370391307,2180.94560876051
-0.597457791219212,2180.95560876051
-0.605089570497946,2180.96560876051
-0.61313996553119,2180.97560876051
-0.62189837438969,2180.98560876051
-0.631277691897373,2180.99560876051
-0.641207041067037,2181.00560876051
-0.651668017905841,2181.01560876051
-0.660744393301828,2181.02560876051
-0.664892956560988,2181.03560876051
-0.653380266189433,2181.04560876051
-0.610852159002953,2181.05560876051
-0.521166970899345,2181.06560876051
-0.37470746271987,2181.07560876051
-0.176007558432076,2181.08560876051
0.0530707935121899,2181.09560876051
0.279121788514136,2181.10560876051
0.469187563188587,2181.11560876051
0.60490927518585,2181.12560876051
0.683849269649078,2181.13560876051
0.714582284809,2181.14560876051
0.713455518648162,2181.15560876051
0.693341097459671,2181.16560876051
0.664596166254026,2181.17560876051
0.633294729551855,2181.18560876051
0.600540517880188,2181.19560876051
0.568226955790509,2181.20560876051
0.534881738932764,2181.21560876051
0.500861176052615,2181.22560876051
0.466784912018785,2181.23560876051
0.433787155174825,2181.24560876051
0.402288435784878,2181.25560876051
0.372813872418245,2181.26560876051
0.345253017463415,2181.27560876051
0.31956323130033,2181.28560876051
0.295569826591355,2181.29560876051
0.273356610218709,2181.30560876051
0.252313325151022,2181.31560876051
0.231580683202674,2181.32560876051
0.21077030456879,2181.33560876051
0.188360566958945,2181.34560876051
0.16374838402728,2181.35560876051
0.136790917903581,2181.36560876051
0.108308571215465,2181.37560876051
0.0798561863593019,2181.38560876051
0.0536725269510345,2181.39560876051
0.0323295654131288,2181.40560876051
0.0176076704402532,2181.41560876051
0.0113576444918488,2181.42560876051
0.0132811135059805,2181.43560876051
0.0235343154387833,2181.44560876051
0.0408267621766364,2181.45560876051
0.0624150040808265,2181.46560876051
0.0855427632056207,2181.47560876051
0.106584848309545,2181.48560876051
0.123237663972514,2181.49560876051
0.133952574214385,2181.50560876051
0.136763007912863,2181.51560876051
0.133185443690461,2181.52560876051
0.123380671548357,2181.53560876051
0.109292872186946,2181.54560876051
0.0917845271468947,2181.55560876051
0.0719670962648967,2181.56560876051
0.0503304648815617,2181.57560876051
0.0280165884442366,2181.58560876051
0.00549137915692611,2181.59560876051
-0.0170158308362078,2181.60560876051
-0.0393888778051373,2181.61560876051
-0.060841214515935,2181.62560876051
-0.0821166084517473,2181.63560876051
-0.10287187101383,2181.64560876051
-0.123117208422571,2181.65560876051
-0.142166856016068,2181.66560876051
-0.161557748006639,2181.67560876051
-0.180350248877976,2181.68560876051
-0.199184572448541,2181.69560876051
-0.217808363705968,2181.70560876051
-0.236197146859893,2181.71560876051
-0.254464631921784,2181.72560876051
-0.271872623551218,2181.73560876051
-0.288757884487978,2181.74560876051
-0.305016425365836,2181.75560876051
-0.321122318199041,2181.76560876051
-0.337517167441587,2181.77560876051
-0.353835251616744,2181.78560876051
-0.369952818109605,2181.79560876051
-0.385831060766906,2181.80560876051
-0.401138008526684,2181.81560876051
-0.415566126541497,2181.82560876051
-0.429068906576075,2181.83560876051
-0.441607841577027,2181.84560876051
-0.454137271184847,2181.85560876051
-0.466159476811844,2181.86560876051
-0.477721249538551,2181.87560876051
-0.488814245772471,2181.88560876051
-0.499595332164848,2181.89560876051
-0.509552791759037,2181.90560876051
-0.518716622873872,2181.91560876051
-0.527175340773817,2181.92560876051
-0.534957099976793,2181.93560876051
-0.542774849837341,2181.94560876051
-0.551439719205546,2181.95560876051
-0.55972637988675,2181.96560876051
-0.568207941661381,2181.97560876051
-0.577345729434872,2181.98560876051
-0.586125229454704,2181.99560876051
-0.595200725487477,2182.00560876051
-0.604280329340127,2182.01560876051
-0.613497331240152,2182.02560876051
-0.621920535843192,2182.03560876051
-0.623943375419133,2182.04560876051
-0.609244154063956,2182.05560876051
-0.56321041563275,2182.06560876051
-0.47082291256736,2182.07560876051
-0.324966878795855,2182.08560876051
-0.131481748235946,2182.09560876051
0.086838960017926,2182.10560876051
0.299262129401511,2182.11560876051
0.475739961208983,2182.12560876051
0.5989160450685,2182.13560876051
0.667468154738702,2182.14560876051
0.690451083755152,2182.15560876051
0.682218319625267,2182.16560876051
0.65579071789593,2182.17560876051
0.620414558400747,2182.18560876051
0.581952356616295,2182.19560876051
0.5426783618291,2182.20560876051
0.503026610791612,2182.21560876051
0.46279587871685,2182.22560876051
0.422983722263877,2182.23560876051
0.384528270159662,2182.24560876051
0.347790830677392,2182.25560876051
0.313130568251655,2182.26560876051
0.281167893008608,2182.27560876051
0.25200494963412,2182.28560876051
0.224634290763077,2182.29560876051
0.199000787310964,2182.30560876051
0.175329656523872,2182.31560876051
0.151612040964725,2182.32560876051
0.12782097004479,2182.33560876051
0.102385736045162,2182.34560876051
0.0746117948397644,2182.35560876051
0.044405495046101,2182.36560876051
0.0127599989239271,2182.37560876051
-0.0174742706763536,2182.38560876051
-0.0443676437628513,2182.39560876051
-0.0646511868108372,2182.40560876051
-0.0761225531112179,2182.41560876051
-0.0777154552862524,2182.42560876051
-0.0688480428665357,2182.43560876051
-0.0507192940592705,2182.44560876051
-0.0258152812871424,2182.45560876051
0.00280761649115523,2182.46560876051
0.0309617722000854,2182.47560876051
0.0559132107845215,2182.48560876051
0.0738711406256153,2182.49560876051
0.0833030444738764,2182.50560876051
0.0847122010930689,2182.51560876051
0.0783557693057184,2182.52560876051
0.0658115104574578,2182.53560876051
0.0481405749866348,2182.54560876051
0.0274382746653833,2182.55560876051
0.00487424131910162,2182.56560876051
-0.0183287086275729,2182.57560876051
-0.0412763612442275,2182.58560876051
-0.0637145270389521,2182.59560876051
-0.085959899918802,2182.60560876051
-0.107442641329147,2182.61560876051
-0.128417206235155,2182.62560876051
-0.148425604207874,2182.63560876051
-0.167874105194477,2182.64560876051
-0.186450808388133,2182.65560876051
-0.204126613835841,2182.66560876051
-0.221451305567852,2182.67560876051
-0.238240164075963,2182.68560876051
-0.255082185651984,2182.69560876051
-0.272120436452658,2182.70560876051
-0.288916376119502,2182.71560876051
-0.30602349621527,2182.72560876051
-0.322035847963382,2182.73560876051
-0.338016600425595,2182.74560876051
-0.353656492721592,2182.75560876051
-0.369409714756188,2182.76560876051
-0.385391103254261,2182.77560876051
-0.400394108220434,2182.78560876051
-0.414828209025019,2182.79560876051
-0.428355353426654,2182.80560876051
-0.440868573302255,2182.81560876051
-0.453527595014685,2182.82560876051
-0.465800490867091,2182.83560876051
-0.478319665910246,2182.84560876051
-0.490431575902413,2182.85560876051
-0.502213382423928,2182.86560876051
-0.513783484872566,2182.87560876051
-0.524634064125923,2182.88560876051
-0.535284848190989,2182.89560876051
-0.545878477689017,2182.90560876051
-0.55614877244738,2182.91560876051
-0.565507896384551,2182.92560876051
-0.574480938877078,2182.93560876051
-0.582519979557833,2182.94560876051
-0.589854398859138,2182.95560876051
-0.597278278761047,2182.96560876051
-0.604679420603838,2182.97560876051
-0.612642401397844,2182.98560876051
-0.621024973593001,2182.99560876051
-0.630045710794647,2183.00560876051
-0.638785209020622,2183.01560876051
-0.645724707109182,2183.02560876051
-0.644463028602305,2183.03560876051
-0.624898117177822,2183.04560876051
-0.571107312627516,2183.05560876051
-0.467749612927257,2183.06560876051
-0.309155452071419,2183.07560876051
-0.103319743045821,2183.08560876051
0.124098585021373,2183.09560876051
0.339690919391385,2183.10560876051
0.513924622591967,2183.11560876051
0.632252492803344,2183.12560876051
0.696355590652409,2183.13560876051
0.716865131386053,2183.14560876051
0.709248446536343,2183.15560876051
0.686473495195171,2183.16560876051
0.656743157540887,2183.17560876051
0.625320271999233,2183.18560876051
0.59293247360586,2183.19560876051
0.559843677432584,2183.20560876051
0.526516771866552,2183.21560876051
0.493223688242816,2183.22560876051
0.460497232231903,2183.23560876051
0.429112246099533,2183.24560876051
0.400336768731881,2183.25560876051
0.374138343602616,2183.26560876051
0.351514564933096,2183.27560876051
0.331392836056938,2183.28560876051
0.314499196635799,2183.29560876051
0.29922841373827,2183.30560876051
0.285056623316181,2183.31560876051
0.270489841064463,2183.32560876051
0.255524095272342,2183.33560876051
0.238031331383971,2183.34560876051
0.217902929012586,2183.35560876051
0.194300938565932,2183.36560876051
0.168556137551244,2183.37560876051
0.143646464975179,2183.38560876051
0.121074844878428,2183.39560876051
0.104038995086774,2183.40560876051
0.0945388017137666,2183.41560876051
0.093605574645761,2183.42560876051
0.100761120750701,2183.43560876051
0.114460085805217,2183.44560876051
0.132126381567759,2183.45560876051
0.151330202312711,2183.46560876051
0.169632316063784,2183.47560876051
0.183805275491279,2183.48560876051
0.192874702669605,2183.49560876051
0.19533612932137,2183.50560876051
0.191500378120511,2183.51560876051
0.181958834658488,2183.52560876051
0.168135430382754,2183.53560876051
0.151132702904335,2183.54560876051
0.131842932518027,2183.55560876051
0.111049292989049,2183.56560876051
0.0892120595019683,2183.57560876051
0.0669700412536651,2183.58560876051
0.0445235133246441,2183.59560876051
0.0221613929226484,2183.60560876051
0.000407236082418906,2183.61560876051
-0.0209703963190343,2183.62560876051
-0.0419124210430559,2183.63560876051
-0.0619197879002968,2183.64560876051
-0.0813332242605611,2183.65560876051
-0.0999734473199623,2183.66560876051
-0.118046631479584,2183.67560876051
-0.136086329163092,2183.68560876051
-0.153781651597144,2183.69560876051
-0.171753220890343,2183.70560876051
-0.189502531925598,2183.71560876051
-0.207081740078952,2183.72560876051
-0.224457218839245,2183.73560876051
-0.241630352695807,2183.74560876051
-0.258359401640682,2183.75560876051
-0.275277007632716,2183.76560876051
-0.291777315921019,2183.77560876051
-0.308349097933811,2183.78560876051
-0.324085827553315,2183.79560876051
-0.339694342999572,2183.80560876051
-0.354843511773492,2183.81560876051
-0.3692365859007,2183.82560876051
-0.384154391668034,2183.83560876051
-0.399372275735094,2183.84560876051
-0.414030185884163,2183.85560876051
-0.427415109372278,2183.86560876051
-0.440259136742835,2183.87560876051
-0.452351842590169,2183.88560876051
-0.463670189934228,2183.89560876051
-0.474577235281241,2183.90560876051
-0.485810755585802,2183.91560876051
-0.496783783522712,2183.92560876051
-0.507947302010164,2183.93560876051
-0.518465906205278,2183.94560876051
-0.528614586130067,2183.95560876051
-0.538000729663106,2183.96560876051
-0.545696681300252,2183.97560876051
-0.552855449973448,2183.98560876051
-0.559406378776068,2183.99560876051
-0.566368282032611,2184.00560876051
-0.573798899947492,2184.01560876051
-0.581768028939177,2184.02560876051
-0.590092210529841,2184.03560876051
-0.598844048128303,2184.04560876051
-0.607708895679525,2184.05560876051
-0.616546297022318,2184.06560876051
-0.625273076524807,2184.07560876051
-0.631181632209691,2184.08560876051
-0.627445747184004,2184.09560876051
-0.602387764946675,2184.10560876051
-0.539080455590233,2184.11560876051
-0.425482077340104,2184.12560876051
-0.25912076495294,2184.13560876051
-0.0509895403130011,2184.14560876051
0.17223099247623,2184.15560876051
0.378593872544216,2184.16560876051
0.541618323801757,2184.17560876051
0.648742773103088,2184.18560876051
0.702317340003295,2184.19560876051
0.71470917565,2184.20560876051
0.700167934632717,2184.21560876051
0.671508099597027,2184.22560876051
0.637725388516936,2184.23560876051
0.602125046773869,2184.24560876051
0.567385811534429,2184.25560876051
0.532385926113677,2184.26560876051
0.496896904260718,2184.27560876051
0.461673571458426,2184.28560876051
0.427426410151382,2184.29560876051
0.39417580594298,2184.30560876051
0.362779296861451,2184.31560876051
0.33358069496707,2184.32560876051
0.306979287533014,2184.33560876051
0.283198982673074,2184.34560876051
0.261985565740715,2184.35560876051
0.242396965460604,2184.36560876051
0.224192240032103,2184.37560876051
0.206071180505974,2184.38560876051
0.186192080448549,2184.39560876051
0.16435221457737,2184.40560876051
0.139591581578832,2184.41560876051
0.112391044592255,2184.42560876051
0.0855724328509109,2184.43560876051
0.060897755756352,2184.44560876051
0.0411859552201941,2184.45560876051
0.0285026695520572,2184.46560876051
0.0239843336388244,2184.47560876051
0.029239802267232,2184.48560876051
0.0425672711668791,2184.49560876051
0.0625752588432871,2184.50560876051
0.0861534947205188,2184.51560876051
0.110061192257777,2184.52560876051
0.131321797251281,2184.53560876051
0.146488277366159,2184.54560876051
0.15501026640085,2184.55560876051
0.156515029831207,2184.56560876051
0.151452256017314,2184.57560876051
0.141021554819015,2184.58560876051
0.126019957946051,2184.59560876051
0.107826815169998,2184.60560876051
0.0876951915975471,2184.61560876051
0.0663657248330824,2184.62560876051
0.0440549016361266,2184.63560876051
0.021358509554966,2184.64560876051
-0.000606611995048987,2184.65560876051
-0.0221503653755239,2184.66560876051
-0.0430134335801211,2184.67560876051
-0.0635168428745347,2184.68560876051
-0.0829058757835775,2184.69560876051
-0.10197396533501,2184.70560876051
-0.120388377472038,2184.71560876051
-0.137925564351185,2184.72560876051
-0.154560382971298,2184.73560876051
-0.171015432734127,2184.74560876051
-0.186825270403737,2184.75560876051
-0.202286823150366,2184.76560876051
-0.217899758907009,2184.77560876051
-0.233121175390887,2184.78560876051
-0.248139721763973,2184.79560876051
-0.263116855232759,2184.80560876051
-0.278039036253792,2184.81560876051
-0.292213668213885,2184.82560876051
-0.306144869260879,2184.83560876051
-0.319680849052335,2184.84560876051
-0.332894111061042,2184.85560876051
-0.346133853847683,2184.86560876051
-0.358529402160523,2184.87560876051
-0.370733376990054,2184.88560876051
-0.382265736014838,2184.89560876051
-0.393624998188626,2184.90560876051
-0.403717880715493,2184.91560876051
-0.412593515893465,2184.92560876051
-0.420660772556599,2184.93560876051
-0.428522108139298,2184.94560876051
-0.435974558552821,2184.95560876051
-0.443338377886659,2184.96560876051
-0.451403575085624,2184.97560876051
-0.459869137502731,2184.98560876051
-0.4694829543851,2184.99560876051
-0.479559409473674,2185.00560876051
-0.490141039362215,2185.01560876051
-0.500400115821825,2185.02560876051
-0.507690034188452,2185.03560876051
-0.506075872591825,2185.04560876051
-0.483975432723585,2185.05560876051
-0.425575569103608,2185.06560876051
-0.319453398487121,2185.07560876051
-0.162905259663324,2185.08560876051
0.0321783151666747,2185.09560876051
0.240214348059355,2185.10560876051
0.430145185605022,2185.11560876051
0.57731909343205,2185.12560876051
0.672274129748442,2185.13560876051
0.717796132707298,2185.14560876051
0.725842778295633,2185.15560876051
0.709738721636115,2185.16560876051
0.681099645263452,2185.17560876051
0.647556769540207,2185.18560876051
0.613051717694218,2185.19560876051
0.578687129609672,2185.20560876051
0.544910044213681,2185.21560876051
0.511603100027625,2185.22560876051
0.4795767566559,2185.23560876051
0.449323616359317,2185.24560876051
0.421553995333522,2185.25560876051
0.396689971262634,2185.26560876051
0.373833024600015,2185.27560876051
0.353291375112391,2185.28560876051
0.334870133497703,2185.29560876051
0.31771816498029,2185.30560876051
0.301116687431841,2185.31560876051
0.284637778924016,2185.32560876051
0.267072227109025,2185.33560876051
0.246573275780629,2185.34560876051
0.222721808246797,2185.35560876051
0.195273483849071,2185.36560876051
0.166622505941648,2185.37560876051
0.139295516009639,2185.38560876051
0.116056882355181,2185.39560876051
0.100227964660968,2185.40560876051
0.0931193852158986,2185.41560876051
0.0954674901090438,2185.42560876051
0.106939881859466,2185.43560876051
0.124135398227531,2185.44560876051
0.145048149272405,2185.45560876051
0.166508695307911,2185.46560876051
0.185970350269512,2185.47560876051
0.20153361226524,2185.48560876051
0.210953949080236,2185.49560876051
0.213811246538317,2185.50560876051
0.209252352426641,2185.51560876051
0.198593016352173,2185.52560876051
0.182704028495639,2185.53560876051
0.162961524302012,2185.54560876051
0.141401236910765,2185.55560876051
0.118914574663559,2185.56560876051
0.0959321742295031,2185.57560876051
0.0736295650172698,2185.58560876051
0.0519396026576372,2185.59560876051
0.0308383590666128,2185.60560876051
0.00997025735736029,2185.61560876051
-0.0101168137538288,2185.62560876051
-0.0300472721538425,2185.63560876051
-0.0500078818536646,2185.64560876051
-0.0697548243717498,2185.65560876051
-0.0891691229651166,2185.66560876051
-0.108372206585962,2185.67560876051
-0.12617793715636,2185.68560876051
-0.142606223801831,2185.69560876051
-0.158329456627093,2185.70560876051
-0.173460387181187,2185.71560876051
-0.188359041972305,2185.72560876051
-0.202647761322398,2185.73560876051
-0.217004466175866,2185.74560876051
-0.231501884683256,2185.75560876051
-0.245645921455165,2185.76560876051
-0.260028004253124,2185.77560876051
-0.274548463468158,2185.78560876051
-0.289704299281184,2185.79560876051
-0.304684985117288,2185.80560876051
-0.320327723891561,2185.81560876051
-0.335920507686775,2185.82560876051
-0.35148958167229,2185.83560876051
-0.366367225388163,2185.84560876051
-0.380370446681691,2185.85560876051
-0.394654736513187,2185.86560876051
-0.408553743765575,2185.87560876051
-0.422140831935732,2185.88560876051
-0.435807660888191,2185.89560876051
-0.449704619679736,2185.90560876051
-0.463070337650358,2185.91560876051
-0.47594831623026,2185.92560876051
-0.487768059801044,2185.93560876051
-0.499193029302663,2185.94560876051
-0.509419985060748,2185.95560876051
-0.518481145274371,2185.96560876051
-0.527090108608116,2185.97560876051
-0.534570082867739,2185.98560876051
-0.541517496913223,2185.99560876051
-0.548418636929406,2186.00560876051
-0.554873186042555,2186.01560876051
-0.561066761587154,2186.02560876051
-0.567509934005363,2186.03560876051
-0.572741869211872,2186.04560876051
-0.575108226747202,2186.05560876051
-0.567552414365492,2186.06560876051
-0.537328116961942,2186.07560876051
-0.469207850583517,2186.08560876051
-0.350789596373923,2186.09560876051
-0.180397374084621,2186.10560876051
0.0276372441103783,2186.11560876051
0.246198124265856,2186.12560876051
0.443451216438672,2186.13560876051
0.594568199719669,2186.14560876051
0.690734790966762,2186.15560876051
0.737513454650093,2186.16560876051
0.746842142734322,2186.17560876051
0.732648862200685,2186.18560876051
0.706477035383383,2186.19560876051
0.675363639570809,2186.20560876051
0.643252287851148,2186.21560876051
0.610660013213657,2186.22560876051
0.577520221015226,2186.23560876051
0.544228510304814,2186.24560876051
0.511686613544937,2186.25560876051
0.479520697916358,2186.26560876051
0.44937215614616,2186.27560876051
0.422135408886545,2186.28560876051
0.397672507685288,2186.29560876051
0.376514440601467,2186.30560876051
0.357770510937716,2186.31560876051
0.34110451461527,2186.32560876051
0.325588000469983,2186.33560876051
0.310682547968831,2186.34560876051
0.295969320790146,2186.35560876051
0.279654006483892,2186.36560876051
0.260792731965872,2186.37560876051
0.238133823162902,2186.38560876051
0.212511411706492,2186.39560876051
0.185372016925496,2186.40560876051
0.15941223081101,2186.41560876051
0.137378295510725,2186.42560876051
0.121639868303296,2186.43560876051
0.114314084540473,2186.44560876051
0.115559905313306,2186.45560876051
0.124549377498702,2186.46560876051
0.139732280733734,2186.47560876051
0.158657827900768,2186.48560876051
0.177978126813399,2186.49560876051
0.195279916213192,2186.50560876051
0.208366258522553,2186.51560876051
0.215194887464328,2186.52560876051
0.214988066203263,2186.53560876051
0.208080915156829,2186.54560876051
0.195169579480038,2186.55560876051
0.177874710910409,2186.56560876051
0.157344912809119,2186.57560876051
0.134650386104685,2186.58560876051
0.11040065040466,2186.59560876051
0.0859534377129028,2186.60560876051
0.0614948393305071,2186.61560876051
0.0370966169022012,2186.62560876051
0.0131180900436043,2186.63560876051
-0.00992751246577418,2186.64560876051
-0.031680552501606,2186.65560876051
-0.0515130632390364,2186.66560876051
-0.0692549953155542,2186.67560876051
-0.0861645137102434,2186.68560876051
-0.102323358502367,2186.69560876051
-0.118930244170699,2186.70560876051
-0.135600011846733,2186.71560876051
-0.15183707956434,2186.72560876051
-0.167454283319563,2186.73560876051
-0.18309000889554,2186.74560876051
-0.198110288701574,2186.75560876051
-0.212999825181103,2186.76560876051
-0.227532353442066,2186.77560876051
-0.242446122318089,2186.78560876051
-0.257216612607082,2186.79560876051
-0.271501756479096,2186.80560876051
-0.284747755728903,2186.81560876051
-0.296766118520065,2186.82560876051
-0.307866242809326,2186.83560876051
-0.317727247950712,2186.84560876051
-0.327702071143891,2186.85560876051
-0.337180715948954,2186.86560876051
-0.346816854840196,2186.87560876051
-0.355912914139228,2186.88560876051
-0.364862471863038,2186.89560876051
-0.373437108788052,2186.90560876051
-0.382126357651621,2186.91560876051
-0.391442692788151,2186.92560876051
-0.401222041749621,2186.93560876051
-0.411353468540756,2186.94560876051
-0.422200404607894,2186.95560876051
-0.433389488493889,2186.96560876051
-0.444860380154479,2186.97560876051
-0.456414237046547,2186.98560876051
-0.465449004750535,2186.99560876051
-0.467340480215668,2187.00560876051
-0.452185302517856,2187.01560876051
-0.405590855732089,2187.02560876051
-0.314084724741464,2187.03560876051
-0.171614856568596,2187.04560876051
0.0123004809854875,2187.05560876051
0.215691108545633,2187.06560876051
0.407330599860268,2187.07560876051
0.561960368263262,2187.08560876051
0.666348946781808,2187.09560876051
0.72170398743596,2187.10560876051
0.737084447096099,2187.11560876051
0.725897224601311,2187.12560876051
0.70054588321095,2187.13560876051
0.668667231556485,2187.14560876051
0.634802094955059,2187.15560876051
0.601416298285238,2187.16560876051
0.568608752562641,2187.17560876051
0.537104973354491,2187.18560876051
0.506624550648519,2187.19560876051
0.477272837336157,2187.20560876051
0.44994684675907,2187.21560876051
0.425070377240392,2187.22560876051
0.402782153896057,2187.23560876051
0.382976140920506,2187.24560876051
0.365204496496581,2187.25560876051
0.349224441601338,2187.26560876051
0.333992504549118,2187.27560876051
0.318256566938842,2187.28560876051
0.301019792158791,2187.29560876051
0.281935470397217,2187.30560876051
0.259467426687522,2187.31560876051
0.234060488087805,2187.32560876051
0.206437593234983,2187.33560876051
0.179522713046775,2187.34560876051
0.156222782697147,2187.35560876051
0.139099841741803,2187.36560876051
0.129958643853162,2187.37560876051
0.129462159380007,2187.38560876051
0.137656676762938,2187.39560876051
0.15282825160213,2187.40560876051
0.172799393717686,2187.41560876051
0.193556319847687,2187.42560876051
0.212516645122968,2187.43560876051
0.227114775508465,2187.44560876051
0.23563853081884,2187.45560876051
0.237632044692529,2187.46560876051
0.232489966206612,2187.47560876051
0.220477806210452,2187.48560876051
0.203770933957832,2187.49560876051
0.182680472059246,2187.50560876051
0.158834208439718,2187.51560876051
0.134237140133703,2187.52560876051
0.10934426502999,2187.53560876051
0.0847670987456514,2187.54560876051
0.0598167100914685,2187.55560876051
0.0362113665143007,2187.56560876051
0.0135403285716582,2187.57560876051
-0.0085092338873548,2187.58560876051
-0.0303805763193892,2187.59560876051
-0.0519287930959314,2187.60560876051
-0.0716353636444136,2187.61560876051
-0.0904614096853093,2187.62560876051
-0.108221518014642,2187.63560876051
-0.12562758559045,2187.64560876051
-0.143029809087802,2187.65560876051
-0.159975681442194,2187.66560876051
-0.176793768170418,2187.67560876051
-0.192907752691312,2187.68560876051
-0.208749763477754,2187.69560876051
-0.224380584617953,2187.70560876051
-0.239427754836404,2187.71560876051
-0.254561876593529,2187.72560876051
-0.269672635811291,2187.73560876051
-0.284260606232976,2187.74560876051
-0.298932021631183,2187.75560876051
-0.313275056064811,2187.76560876051
-0.326679462157635,2187.77560876051
-0.339532753235233,2187.78560876051
-0.351330422488607,2187.79560876051
-0.362985539996392,2187.80560876051
-0.374201627766077,2187.81560876051
-0.38527157211928,2187.82560876051
-0.396484652535297,2187.83560876051
-0.407622051670875,2187.84560876051
-0.418519493011165,2187.85560876051
-0.428888809311932,2187.86560876051
-0.43850389909278,2187.87560876051
-0.447375324553895,2187.88560876051
-0.454888370198419,2187.89560876051
-0.462267716288173,2187.90560876051
-0.46878667701254,2187.91560876051
-0.475449378360107,2187.92560876051
-0.482995457092495,2187.93560876051
-0.491206529616111,2187.94560876051
-0.500010245165017,2187.95560876051
-0.509520844053542,2187.96560876051
-0.519248539607419,2187.97560876051
-0.528021495618092,2187.98560876051
-0.532135933384123,2187.99560876051
-0.522803701698186,2188.00560876051
-0.485527339590515,2188.01560876051
-0.404857917662968,2188.02560876051
-0.271545900390513,2188.03560876051
-0.0880953787183241,2188.04560876051
0.125072536165762,2188.05560876051
0.337690465308157,2188.06560876051
0.51787724632636,2188.07560876051
0.647207041028169,2188.08560876051
0.723012099146824,2188.09560876051
0.753455911381303,2188.10560876051
0.752811325647241,2188.11560876051
0.733647395429766,2188.12560876051
0.705875677599026,2188.13560876051
0.675023466805342,2188.14560876051
0.643260900426427,2188.15560876051
0.610868073275884,2188.16560876051
0.578667325915472,2188.17560876051
0.546588737273934,2188.18560876051
0.515754180685552,2188.19560876051
0.487901071218649,2188.20560876051
0.462813677426536,2188.21560876051
0.441210238911022,2188.22560876051
0.423398335176493,2188.23560876051
0.407902449614124,2188.24560876051
0.394968224627798,2188.25560876051
0.383023499439322,2188.26560876051
0.372153862825674,2188.27560876051
0.361698293587633,2188.28560876051
0.349615443425404,2188.29560876051
0.334574714197876,2188.30560876051
0.314990056604978,2188.31560876051
0.290719440799822,2188.32560876051
0.262163259197552,2188.33560876051
0.231588843620933,2188.34560876051
0.201581399490974,2188.35560876051
0.176202243627551,2188.36560876051
0.158013171937866,2188.37560876051
0.148145236921273,2188.38560876051
0.146447646088256,2188.39560876051
0.152028607114171,2188.40560876051
0.163068789949777,2188.41560876051
0.176897576501473,2188.42560876051
0.192088789848245,2188.43560876051
0.205256086346311,2188.44560876051
0.214982756371038,2188.45560876051
0.219851148538285,2188.46560876051
0.219067056041362,2188.47560876051
0.211833920328473,2188.48560876051
0.198427651967984,2188.49560876051
0.179681424170185,2188.50560876051
0.157493525683747,2188.51560876051
0.132483496595698,2188.52560876051
0.105804395722295,2188.53560876051
0.0791388945346262,2188.54560876051
0.0538860559050659,2188.55560876051
0.0301077089704819,2188.56560876051
0.00622462759218048,2188.57560876051
-0.017565889047069,2188.58560876051
-0.0414612419758668,2188.59560876051
-0.0654873925404027,2188.60560876051
-0.0895121804003524,2188.61560876051
-0.113231323852638,2188.62560876051
-0.135929825944406,2188.63560876051
-0.157488456945722,2188.64560876051
-0.17737078576289,2188.65560876051
-0.195926708858256,2188.66560876051
-0.21293499580669,2188.67560876051
-0.229305972896981,2188.68560876051
-0.244603609106338,2188.69560876051
-0.259471545231686,2188.70560876051
-0.273694705481719,2188.71560876051
-0.286840549116143,2188.72560876051
-0.299786354915383,2188.73560876051
-0.312035929868871,2188.74560876051
-0.323152596349262,2188.75560876051
-0.333596913329429,2188.76560876051
-0.342946636435857,2188.77560876051
-0.352313004012836,2188.78560876051
-0.361899327305065,2188.79560876051
-0.37174549610173,2188.80560876051
-0.382398559637813,2188.81560876051
-0.392784515863525,2188.82560876051
-0.401998049986059,2188.83560876051
-0.410448926547509,2188.84560876051
-0.417895438028128,2188.85560876051
-0.42455121525038,2188.86560876051
-0.43119071053745,2188.87560876051
-0.437640163019628,2188.88560876051
-0.443743813046631,2188.89560876051
-0.449974243998238,2188.90560876051
-0.455873137096922,2188.91560876051
-0.46159255609396,2188.92560876051
-0.467073706336347,2188.93560876051
-0.471909948009276,2188.94560876051
-0.475927558062304,2188.95560876051
-0.478546855895382,2188.96560876051
-0.479963143036641,2188.97560876051
-0.479764183626511,2188.98560876051
-0.479299472566461,2188.99560876051
-0.478763090024652,2189.00560876051
-0.478476023392134,2189.01560876051
-0.478282248899994,2189.02560876051
-0.479303278265974,2189.03560876051
-0.481951130914326,2189.04560876051
-0.486988171473807,2189.05560876051
-0.494622276393016,2189.06560876051
-0.502221878744822,2189.07560876051
-0.503632341846313,2189.08560876051
-0.487458394082253,2189.09560876051
-0.437414022312923,2189.10560876051
-0.338867579880788,2189.11560876051
-0.187139377447965,2189.12560876051
0.00872132482604075,2189.13560876051
0.223201128348271,2189.14560876051
0.42376769328638,2189.15560876051
0.582666565511561,2189.16560876051
0.688134158292823,2189.17560876051
0.741947279261056,2189.18560876051
0.755711966726709,2189.19560876051
0.743281066303921,2189.20560876051
0.716429562952022,2189.21560876051
0.68278082170461,2189.22560876051
0.645878983098799,2189.23560876051
0.607387555553862,2189.24560876051
0.568844563893204,2189.25560876051
0.529870128230533,2189.26560876051
0.491565674755971,2189.27560876051
0.454825954709171,2189.28560876051
0.420550601385768,2189.29560876051
0.389714444928951,2189.30560876051
0.362032633755573,2189.31560876051
0.338746449305076,2189.32560876051
0.318901487672303,2189.33560876051
0.301298109525523,2189.34560876051
0.285107758729691,2189.35560876051
0.269639835849454,2189.36560876051
0.253245287117176,2189.37560876051
0.234156458423473,2189.38560876051
0.211561856307371,2189.39560876051
0.185997864641672,2189.40560876051
0.158754440783765,2189.41560876051
0.131743505797339,2189.42560876051
0.109394609386539,2189.43560876051
0.0938431332255972,2189.44560876051
0.0876593664951751,2189.45560876051
0.0920123838770669,2189.46560876051
0.10502430555126,2189.47560876051
0.125159196526023,2189.48560876051
0.149838359682339,2189.49560876051
0.174929269215734,2189.50560876051
0.197717028714777,2189.51560876051
0.215605850846005,2189.52560876051
0.226414111717271,2189.53560876051
0.230221272287792,2189.54560876051
0.225762961144123,2189.55560876051
0.214830306933844,2189.56560876051
0.197941649851152,2189.57560876051
0.176645873925488,2189.58560876051
0.153175850166788,2189.59560876051
0.128938413553886,2189.60560876051
0.105546505283182,2189.61560876051
0.0831729685608996,2189.62560876051
0.0618251218114634,2189.63560876051
0.0410560651249956,2189.64560876051
0.0213951026702686,2189.65560876051
0.00187877419937459,2189.66560876051
-0.0179405110507818,2189.67560876051
-0.0375058136895662,2189.68560876051
-0.0572321525473111,2189.69560876051
-0.0759082929584417,2189.70560876051
-0.0941195980513517,2189.71560876051
-0.112018832311192,2189.72560876051
-0.129192320761014,2189.73560876051
-0.147007184360821,2189.74560876051
-0.164932330096538,2189.75560876051
-0.181817219465134,2189.76560876051
-0.197510908533333,2189.77560876051
-0.212376397886434,2189.78560876051
-0.22690791504227,2189.79560876051
-0.2417061206344,2189.80560876051
-0.256190836594032,2189.81560876051
-0.270329275043632,2189.82560876051
-0.284598331330801,2189.83560876051
-0.298724951254135,2189.84560876051
-0.31212456020899,2189.85560876051
-0.325237553775374,2189.86560876051
-0.338176049446611,2189.87560876051
-0.350308149924736,2189.88560876051
-0.362323431092376,2189.89560876051
-0.374283536588242,2189.90560876051
-0.386494357886083,2189.91560876051
-0.39775692512573,2189.92560876051
-0.407688617665844,2189.93560876051
-0.416814627361483,2189.94560876051
-0.425721187419334,2189.95560876051
-0.434411764866637,2189.96560876051
-0.4430303242537,2189.97560876051
-0.451827062810984,2189.98560876051
-0.460619118827531,2189.99560876051
-0.468689652545804,2190.00560876051
-0.476095778714644,2190.01560876051
-0.483263483319295,2190.02560876051
-0.490037202771893,2190.03560876051
-0.496851513230845,2190.04560876051
-0.503177485074516,2190.05560876051
-0.510212871584748,2190.06560876051
-0.518261798492772,2190.07560876051
-0.526631799246013,2190.08560876051
-0.534907406787534,2190.09560876051
-0.542296994263709,2190.10560876051
-0.54818406522255,2190.11560876051
-0.547730313970269,2190.12560876051
-0.531621721914679,2190.13560876051
-0.483634752436798,2190.14560876051
-0.38830805329188,2190.15560876051
-0.237910371242115,2190.16560876051
-0.0391363241461564,2190.17560876051
0.183687630144946,2190.18560876051
0.397342560111031,2190.19560876051
0.572264036098043,2190.20560876051
0.692491619259965,2190.21560876051
0.758893925461531,2190.22560876051
0.783218195992917,2190.23560876051
0.778670818003998,2190.24560876051
0.75873582713896,2190.25560876051
0.73235197075536,2190.26560876051
0.703536009349703,2190.27560876051
0.673980347851471,2190.28560876051
0.643955638739043,2190.29560876051
0.61336817932972,2190.30560876051
0.582732385570498,2190.31560876051
0.55317689593383,2190.32560876051
0.525299916054716,2190.33560876051
0.500141453014208,2190.34560876051
0.477877128711913,2190.35560876051
0.45820292251776,2190.36560876051
0.440087125184953,2190.37560876051
0.423002521966774,2190.38560876051
0.406968853622582,2190.39560876051
0.392073937823107,2190.40560876051
0.378562279745423,2190.41560876051
0.365250713448999,2190.42560876051
0.349693842916642,2190.43560876051
0.331058837782139,2190.44560876051
0.307900582911271,2190.45560876051
0.281248627198,2190.46560876051
0.253697791239235,2190.47560876051
0.227279050746377,2190.48560876051
0.205158923692539,2190.49560876051
0.189366557158457,2190.50560876051
0.180870902657481,2190.51560876051
0.180061068915157,2190.52560876051
0.18592815351497,2190.53560876051
0.196892437382934,2190.54560876051
0.209541267872088,2190.55560876051
0.222507852302659,2190.56560876051
0.233868534699289,2190.57560876051
0.242098236961224,2190.58560876051
0.246610839812589,2190.59560876051
0.246004429898561,2190.60560876051
0.240082126350069,2190.61560876051
0.228939421998994,2190.62560876051
0.213518229272681,2190.63560876051
0.194778314595724,2190.64560876051
0.174466324397748,2190.65560876051
0.153021848562936,2190.66560876051
0.130903860329004,2190.67560876051
0.108005320502186,2190.68560876051
0.0846765794242212,2190.69560876051
0.0606180857298911,2190.70560876051
0.0365581248346408,2190.71560876051
0.0130070019063002,2190.72560876051
-0.00932473910996533,2190.73560876051
-0.0301073073822863,2190.74560876051
-0.0506842960006321,2190.75560876051
-0.0703801180193581,2190.76560876051
-0.0897896680744887,2190.77560876051
-0.108973878159293,2190.78560876051
-0.128401145237331,2190.79560876051
-0.147463284234598,2190.80560876051
-0.166145084336253,2190.81560876051
-0.184155267605517,2190.82560876051
-0.2018383586176,2190.83560876051
-0.219056437571636,2190.84560876051
-0.235631509971438,2190.85560876051
-0.252868828769612,2190.86560876051
-0.2693200342656,2190.87560876051
-0.285816678570094,2190.88560876051
-0.300879501425044,2190.89560876051
-0.31519450997291,2190.90560876051
-0.328719935137155,2190.91560876051
-0.3411867384607,2190.92560876051
-0.35388646883798,2190.93560876051
-0.366198609813918,2190.94560876051
-0.379169228088742,2190.95560876051
-0.392505434455904,2190.96560876051
-0.405299457692186,2190.97560876051
-0.417491147864498,2190.98560876051
-0.428728874771739,2190.99560876051
-0.439526106168961,2191.00560876051
-0.450476640203236,2191.01560876051
-0.461230224067644,2191.02560876051
-0.472870923846866,2191.03560876051
-0.484338906107479,2191.04560876051
-0.493940962588619,2191.05560876051
-0.502067673960879,2191.06560876051
-0.508822593356816,2191.07560876051
-0.515311342702136,2191.08560876051
-0.522245910597309,2191.09560876051
-0.530228082431318,2191.10560876051
-0.539155757305253,2191.11560876051
-0.548514794410776,2191.12560876051
-0.557905758763557,2191.13560876051
-0.566563306825762,2191.14560876051
-0.574055758916453,2191.15560876051
-0.581080023046473,2191.16560876051
-0.587383756795306,2191.17560876051
-0.593877600211585,2191.18560876051
-0.600419814430872,2191.19560876051
-0.607493243940083,2191.20560876051
-0.614149735442427,2191.21560876051
-0.621144097730038,2191.22560876051
-0.628027467919746,2191.23560876051
-0.635516658438943,2191.24560876051
-0.643488570787417,2191.25560876051
-0.651591602974247,2191.26560876051
-0.659365840967875,2191.27560876051
-0.663028051518713,2191.28560876051
-0.655770232512434,2191.29560876051
-0.623353989416855,2191.30560876051
-0.548808911491733,2191.31560876051
-0.420843244340137,2191.32560876051
-0.239892275011122,2191.33560876051
-0.0199538874356004,2191.34560876051
0.210474947581809,2191.35560876051
0.419428421872593,2191.36560876051
0.581900666560841,2191.37560876051
0.68706566973958,2191.38560876051
0.739387684593032,2191.39560876051
0.751518962208701,2191.40560876051
0.737807064890832,2191.41560876051
0.709919561894261,2191.42560876051
0.676316710522617,2191.43560876051
0.640505812525139,2191.44560876051
0.60391428204575,2191.45560876051
0.566444809266306,2191.46560876051
0.528363344399163,2191.47560876051
0.489709809986347,2191.48560876051
0.451866765734984,2191.49560876051
0.414511340598691,2191.50560876051
0.377904766895471,2191.51560876051
0.343748254945621,2191.52560876051
0.312557425554026,2191.53560876051
0.284947134668766,2191.54560876051
0.259856073563029,2191.55560876051
0.236350952866615,2191.56560876051
0.212944056487146,2191.57560876051
0.188499706474444,2191.58560876051
0.162607671725396,2191.59560876051
0.134669975182525,2191.60560876051
0.105428390705138,2191.61560876051
0.076295312583701,2191.62560876051
0.0490311472534273,2191.63560876051
0.0270751019927843,2191.64560876051
0.0124680695474907,2191.65560876051
0.00779480107689817,2191.66560876051
0.0133377880569169,2191.67560876051
0.0292013394622385,2191.68560876051
0.0539674985429465,2191.69560876051
0.0843148399204892,2191.70560876051
0.116533597046268,2191.71560876051
0.146832913405673,2191.72560876051
0.171869162953568,2191.73560876051
0.189269896569305,2191.74560876051
0.197913745641819,2191.75560876051
0.197684195446058,2191.76560876051
0.189853883881517,2191.77560876051
0.175106983388666,2191.78560876051
0.155467532578568,2191.79560876051
0.133117046793363,2191.80560876051
0.110346995935291,2191.81560876051
0.0877870968945248,2191.82560876051
0.0656342904886055,2191.83560876051
0.0445143625655885,2191.84560876051
0.0237117748344351,2191.85560876051
0.00454130507273337,2191.86560876051
-0.0142751610658552,2191.87560876051
-0.0325659267247155,2191.88560876051
-0.0506733796656524,2191.89560876051
-0.0686079749326645,2191.90560876051
-0.0853336065459102,2191.91560876051
-0.102440973766256,2191.92560876051
-0.119367448927988,2191.93560876051
-0.136113521786871,2191.94560876051
-0.152455088614144,2191.95560876051
-0.16791347540409,2191.96560876051
-0.182961715449864,2191.97560876051
-0.197614580849752,2191.98560876051
-0.212796058059805,2191.99560876051
-0.22783197083031,2192.00560876051
-0.2428914722096,2192.01560876051
-0.257707996408101,2192.02560876051
-0.272245021819799,2192.03560876051
-0.286284957964589,2192.04560876051
-0.299595073193587,2192.05560876051
-0.31266137841527,2192.06560876051
-0.325039063178374,2192.07560876051
-0.336886405418085,2192.08560876051
-0.347844034181961,2192.09560876051
-0.358313205472624,2192.10560876051
-0.36849179572026,2192.11560876051
-0.377688207480048,2192.12560876051
-0.386700269738284,2192.13560876051
-0.395635126273338,2192.14560876051
-0.40421119301789,2192.15560876051
-0.41321408496723,2192.16560876051
-0.422225569674464,2192.17560876051
-0.430520101584147,2192.18560876051
-0.43902227333587,2192.19560876051
-0.447218993002762,2192.20560876051
-0.454681397352543,2192.21560876051
-0.461778609128124,2192.22560876051
-0.468294078864335,2192.23560876051
-0.474149327113487,2192.24560876051
-0.479821672362622,2192.25560876051
-0.48561424658806,2192.26560876051
-0.492239435204354,2192.27560876051
-0.498718646840942,2192.28560876051
-0.504977132265005,2192.29560876051
-0.511800222583477,2192.30560876051
-0.518209433719262,2192.31560876051
-0.524571608404737,2192.32560876051
-0.529958503876689,2192.33560876051
-0.529713020668293,2192.34560876051
-0.51538729854115,2192.35560876051
-0.470682567914725,2192.36560876051
-0.378933095209509,2192.37560876051
-0.231214719867712,2192.38560876051
-0.0332286807418527,2192.39560876051
0.190769658198404,2192.40560876051
0.406421448389648,2192.41560876051
0.583514299245959,2192.42560876051
0.706508299109373,2192.43560876051
0.776408540222437,2192.44560876051
0.80340719656118,2192.45560876051
0.80195555733339,2192.46560876051
0.785245099996221,2192.47560876051
0.760992340580145,2192.48560876051
0.734948590095892,2192.49560876051
0.707331438439596,2192.50560876051
0.678656982001788,2192.51560876051
0.649008674283242,2192.52560876051
0.618326635805374,2192.53560876051
0.587893500937094,2192.54560876051
0.558997039685973,2192.55560876051
0.532265126184289,2192.56560876051
0.507847970270244,2192.57560876051
0.485883468192711,2192.58560876051
0.466006672068021,2192.59560876051
0.448464273028464,2192.60560876051
0.432558789384835,2192.61560876051
0.417571593044362,2192.62560876051
0.402982954325679,2192.63560876051
0.38801330388015,2192.64560876051
0.371729034098027,2192.65560876051
0.353097568029775,2192.66560876051
0.332029096249525,2192.67560876051
0.308090861206138,2192.68560876051
0.283083979388802,2192.69560876051
0.258938421024399,2192.70560876051
0.238289613159592,2192.71560876051
0.222915459490243,2192.72560876051
0.214689521331495,2192.73560876051
0.214007910866957,2192.74560876051
0.220231083882079,2192.75560876051
0.232820646064013,2192.76560876051
0.249978177002981,2192.77560876051
0.268233502310411,2192.78560876051
0.285614214553526,2192.79560876051
0.299091051042337,2192.80560876051
0.306973436515678,2192.81560876051
0.308947715376821,2192.82560876051
0.305183708614247,2192.83560876051
0.296052196292011,2192.84560876051
0.28275156290582,2192.85560876051
0.266202972008661,2192.86560876051
0.247846420147813,2192.87560876051
0.228085306166901,2192.88560876051
0.207756385342278,2192.89560876051
0.186639506650508,2192.90560876051
0.165511564415251,2192.91560876051
0.144519023476498,2192.92560876051
0.124604884889029,2192.93560876051
0.106103631804806,2192.94560876051
0.0882958483485293,2192.95560876051
0.0703014528051889,2192.96560876051
0.0524374241410906,2192.97560876051
0.0347602977248452,2192.98560876051
0.0170397149193543,2192.99560876051
-0.000275687929609306,2193.00560876051
-0.0167707642900013,2193.01560876051
-0.0336124004882179,2193.02560876051
-0.04990396095396,2193.03560876051
-0.0662815133095603,2193.04560876051
-0.083284118411931,2193.05560876051
-0.100804263407977,2193.06560876051
-0.118117132895885,2193.07560876051
-0.134141864693162,2193.08560876051
-0.149519150242852,2193.09560876051
-0.164005245352912,2193.10560876051
-0.177902588431705,2193.11560876051
-0.191191837112981,2193.12560876051
-0.204641470716531,2193.13560876051
-0.218268508355906,2193.14560876051
-0.231867837086607,2193.15560876051
-0.24567278858593,2193.16560876051
-0.25874090289321,2193.17560876051
-0.271072562158222,2193.18560876051
-0.28259283306488,2193.19560876051
-0.293992806692609,2193.20560876051
-0.306326774099413,2193.21560876051
-0.319252008011809,2193.22560876051
-0.33305163652364,2193.23560876051
-0.347157673841682,2193.24560876051
-0.359224219788083,2193.25560876051
-0.369974312745664,2193.26560876051
-0.378781771935784,2193.27560876051
-0.386692531528317,2193.28560876051
-0.394360928708451,2193.29560876051
-0.402551712390327,2193.30560876051
-0.410787942322875,2193.31560876051
-0.418924509001873,2193.32560876051
-0.427608081245493,2193.33560876051
-0.435954682140956,2193.34560876051
-0.444371400337361,2193.35560876051
-0.452279050441347,2193.36560876051
-0.460135532388747,2193.37560876051
-0.468278123847367,2193.38560876051
-0.476859870101944,2193.39560876051
-0.486270471071149,2193.40560876051
-0.494804302787269,2193.41560876051
-0.501739026931165,2193.42560876051
-0.50773282051853,2193.43560876051
-0.51331277932025,2193.44560876051
-0.51854068749683,2193.45560876051
-0.524114519999972,2193.46560876051
-0.530148879545284,2193.47560876051
-0.536558481681367,2193.48560876051
-0.542728118187169,2193.49560876051
-0.549620449047695,2193.50560876051
-0.555914755748302,2193.51560876051
-0.56191091148916,2193.52560876051
-0.567561797472909,2193.53560876051
-0.573469498401099,2193.54560876051
-0.579509320438907,2193.55560876051
-0.585906527226908,2193.56560876051
-0.590605727963374,2193.57560876051
-0.588738480171716,2193.58560876051
-0.568359069324943,2193.59560876051
-0.512717732400904,2193.60560876051
-0.405403718607286,2193.61560876051
-0.23899283807317,2193.62560876051
-0.024553705057606,2193.63560876051
0.210210328073121,2193.64560876051
0.429033944062433,2193.65560876051
0.602072593212733,2193.66560876051
0.717307636581969,2193.67560876051
0.778322009209236,2193.68560876051
0.797532857553468,2193.69560876051
0.789722291323751,2193.70560876051
0.767724350831751,2193.71560876051
0.741187399429944,2193.72560876051
0.714740227031673,2193.73560876051
0.68817101033154,2193.74560876051
0.661281423129324,2193.75560876051
0.631708652673432,2193.76560876051
0.599859805840306,2193.77560876051
0.566336724070173,2193.78560876051
0.532492659284139,2193.79560876051
0.499504279757268,2193.80560876051
0.468204002802671,2193.81560876051
0.439130175167731,2193.82560876051
0.413187069914597,2193.83560876051
0.389056973121309,2193.84560876051
0.366212490229334,2193.85560876051
0.344107580719209,2193.86560876051
0.32264899464741,2193.87560876051
0.301909079954263,2193.88560876051
0.280858326065132,2193.89560876051
0.259609510378429,2193.90560876051
0.236560286312076,2193.91560876051
0.212301046138772,2193.92560876051
0.188565655672574,2193.93560876051
0.167907144053599,2193.94560876051
0.152712705595964,2193.95560876051
0.145253506101835,2193.96560876051
0.147161157483335,2193.97560876051
0.158616560756696,2193.98560876051
0.178585159937408,2193.99560876051
0.204620605099529,2194.00560876051
0.234095308777076,2194.01560876051
0.261906113625286,2194.02560876051
0.286262616747969,2194.03560876051
0.30422827030714,2194.04560876051
0.314660058520155,2194.05560876051
0.31717402231961,2194.06560876051
0.312007255476509,2194.07560876051
0.301005810412842,2194.08560876051
0.285683352976605,2194.09560876051
0.26738371296034,2194.10560876051
0.247875519431864,2194.11560876051
0.226959250715417,2194.12560876051
0.206543999143524,2194.13560876051
0.18659117484613,2194.14560876051
0.167255883317942,2194.15560876051
0.148767836705514,2194.16560876051
0.130051793895581,2194.17560876051
0.112252174535341,2194.18560876051
0.0943972134351514,2194.19560876051
0.0771273449545836,2194.20560876051
0.0603208819409559,2194.21560876051
0.044221169101807,2194.22560876051
0.0283868047734098,2194.23560876051
0.0129972748308104,2194.24560876051
-0.00235069893974504,2194.25560876051
-0.0175227949956571,2194.26560876051
-0.0330356037810911,2194.27560876051
-0.0486466345294815,2194.28560876051
-0.0644799716597371,2194.29560876051
-0.0798915613048293,2194.30560876051
-0.0944895502142277,2194.31560876051
-0.108834772262088,2194.32560876051
-0.122622773933585,2194.33560876051
-0.136387931806235,2194.34560876051
-0.150016464025354,2194.35560876051
-0.162633724984081,2194.36560876051
-0.174235968742425,2194.37560876051
-0.184573611032341,2194.38560876051
-0.194616572904988,2194.39560876051
-0.205041091168232,2194.40560876051
-0.215908377827345,2194.41560876051
-0.226584703351825,2194.42560876051
-0.237524295857653,2194.43560876051
-0.248016793630361,2194.44560876051
-0.258256376803615,2194.45560876051
-0.268489172601881,2194.46560876051
-0.278109546081127,2194.47560876051
-0.286828730231646,2194.48560876051
-0.294936994357783,2194.49560876051
-0.301843688456289,2194.50560876051
-0.309080886224778,2194.51560876051
-0.317134169047588,2194.52560876051
-0.325748589007878,2194.53560876051
-0.334064019220062,2194.54560876051
-0.341610217858804,2194.55560876051
-0.348920339977226,2194.56560876051
-0.356360663123941,2194.57560876051
-0.36340606366986,2194.58560876051
-0.369230549459221,2194.59560876051
-0.37093276132236,2194.60560876051
-0.358111815157005,2194.61560876051
-0.315892660115363,2194.62560876051
-0.22695325429192,2194.63560876051
-0.0837032255258664,2194.64560876051
0.104887867096528,2194.65560876051
0.31282950778288,2194.66560876051
0.507487328115279,2194.67560876051
0.662541888588391,2194.68560876051
0.767441274594065,2194.69560876051
0.825381158547689,2194.70560876051
0.846437145055299,2194.71560876051
0.843817015750086,2194.72560876051
0.828734025945941,2194.73560876051
0.808265176730157,2194.74560876051
0.785894538765723,2194.75560876051
0.762038435786343,2194.76560876051
0.736458847831287,2194.77560876051
0.710030588201918,2194.78560876051
0.6831612003377,2194.79560876051
0.656697066770978,2194.80560876051
0.631305571381055,2194.81560876051
0.60801011819846,2194.82560876051
0.586400557009706,2194.83560876051
0.566904088592644,2194.84560876051
0.548862172792946,2194.85560876051
0.532031802747623,2194.86560876051
0.516908255600804,2194.87560876051
0.503022392819708,2194.88560876051
0.489920405355725,2194.89560876051
0.476760190356683,2194.90560876051
0.461460600837357,2194.91560876051
0.443400193862501,2194.92560876051
0.421821069761461,2194.93560876051
0.397391138006682,2194.94560876051
0.372388442226572,2194.95560876051
0.350194944003725,2194.96560876051
0.333021050895575,2194.97560876051
0.321965407160866,2194.98560876051
0.318698005328579,2194.99560876051
0.322074345894382,2195.00560876051
0.331536608624566,2195.01560876051
0.345726661476619,2195.02560876051
0.362376165296334,2195.03560876051
0.379272508467794,2195.04560876051
0.394243191166664,2195.05560876051
0.405042241378028,2195.06560876051
0.410592640811687,2195.07560876051
0.40984058564522,2195.08560876051
0.402866363667497,2195.09560876051
0.390774355678368,2195.10560876051
0.37443433528698,2195.11560876051
0.35589034121927,2195.12560876051
0.336302170340326,2195.13560876051
0.316165012176628,2195.14560876051
0.296365706932235,2195.15560876051
0.276610758101443,2195.16560876051
0.257109169070477,2195.17560876051
0.237347766776777,2195.18560876051
0.217968881979639,2195.19560876051
0.198249049901523,2195.20560876051
0.178935677658803,2195.21560876051
0.159891500957402,2195.22560876051
0.140917295077907,2195.23560876051
0.122820957838142,2195.24560876051
0.10550945641242,2195.25560876051
0.0885211888719726,2195.26560876051
0.0722718158435178,2195.27560876051
0.0565584382187163,2195.28560876051
0.0411056054085636,2195.29560876051
0.0262263258542521,2195.30560876051
0.0111286150985771,2195.31560876051
-0.00350843974798926,2195.32560876051
-0.0185118592766229,2195.33560876051
-0.0337578285128763,2195.34560876051
-0.0485536259700541,2195.35560876051
-0.0637055385152572,2195.36560876051
-0.0784358133360081,2195.37560876051
-0.0927628899119659,2195.38560876051
-0.105939761339988,2195.39560876051
-0.119992343753984,2195.40560876051
-0.133271132275455,2195.41560876051
-0.146694358094806,2195.42560876051
-0.160008887781866,2195.43560876051
-0.17199542132827,2195.44560876051
-0.182878139326134,2195.45560876051
-0.192424360977894,2195.46560876051
-0.20234072750102,2195.47560876051
-0.212145123656035,2195.48560876051
-0.222510095910278,2195.49560876051
-0.233029538165338,2195.50560876051
-0.242908650436447,2195.51560876051
-0.252888075762202,2195.52560876051
-0.262819061552555,2195.53560876051
-0.272671033173764,2195.54560876051
-0.282715543987741,2195.55560876051
-0.292666592862071,2195.56560876051
-0.303002450503923,2195.57560876051
-0.312993607458355,2195.58560876051
-0.323168357472922,2195.59560876051
-0.332847113303392,2195.60560876051
-0.342255940834265,2195.61560876051
-0.351044520588441,2195.62560876051
-0.359897191746984,2195.63560876051
-0.368423809821338,2195.64560876051
-0.376974153342161,2195.65560876051
-0.38483537189249,2195.66560876051
-0.392652991249221,2195.67560876051
-0.400033002754259,2195.68560876051
-0.407456548881965,2195.69560876051
-0.415342586627963,2195.70560876051
-0.423374855402725,2195.71560876051
-0.428657230073069,2195.72560876051
-0.423611666273353,2195.73560876051
-0.394839426593545,2195.74560876051
-0.325022477790878,2195.75560876051
-0.200764625113282,2195.76560876051
-0.0219965643485785,2195.77560876051
0.192457648095967,2195.78560876051
0.408330601423726,2195.79560876051
0.593031260673278,2195.80560876051
0.727837006502643,2195.81560876051
0.80971962195767,2195.82560876051
0.847227513240033,2195.83560876051
0.85366522723301,2195.84560876051
0.841700455875736,2195.85560876051
0.820278225049647,2195.86560876051
0.795682527566423,2195.87560876051
0.769288321419593,2195.88560876051
0.74164763924869,2195.89560876051
0.713441673281346,2195.90560876051
0.684611424704086,2195.91560876051
0.656671955971206,2195.92560876051
0.629802728275915,2195.93560876051
0.603928530070306,2195.94560876051
0.579733055509125,2195.95560876051
0.556585028308499,2195.96560876051
0.535323654135227,2195.97560876051
0.516214255475154,2195.98560876051
0.499562240643951,2195.99560876051
0.484438352552017,2196.00560876051
0.470214588057483,2196.01560876051
0.456279699532085,2196.02560876051
0.441439418476078,2196.03560876051
0.42554031218467,2196.04560876051
0.406710917956962,2196.05560876051
0.38514875615774,2196.06560876051
0.361868444974456,2196.07560876051
0.339452341900422,2196.08560876051
0.321018627978325,2196.09560876051
0.308349664655283,2196.10560876051
0.302589887833287,2196.11560876051
0.304616911321304,2196.12560876051
0.314056156479077,2196.13560876051
0.32948701042764,2196.14560876051
0.349113162578188,2196.15560876051
0.369868210045293,2196.16560876051
0.389045301535254,2196.17560876051
0.404197144623029,2196.18560876051
0.413144574617406,2196.19560876051
0.416229797992233,2196.20560876051
0.412970449598386,2196.21560876051
0.404408963133138,2196.22560876051
0.391446933511512,2196.23560876051
0.375637687692273,2196.24560876051
0.358023350423631,2196.25560876051
0.339140920972089,2196.26560876051
0.319053138974832,2196.27560876051
0.299144289238709,2196.28560876051
0.279518296987887,2196.29560876051
0.260136148977487,2196.30560876051
0.24167038149935,2196.31560876051
0.22291056687617,2196.32560876051
0.204378993585458,2196.33560876051
0.186083427832809,2196.34560876051
0.168395113535336,2196.35560876051
0.150831861556952,2196.36560876051
0.133535722722015,2196.37560876051
0.116536604958805,2196.38560876051
0.100146788139198,2196.39560876051
0.0837804116785913,2196.40560876051
0.0682820250200701,2196.41560876051
0.0534030867315979,2196.42560876051
0.0390262916798452,2196.43560876051
0.0248996789021422,2196.44560876051
0.0112148030952137,2196.45560876051
-0.00211166690882613,2196.46560876051
-0.0156838680811475,2196.47560876051
-0.0295848981276719,2196.48560876051
-0.0435788133795105,2196.49560876051
-0.0579156321797389,2196.50560876051
-0.0720881833573016,2196.51560876051
-0.0856585324171674,2196.52560876051
-0.0985547172588,2196.53560876051
-0.110895784916303,2196.54560876051
-0.122665356201798,2196.55560876051
-0.134078340835323,2196.56560876051
-0.144078665689035,2196.57560876051
-0.152979668437718,2196.58560876051
-0.160619732231376,2196.59560876051
-0.167601392484121,2196.60560876051
-0.174260777183752,2196.61560876051
-0.180627245870294,2196.62560876051
-0.187224334016944,2196.63560876051
-0.194633288672148,2196.64560876051
-0.202579507593616,2196.65560876051
-0.211554029314695,2196.66560876051
-0.22092281196811,2196.67560876051
-0.231168605919975,2196.68560876051
-0.241735237424355,2196.69560876051
-0.252670780116514,2196.70560876051
-0.262307877666395,2196.71560876051
-0.2679697715365,2196.72560876051
-0.263831146867689,2196.73560876051
-0.237758349186584,2196.74560876051
-0.173732669256674,2196.75560876051
-0.0602599774153728,2196.76560876051
0.101186456892382,2196.77560876051
0.290861043234756,2196.78560876051
0.478308549529752,2196.79560876051
0.636455873932634,2196.80560876051
0.750284459650137,2196.81560876051
0.818962769853222,2196.82560876051
0.848861907911063,2196.83560876051
0.851913035509053,2196.84560876051
0.838692941138287,2196.85560876051
0.818321790399564,2196.86560876051
0.794901249132228,2196.87560876051
0.770473650898985,2196.88560876051
0.74500016612801,2196.89560876051
0.718443457001663,2196.90560876051
0.691034944253365,2196.91560876051
0.663610838144969,2196.92560876051
0.637618438762584,2196.93560876051
0.613558987402827,2196.94560876051
0.591707368022424,2196.95560876051
0.572733305494781,2196.96560876051
0.555796953978563,2196.97560876051
0.541065239855844,2196.98560876051
0.52797746214757,2196.99560876051
0.51547432533553,2197.00560876051
0.503108052783503,2197.01560876051
0.489275678225538,2197.02560876051
0.472836410834877,2197.03560876051
0.452937901733371,2197.04560876051
0.429767708963021,2197.05560876051
0.405372525084443,2197.06560876051
0.381321394325999,2197.07560876051
0.360644569983259,2197.08560876051
0.346912165399553,2197.09560876051
0.341554750285465,2197.10560876051
0.345137110119068,2197.11560876051
0.356493990105118,2197.12560876051
0.373292228997097,2197.13560876051
0.393239101238321,2197.14560876051
0.4128914997793,2197.15560876051
0.430634517303448,2197.16560876051
0.443248129118779,2197.17560876051
0.449581033625368,2197.18560876051
0.449182844207046,2197.19560876051
0.442703692632754,2197.20560876051
0.431670931336886,2197.21560876051
0.416123748796463,2197.22560876051
0.397533093256249,2197.23560876051
0.376967434940098,2197.24560876051
0.355253331745371,2197.25560876051
0.333178127904322,2197.26560876051
0.311194949060105,2197.27560876051
0.289679089925489,2197.28560876051
0.269146121351299,2197.29560876051
0.249175508377192,2197.30560876051
0.228967149317388,2197.31560876051
0.209445735077073,2197.32560876051
0.190202573330593,2197.33560876051
0.171912370455148,2197.34560876051
0.154217756845861,2197.35560876051
0.137412297571389,2197.36560876051
0.12045764220827,2197.37560876051
0.104031504984082,2197.38560876051
0.0875111082844985,2197.39560876051
0.0714982707342228,2197.40560876051
0.0559109040213836,2197.41560876051
0.0403353754891357,2197.42560876051
0.025524517152392,2197.43560876051
0.0108838194731713,2197.44560876051
-0.00333260378982901,2197.45560876051
-0.017221290705992,2197.46560876051
-0.0305398296433131,2197.47560876051
-0.0436134308681053,2197.48560876051
-0.0565981849786538,2197.49560876051
-0.0689158473339143,2197.50560876051
-0.0815026222891505,2197.51560876051
-0.0940459788787824,2197.52560876051
-0.106248601581194,2197.53560876051
-0.118898685723515,2197.54560876051
-0.130796557127808,2197.55560876051
-0.142847476530861,2197.56560876051
-0.155010677016817,2197.57560876051
-0.167518580429826,2197.58560876051
-0.180279752405057,2197.59560876051
-0.192338468782147,2197.60560876051
-0.204306741719104,2197.61560876051
-0.215037971795022,2197.62560876051
-0.224983238375297,2197.63560876051
-0.234014164574218,2197.64560876051
-0.242391567202736,2197.65560876051
-0.249808579132501,2197.66560876051
-0.257705852855774,2197.67560876051
-0.265702767190567,2197.68560876051
-0.273906057321142,2197.69560876051
-0.282254318373328,2197.70560876051
-0.289990096991974,2197.71560876051
-0.296759374727885,2197.72560876051
-0.30343629655731,2197.73560876051
-0.310268232880708,2197.74560876051
-0.317386209443705,2197.75560876051
-0.325446353079422,2197.76560876051
-0.333663853906879,2197.77560876051
-0.342171965771715,2197.78560876051
-0.351007700539146,2197.79560876051
-0.360155238190518,2197.80560876051
-0.367827898593624,2197.81560876051
-0.371411427971662,2197.82560876051
-0.361571590983117,2197.83560876051
-0.323266988430635,2197.84560876051
-0.239416770656279,2197.85560876051
-0.0991324082388863,2197.86560876051
0.0899427245260511,2197.87560876051
0.302284073771108,2197.88560876051
0.503066858335897,2197.89560876051
0.665520024112067,2197.90560876051
0.777770675185076,2197.91560876051
0.841943131254001,2197.92560876051
0.868726270459836,2197.93560876051
0.871121349430571,2197.94560876051
0.859681259464533,2197.95560876051
0.84170270263442,2197.96560876051
0.821157210139953,2197.97560876051
0.799100922802176,2197.98560876051
0.776410570905474,2197.99560876051
0.753959839252743,2198.00560876051
0.731357008003718,2198.01560876051
0.709431917386031,2198.02560876051
0.687992496133544,2198.03560876051
0.667117534317826,2198.04560876051
0.646589504885087,2198.05560876051
0.626914018668039,2198.06560876051
0.608721826090937,2198.07560876051
0.591752031886578,2198.08560876051
0.576568039905026,2198.09560876051
0.562772298106162,2198.10560876051
0.549049755432928,2198.11560876051
0.535410949202612,2198.12560876051
0.520306663674299,2198.13560876051
0.502716995942801,2198.14560876051
0.481782861981188,2198.15560876051
0.458635465590852,2198.16560876051
0.434616292306418,2198.17560876051
0.413009841323179,2198.18560876051
0.396473951018424,2198.19560876051
0.386068326249205,2198.20560876051
0.383499116608662,2198.21560876051
0.388017190037461,2198.22560876051
0.398610486158782,2198.23560876051
0.413050442472708,2198.24560876051
0.429828445877554,2198.25560876051
0.445955988767631,2198.26560876051
0.459200040432626,2198.27560876051
0.467023258872406,2198.28560876051
0.468992597019591,2198.29560876051
0.464593947727722,2198.30560876051
0.454722419241053,2198.31560876051
0.440540764127823,2198.32560876051
0.423266990589122,2198.33560876051
0.402805510063152,2198.34560876051
0.381802532824461,2198.35560876051
0.360160068090918,2198.36560876051
0.337975601412957,2198.37560876051
0.315226853808216,2198.38560876051
0.292631699789768,2198.39560876051
0.270712333350196,2198.40560876051
0.249723031774865,2198.41560876051
0.229427587403664,2198.42560876051
0.209775682993278,2198.43560876051
0.19003316675425,2198.44560876051
0.170119451019988,2198.45560876051
0.150588462892566,2198.46560876051
0.131881283548194,2198.47560876051
0.114182531696314,2198.48560876051
0.0969405863864312,2198.49560876051
0.0801283416147794,2198.50560876051
0.063275608065749,2198.51560876051
0.046636664935056,2198.52560876051
0.0303825956658922,2198.53560876051
0.0136516499494219,2198.54560876051
-0.00234905190396715,2198.55560876051
-0.0182224256910446,2198.56560876051
-0.0324984207350149,2198.57560876051
-0.0455696037817119,2198.58560876051
-0.0575694024990923,2198.59560876051
-0.0695649974201697,2198.60560876051
-0.0822362028346913,2198.61560876051
-0.0947472880639527,2198.62560876051
-0.107250161709795,2198.63560876051
-0.119560871926994,2198.64560876051
-0.131457449190834,2198.65560876051
-0.14316818669861,2198.66560876051
-0.154593607845033,2198.67560876051
-0.165726731475511,2198.68560876051
-0.176866807113147,2198.69560876051
-0.188286061858173,2198.70560876051
-0.19964865165815,2198.71560876051
-0.210616561435504,2198.72560876051
-0.221487646863243,2198.73560876051
-0.231803991667053,2198.74560876051
-0.242045992130486,2198.75560876051
-0.252287777356851,2198.76560876051
-0.262307332920754,2198.77560876051
-0.272090737296237,2198.78560876051
-0.281663776205363,2198.79560876051
-0.290668227541754,2198.80560876051
-0.299496096226843,2198.81560876051
-0.308338913830174,2198.82560876051
-0.317723758766224,2198.83560876051
-0.327937894757696,2198.84560876051
-0.338631988078271,2198.85560876051
-0.350293631410618,2198.86560876051
-0.362572991747367,2198.87560876051
-0.374471716429618,2198.88560876051
-0.385180996539897,2198.89560876051
-0.394607504193334,2198.90560876051
-0.403138862901006,2198.91560876051
-0.411487765959608,2198.92560876051
-0.420258720525644,2198.93560876051
-0.428961115584589,2198.94560876051
-0.438234431012077,2198.95560876051
-0.448485191444457,2198.96560876051
-0.459111071430079,2198.97560876051
-0.47013376622256,2198.98560876051
-0.481407782873189,2198.99560876051
-0.491054016425695,2199.00560876051
-0.495604857611674,2199.01560876051
-0.486682757124415,2199.02560876051
-0.448657641471303,2199.03560876051
-0.364609627970842,2199.04560876051
-0.223404554603595,2199.05560876051
-0.0301007250737451,2199.06560876051
0.189442223604266,2199.07560876051
0.401739369164735,2199.08560876051
0.575701323703209,2199.09560876051
0.696380355180088,2199.10560876051
0.764287921878275,2199.11560876051
0.790107494190727,2199.12560876051
0.788031997910557,2199.13560876051
0.769928680344982,2199.14560876051
0.744394531471908,2199.15560876051
0.716022892311792,2199.16560876051
0.686586105194951,2199.17560876051
0.655666513518254,2199.18560876051
0.623598987499549,2199.19560876051
0.590949718819372,2199.20560876051
0.559307818078911,2199.21560876051
0.529644267963423,2199.22560876051
0.50287137759661,2199.23560876051
0.479331114586553,2199.24560876051
0.458071253220676,2199.25560876051
0.439290053724486,2199.26560876051
0.421627800517087,2199.27560876051
0.406027254879718,2199.28560876051
0.391496312641233,2199.29560876051
0.377725445202631,2199.30560876051
0.363884910063718,2199.31560876051
0.347974790308003,2199.32560876051
0.32966917197626,2199.33560876051
0.307698640761422,2199.34560876051
0.283498547467039,2199.35560876051
0.259049319143482,2199.36560876051
0.237911362105609,2199.37560876051
0.22214561871426,2199.38560876051
0.213364101562606,2199.39560876051
0.213383121964244,2199.40560876051
0.220930661587277,2199.41560876051
0.234974324976623,2199.42560876051
0.253558601695851,2199.43560876051
0.273884576524315,2199.44560876051
0.293325671431486,2199.45560876051
0.30947033455551,2199.46560876051
0.320781617326374,2199.47560876051
0.32505532954625,2199.48560876051
0.322999593767034,2199.49560876051
0.313676131393074,2199.50560876051
0.298642600652995,2199.51560876051
0.280056761291934,2199.52560876051
0.259857312423567,2199.53560876051
0.238861505096497,2199.54560876051
0.21706017019926,2199.55560876051
0.194514850577671,2199.56560876051
0.171462668112685,2199.57560876051
0.148031073510679,2199.58560876051
0.124757670828112,2199.59560876051
0.102325757891708,2199.60560876051
0.0804145438024212,2199.61560876051
0.0598809075038526,2199.62560876051
0.0404503317366044,2199.63560876051
0.0226293155371126,2199.64560876051
0.00521541441585267,2199.65560876051
-0.012285926340511,2199.66560876051
-0.0299872909053241,2199.67560876051
-0.0473040783564893,2199.68560876051
-0.0637133148466938,2199.69560876051
-0.0790306823909571,2199.70560876051
-0.0935185433362491,2199.71560876051
-0.107467359004253,2199.72560876051
-0.121029182180078,2199.73560876051
-0.134015859668276,2199.74560876051
-0.147573481145902,2199.75560876051
-0.161004578265866,2199.76560876051
-0.174705531673382,2199.77560876051
-0.188186145532738,2199.78560876051
-0.20087572809113,2199.79560876051
-0.212442766841249,2199.80560876051
-0.22313883211632,2199.81560876051
-0.233712505526459,2199.82560876051
-0.244080830407117,2199.83560876051
-0.254798714353132,2199.84560876051
-0.265396582464669,2199.85560876051
-0.275682929751087,2199.86560876051
-0.285513395413018,2199.87560876051
-0.294606104353542,2199.88560876051
-0.303247680577988,2199.89560876051
-0.311221692016631,2199.90560876051
-0.318780336338491,2199.91560876051
-0.326103265991809,2199.92560876051
-0.333360367124159,2199.93560876051
-0.341232459414192,2199.94560876051
-0.348557069093033,2199.95560876051
-0.356297486341079,2199.96560876051
-0.363963921721234,2199.97560876051
-0.372380130321582,2199.98560876051
-0.382461460903465,2199.99560876051
-0.393716733150931,2200.00560876051
-0.405577960067576,2200.01560876051
-0.41637135352453,2200.02560876051
-0.421363991934694,2200.03560876051
-0.411215298407856,2200.04560876051
-0.37160682165834,2200.05560876051
-0.287224291787742,2200.06560876051
-0.150271783966187,2200.07560876051
0.0307843531718151,2200.08560876051
0.231888974031836,2200.09560876051
0.421513086412493,2200.10560876051
0.574004037395934,2200.11560876051
0.677988399438838,2200.12560876051
0.734475105414961,2200.13560876051
0.753435692092404,2200.14560876051
0.747019160665046,2200.15560876051
0.726145598324675,2200.16560876051
0.698034873816056,2200.17560876051
0.666935212039204,2200.18560876051
0.634456427859401,2200.19560876051
0.601403463874292,2200.20560876051
0.567820446509054,2200.21560876051
0.534234784170317,2200.22560876051
0.501687990145941,2200.23560876051
0.470457842391865,2200.24560876051
0.441697721224784,2200.25560876051
0.415309135801107,2200.26560876051
0.391668426629107,2200.27560876051
0.370984981002938,2200.28560876051
0.353342360430131,2200.29560876051
0.337765188508969,2200.30560876051
0.322964838313534,2200.31560876051
0.307408929593426,2200.32560876051
0.289641865327825,2200.33560876051
0.268738457654899,2200.34560876051
0.244742474093302,2200.35560876051
0.218497787476356,2200.36560876051
0.193054791740582,2200.37560876051
0.171752715745086,2200.38560876051
0.156789737310739,2200.39560876051
0.150507007037871,2200.40560876051
0.153983402927979,2200.41560876051
0.166331492816292,2200.42560876051
0.185258769051571,2200.43560876051
0.208467449673815,2200.44560876051
0.233179783678098,2200.45560876051
0.255911979532142,2200.46560876051
0.273398159692897,2200.47560876051
0.285066542802319,2200.48560876051
0.289571812434489,2200.49560876051
0.286551249533069,2200.50560876051
0.277045626155808,2200.51560876051
0.261692584332413,2200.52560876051
0.242236014725559,2200.53560876051
0.219502398077076,2200.54560876051
0.196263322606589,2200.55560876051
0.172397665512943,2200.56560876051
0.149156473123602,2200.57560876051
0.125562147314168,2200.58560876051
0.101866850890894,2200.59560876051
0.0795835374425986,2200.60560876051
0.0583718796522983,2200.61560876051
0.0389119520142473,2200.62560876051
0.0202897599266321,2200.63560876051
0.0020030188400654,2200.64560876051
-0.0161520552883729,2200.65560876051
-0.034679830331013,2200.66560876051
-0.0529488814210368,2200.67560876051
-0.0703783359049223,2200.68560876051
-0.0875141140756048,2200.69560876051
-0.103941639533524,2200.70560876051
-0.119935424060998,2200.71560876051
-0.13553952785349,2200.72560876051
-0.151336525865285,2200.73560876051
-0.167972401297294,2200.74560876051
-0.185154606072994,2200.75560876051
-0.201630352900262,2200.76560876051
-0.216626242861646,2200.77560876051
-0.229593810199473,2200.78560876051
-0.241550602492169,2200.79560876051
-0.253023653743804,2200.80560876051
-0.264001263948055,2200.81560876051
-0.275506856035895,2200.82560876051
-0.286987723677489,2200.83560876051
-0.2984533105305,2200.84560876051
-0.309045469702915,2200.85560876051
-0.319102677264931,2200.86560876051
-0.327908305551494,2200.87560876051
-0.33514674431297,2200.88560876051
-0.34135730908918,2200.89560876051
-0.346841082595842,2200.90560876051
-0.351417723703345,2200.91560876051
-0.355675132408494,2200.92560876051
-0.359498082731024,2200.93560876051
-0.362742965228823,2200.94560876051
-0.365887732735391,2200.95560876051
-0.368933271797854,2200.96560876051
-0.371402104321369,2200.97560876051
-0.37303572816419,2200.98560876051
-0.371622276046681,2200.99560876051
-0.361403165729617,2201.00560876051
-0.331010012205244,2201.01560876051
-0.265072867827917,2201.02560876051
-0.15051681206665,2201.03560876051
0.0108623730628617,2201.04560876051
0.202540167731754,2201.05560876051
0.396114615380531,2201.06560876051
0.563361780494041,2201.07560876051
0.688556556360838,2201.08560876051
0.76766732095689,2201.09560876051
0.80719432747973,2201.10560876051
0.817295924792064,2201.11560876051
0.808884989167846,2201.12560876051
0.79016518866227,2201.13560876051
0.766162180633512,2201.14560876051
0.740453793895241,2201.15560876051
0.713489350426332,2201.16560876051
0.686457541356706,2201.17560876051
0.660073926054014,2201.18560876051
0.634220820953284,2201.19560876051
0.609837950267338,2201.20560876051
0.586818171310237,2201.21560876051
0.565685704108745,2201.22560876051
0.546840168193692,2201.23560876051
0.530079696303759,2201.24560876051
0.516537628197242,2201.25560876051
0.506320949964066,2201.26560876051
0.4982885720227,2201.27560876051
0.491816673500851,2201.28560876051
0.484243990477697,2201.29560876051
0.474064584287221,2201.30560876051
0.459262850012096,2201.31560876051
0.440068003940405,2201.32560876051
0.416743441503962,2201.33560876051
0.390965913782584,2201.34560876051
0.365136514406311,2201.35560876051
0.3423062183737,2201.36560876051
0.32439311754766,2201.37560876051
0.312815979833719,2201.38560876051
0.308334264435627,2201.39560876051
0.311146497521954,2201.40560876051
0.319200538686799,2201.41560876051
0.330521962404344,2201.42560876051
0.343012691191661,2201.43560876051
0.353896305526497,2201.44560876051
0.362236575843089,2201.45560876051
0.365279329357173,2201.46560876051
0.363363581611342,2201.47560876051
0.356252717175252,2201.48560876051
0.344366128289164,2201.49560876051
0.328156826512254,2201.50560876051
0.308535084825636,2201.51560876051
0.287174911863317,2201.52560876051
0.264608718598221,2201.53560876051
0.240457716848209,2201.54560876051
0.216176800269947,2201.55560876051
0.192307118594236,2201.56560876051
0.169611615453347,2201.57560876051
0.148050597639316,2201.58560876051
0.126041733768111,2201.59560876051
0.104627429954045,2201.60560876051
0.083142135535211,2201.61560876051
0.0619719116653016,2201.62560876051
0.0407432688801296,2201.63560876051
0.0207232847683878,2201.64560876051
0.00135578250923906,2201.65560876051
-0.0166964925928546,2201.66560876051
-0.0340606682152616,2201.67560876051
-0.0505415396867709,2201.68560876051
-0.0670217704515571,2201.69560876051
-0.0850516494258742,2201.70560876051
-0.103694782626078,2201.71560876051
-0.121140534034458,2201.72560876051
-0.136065872340059,2201.73560876051
-0.149248990279267,2201.74560876051
-0.160786438991819,2201.75560876051
-0.171932536882444,2201.76560876051
-0.183218359041649,2201.77560876051
-0.194932952246969,2201.78560876051
-0.207105240385238,2201.79560876051
-0.219514494351101,2201.80560876051
-0.23241057901178,2201.81560876051
-0.244847647799816,2201.82560876051
-0.257369356134588,2201.83560876051
-0.269427171143741,2201.84560876051
-0.281589447553125,2201.85560876051
-0.293649901585865,2201.86560876051
-0.306065354829308,2201.87560876051
-0.318081866843703,2201.88560876051
-0.330056626830049,2201.89560876051
-0.341686096637313,2201.90560876051
-0.352977346144866,2201.91560876051
-0.363942841639345,2201.92560876051
-0.374435032804798,2201.93560876051
-0.384890033991484,2201.94560876051
-0.395570155903461,2201.95560876051
-0.405997545037152,2201.96560876051
-0.416514453535292,2201.97560876051
-0.427653767952734,2201.98560876051
-0.438562307805063,2201.99560876051
-0.449550192482845,2202.00560876051
-0.460752156592805,2202.01560876051
-0.472536614670443,2202.02560876051
-0.483609661102007,2202.03560876051
-0.491607591310769,2202.04560876051
-0.490865262310091,2202.05560876051
-0.469993369071044,2202.06560876051
-0.41165399394387,2202.07560876051
-0.301234729204079,2202.08560876051
-0.135108019890054,2202.09560876051
0.071110176360265,2202.10560876051
0.286116816597977,2202.11560876051
0.476544482111518,2202.12560876051
0.619328026715326,2202.13560876051
0.708475743775331,2202.14560876051
0.749830432398999,2202.15560876051
0.756142177485504,2202.16560876051
0.741343394740908,2202.17560876051
0.715533416717513,2202.18560876051
0.685829346347349,2202.19560876051
0.654854808707157,2202.20560876051
0.624288824404908,2202.21560876051
0.593394766640513,2202.22560876051
0.562532686006982,2202.23560876051
0.531990639086537,2202.24560876051
0.502309677228013,2202.25560876051
0.474219809570293,2202.26560876051
0.449097529062659,2202.27560876051
0.427660991394944,2202.28560876051
0.409665798067307,2202.29560876051
0.394302064849441,2202.30560876051
0.380660527434732,2202.31560876051
0.368025231127153,2202.32560876051
0.356427970333235,2202.33560876051
0.344069561597313,2202.34560876051
0.329794403703142,2202.35560876051
0.312656167065101,2202.36560876051
0.29254599307787,2202.37560876051
0.269850181075632,2202.38560876051
0.246152436616366,2202.39560876051
0.223492916858789,2202.40560876051
0.204776389478889,2202.41560876051
0.193268458797476,2202.42560876051
0.189563701052039,2202.43560876051
0.193825320389064,2202.44560876051
0.205018874787014,2202.45560876051
0.220911898309165,2202.46560876051
0.239555146653494,2202.47560876051
0.25755354718361,2202.48560876051
0.273265830978971,2202.49560876051
0.284827539501273,2202.50560876051
0.290427654890963,2202.51560876051
0.289208550699159,2202.52560876051
0.282473081128451,2202.53560876051
0.26982270276296,2202.54560876051
0.253464576604882,2202.55560876051
0.233935735474872,2202.56560876051
0.212397237175773,2202.57560876051
0.189857206924097,2202.58560876051
0.166923202668752,2202.59560876051
0.144097825879632,2202.60560876051
0.121696632129638,2202.61560876051
0.0997443991006568,2202.62560876051
0.0784881556746896,2202.63560876051
0.0587201383833115,2202.64560876051
0.0397543964325341,2202.65560876051
0.0222741216400768,2202.66560876051
0.00564723876007837,2202.67560876051
-0.00994968661858579,2202.68560876051
-0.0253476764835625,2202.69560876051
-0.0403572439142557,2202.70560876051
-0.0547354992435308,2202.71560876051
-0.0687410681045812,2202.72560876051
-0.0829036975259704,2202.73560876051
-0.0960732129753526,2202.74560876051
-0.109121564779048,2202.75560876051
-0.121725854609129,2202.76560876051
-0.134223924530072,2202.77560876051
-0.146737213177931,2202.78560876051
-0.159211744532273,2202.79560876051
-0.171516475041072,2202.80560876051
-0.182935757376834,2202.81560876051
-0.193880999395304,2202.82560876051
-0.203333840944194,2202.83560876051
-0.212020298566723,2202.84560876051
-0.220058847859472,2202.85560876051
-0.227173988184015,2202.86560876051
-0.234514818897113,2202.87560876051
-0.242585313872951,2202.88560876051
-0.251224842588576,2202.89560876051
-0.260423388479129,2202.90560876051
-0.270104528662034,2202.91560876051
-0.279793369861121,2202.92560876051
-0.290180077638694,2202.93560876051
-0.301197790838286,2202.94560876051
-0.31209803345836,2202.95560876051
-0.320590827704515,2202.96560876051
-0.32063855649126,2202.97560876051
-0.300094304371629,2202.98560876051
-0.243520385794788,2202.99560876051
-0.137687584311065,2203.00560876051
0.0164730860850759,2203.01560876051
0.198949715692347,2203.02560876051
0.380954094892963,2203.03560876051
0.535038027645107,2203.04560876051
0.646502930494656,2203.05560876051
0.713448571806938,2203.06560876051
0.742034162221475,2203.07560876051
0.743667308758404,2203.08560876051
0.728091569606626,2203.09560876051
0.703736554990207,2203.10560876051
0.675879774980315,2203.11560876051
0.647110081650851,2203.12560876051
0.617321584111187,2203.13560876051
0.587761692119618,2203.14560876051
0.558905658794282,2203.15560876051
0.530373031032074,2203.16560876051
0.504481579346993,2203.17560876051
0.48109822134388,2203.18560876051
0.46022272481371,2203.19560876051
0.442127192839312,2203.20560876051
0.42609988315886,2203.21560876051
0.41199858344291,2203.22560876051
0.400042578554464,2203.23560876051
0.388192324220596,2203.24560876051
0.37528750503756,2203.25560876051
0.35988126791346,2203.26560876051
0.341263050830782,2203.27560876051
0.319647650985456,2203.28560876051
0.296766324359478,2203.29560876051
0.274209179270472,2203.30560876051
0.254470325175234,2203.31560876051
0.240705673876923,2203.32560876051
0.233740901006435,2203.33560876051
0.235376051290674,2203.34560876051
0.244485775467519,2203.35560876051
0.259354359333897,2203.36560876051
0.278024545187182,2203.37560876051
0.297114206526713,2203.38560876051
0.315017705210935,2203.39560876051
0.328584022043264,2203.40560876051
0.336395337724578,2203.41560876051
0.338325733053716,2203.42560876051
0.334049749166305,2203.43560876051
0.324940664459634,2203.44560876051
0.311276639469365,2203.45560876051
0.294410572819412,2203.46560876051
0.275267436749396,2203.47560876051
0.254403927543427,2203.48560876051
0.233286571812847,2203.49560876051
0.212038731065534,2203.50560876051
0.191723514405773,2203.51560876051
0.171691288234101,2203.52560876051
0.152391401752703,2203.53560876051
0.133568559932095,2203.54560876051
0.115758097440149,2203.55560876051
0.098885029709926,2203.56560876051
0.0825818040238989,2203.57560876051
0.0670417566221169,2203.58560876051
0.0520896080929272,2203.59560876051
0.0374698857906444,2203.60560876051
0.0233129553451007,2203.61560876051
0.00863999478421246,2203.62560876051
-0.00614763138433416,2203.63560876051
-0.0212403417758098,2203.64560876051
-0.0360291174357545,2203.65560876051
-0.0508084240146038,2203.66560876051
-0.0645844862882336,2203.67560876051
-0.0779826436170079,2203.68560876051
-0.0911088971662842,2203.69560876051
-0.103635940341754,2203.70560876051
-0.115886089162477,2203.71560876051
-0.128179415243185,2203.72560876051
-0.140132597166628,2203.73560876051
-0.150950497555639,2203.74560876051
-0.160479857088395,2203.75560876051
-0.168878368319327,2203.76560876051
-0.177152092518045,2203.77560876051
-0.18610138128479,2203.78560876051
-0.195906988221507,2203.79560876051
-0.206460915280623,2203.80560876051
-0.217805959757782,2203.81560876051
-0.228447872948968,2203.82560876051
-0.239174099523609,2203.83560876051
-0.248720301105032,2203.84560876051
-0.25429083283523,2203.85560876051
-0.247776984700508,2203.86560876051
-0.21450879310684,2203.87560876051
-0.138308679674382,2203.88560876051
-0.0117634719998006,2203.89560876051
0.153491446706132,2203.90560876051
0.332418273286119,2203.91560876051
0.496751591020091,2203.92560876051
0.626451598467927,2203.93560876051
0.713868765455567,2203.94560876051
0.760454158251207,2203.95560876051
0.77691547416436,2203.96560876051
0.771667215361792,2203.97560876051
0.75515234303607,2203.98560876051
0.733333414751126,2203.99560876051
0.709559041363689,2204.00560876051
0.685835462626183,2204.01560876051
0.662833694463363,2204.02560876051
0.640895378254558,2204.03560876051
0.619663422971569,2204.04560876051
0.600790314462119,2204.05560876051
0.583957912152749,2204.06560876051
0.569587834430776,2204.07560876051
0.557645825395635,2204.08560876051
0.548972467507933,2204.09560876051
0.542345771325301,2204.10560876051
0.536915316899726,2204.11560876051
0.532027889982742,2204.12560876051
0.526785454202333,2204.13560876051
0.51988029713053,2204.14560876051
0.510951160720578,2204.15560876051
0.498482920595582,2204.16560876051
0.482351698119554,2204.17560876051
0.462299646371397,2204.18560876051
0.440448085301854,2204.19560876051
0.418576587586812,2204.20560876051
0.399907613979541,2204.21560876051
0.386360968254841,2204.22560876051
0.378542242245914,2204.23560876051
0.376125071741125,2204.24560876051
0.377588989998359,2204.25560876051
0.383105110168277,2204.26560876051
0.390433531590197,2204.27560876051
0.398451767897003,2204.28560876051
0.405207897873843,2204.29560876051
0.410050522386369,2204.30560876051
0.411482022590603,2204.31560876051
0.408851517049608,2204.32560876051
0.402750537565078,2204.33560876051
0.39286167463478,2204.34560876051
0.37992943042302,2204.35560876051
0.365519288854424,2204.36560876051
0.348627862276453,2204.37560876051
0.331189467950756,2204.38560876051
0.313240534135457,2204.39560876051
0.29473098844669,2204.40560876051
0.275124170302663,2204.41560876051
0.254234121653374,2204.42560876051
0.231769544898661,2204.43560876051
0.208811151969495,2204.44560876051
0.185599302760073,2204.45560876051
0.162339752168101,2204.46560876051
0.139133133403399,2204.47560876051
0.11661927199007,2204.48560876051
0.0947613050320397,2204.49560876051
0.0745459787941895,2204.50560876051
0.0556835739894084,2204.51560876051
0.038105256486625,2204.52560876051
0.0211285806668544,2204.53560876051
0.00525948406420438,2204.54560876051
-0.00938084115311476,2204.55560876051
-0.0227310772800442,2204.56560876051
-0.035444367198082,2204.57560876051
-0.0481273870955515,2204.58560876051
-0.0602513997026172,2204.59560876051
-0.0731802300680398,2204.60560876051
-0.086190497540148,2204.61560876051
-0.0988743604394044,2204.62560876051
-0.112026979783238,2204.63560876051
-0.125012987030334,2204.64560876051
-0.137397362877543,2204.65560876051
-0.148845876262171,2204.66560876051
-0.159282724159695,2204.67560876051
-0.169487614166301,2204.68560876051
-0.178433556171299,2204.69560876051
-0.186152360652552,2204.70560876051
-0.193527466731127,2204.71560876051
-0.200756219242872,2204.72560876051
-0.208308614892622,2204.73560876051
-0.216258440223939,2204.74560876051
-0.224274044133076,2204.75560876051
-0.232279411615149,2204.76560876051
-0.240326845582264,2204.77560876051
-0.248571610334077,2204.78560876051
-0.257863314977484,2204.79560876051
-0.266967457004212,2204.80560876051
-0.275931439982739,2204.81560876051
-0.280502760143854,2204.82560876051
-0.273723590760931,2204.83560876051
-0.240447644423428,2204.84560876051
-0.164071711739322,2204.85560876051
-0.0369946749234528,2204.86560876051
0.129081982207853,2204.87560876051
0.308244538904521,2204.88560876051
0.472437133916549,2204.89560876051
0.600857709222263,2204.90560876051
0.686619908575542,2204.91560876051
0.731995406157942,2204.92560876051
0.746767830133084,2204.93560876051
0.740533986238935,2204.94560876051
0.722486116500161,2204.95560876051
0.698967337767056,2204.96560876051
0.673566097566391,2204.97560876051
0.64772604572572,2204.98560876051
0.621607480213269,2204.99560876051
0.595442009943233,2205.00560876051
0.569553098672217,2205.01560876051
0.544099835932051,2205.02560876051
0.521320814112329,2205.03560876051
0.502030042031175,2205.04560876051
0.486485582664192,2205.05560876051
0.473894816155658,2205.06560876051
0.464050899911024,2205.07560876051
0.455436965459445,2205.08560876051
0.448019597038581,2205.09560876051
0.439901381643839,2205.10560876051
0.430078334780318,2205.11560876051
0.417798754025314,2205.12560876051
0.40225568206665,2205.13560876051
0.38360799784546,2205.14560876051
0.36362468216928,2205.15560876051
0.345262560266826,2205.16560876051
0.329657226091295,2205.17560876051
0.319795969891403,2205.18560876051
0.316342842810035,2205.19560876051
0.318695167402963,2205.20560876051
0.326535109683058,2205.21560876051
0.338204977415412,2205.22560876051
0.35110293643039,2205.23560876051
0.363477953036554,2205.24560876051
0.374005171269517,2205.25560876051
0.381441607557506,2205.26560876051
0.38452318649919,2205.27560876051
0.382494774567652,2205.28560876051
0.375939832178378,2205.29560876051
0.36510594318535,2205.30560876051
0.350592434128295,2205.31560876051
0.333613545506409,2205.32560876051
0.315096498741433,2205.33560876051
0.295945776862521,2205.34560876051
0.277309203075767,2205.35560876051
0.259167802006269,2205.36560876051
0.240773916070492,2205.37560876051
0.221687528139056,2205.38560876051
0.20215992125412,2205.39560876051
0.182338144176088,2205.40560876051
0.162280986527612,2205.41560876051
0.142425292092719,2205.42560876051
