PPG,time
1276.31182776603,2771.47737865778
2483.51128812036,2771.48737865778
2131.86656189891,2771.49737865778
2252.39985910208,2771.50737865778
2112.40448546936,2771.51737865778
2143.17093097307,2771.52737865778
2065.39045882617,2771.53737865778
2056.34523174801,2771.54737865778
2010.23096702302,2771.55737865778
1990.498165363,2771.56737865778
1954.9969049711,2771.57737865778
1933.59148645,2771.58737865778
1919.47340148882,2771.59737865778
1908.28693404131,2771.60737865778
1892.15815254765,2771.61737865778
1870.54542397331,2771.62737865778
1846.22733985932,2771.63737865778
1821.14397113223,2771.64737865778
1792.30067886717,2771.65737865778
1759.17696787291,2771.66737865778
1724.20053859606,2771.67737865778
1685.9154829754,2771.68737865778
1648.55474666635,2771.69737865778
1617.02765875857,2771.70737865778
1598.06370022973,2771.71737865778
1600.19846368289,2771.72737865778
1623.75686023136,2771.73737865778
1673.08081199779,2771.74737865778
1747.53450792191,2771.75737865778
1842.7219899331,2771.76737865778
1948.51810045207,2771.77737865778
2067.97258162404,2771.78737865778
2191.71837305908,2771.79737865778
2312.40046591707,2771.80737865778
2426.23258132583,2771.81737865778
2524.94394960537,2771.82737865778
2606.83033666154,2771.83737865778
2670.10993470558,2771.84737865778
2713.76603605253,2771.85737865778
2737.24980405861,2771.86737865778
2746.18852652326,2771.87737865778
2738.1898676244,2771.88737865778
2713.19013633877,2771.89737865778
2674.01673823862,2771.90737865778
2625.47382165679,2771.91737865778
2572.57920435341,2771.92737865778
2519.24873662773,2771.93737865778
2465.06965098608,2771.94737865778
2411.8304842433,2771.95737865778
2358.09512821201,2771.96737865778
2308.65662494055,2771.97737865778
2258.84235546716,2771.98737865778
2209.95915058744,2771.99737865778
2163.67734608599,2772.00737865778
2116.3865208083,2772.01737865778
2075.75920130891,2772.02737865778
2036.6481628799,2772.03737865778
2000.55516853678,2772.04737865778
1967.92947213734,2772.05737865778
1943.27703136981,2772.06737865778
1925.42116200067,2772.07737865778
1917.12497286038,2772.08737865778
1912.93071148922,2772.09737865778
1912.171781713,2772.10737865778
1917.36227202248,2772.11737865778
1925.98177148219,2772.12737865778
1938.59079654108,2772.13737865778
1948.03527379378,2772.14737865778
1955.54380518979,2772.15737865778
1960.15941336951,2772.16737865778
1956.93552040091,2772.17737865778
1948.66662650178,2772.18737865778
1941.54361772682,2772.19737865778
1932.76743925078,2772.20737865778
1922.75588696986,2772.21737865778
1912.06282470532,2772.22737865778
1895.68884290297,2772.23737865778
1876.1101744158,2772.24737865778
1855.93951141442,2772.25737865778
1837.72976611326,2772.26737865778
1820.41081646258,2772.27737865778
1805.32574901936,2772.28737865778
1787.56584109859,2772.29737865778
1771.1914787633,2772.30737865778
1757.79248414695,2772.31737865778
1749.69792453729,2772.32737865778
1743.18093397919,2772.33737865778
1732.27091179705,2772.34737865778
1724.43141858756,2772.35737865778
1713.45387466701,2772.36737865778
1709.63896750372,2772.37737865778
1710.724878045,2772.38737865778
1719.29968263229,2772.39737865778
1732.08874268947,2772.40737865778
1746.66552335919,2772.41737865778
1757.08474354181,2772.42737865778
1760.15034684943,2772.43737865778
1759.94988361655,2772.44737865778
1759.59925915531,2772.45737865778
1754.50065058516,2772.46737865778
1753.51285948793,2772.47737865778
1755.29569384553,2772.48737865778
1758.77210300702,2772.49737865778
1761.4301530414,2772.50737865778
1766.92899085453,2772.51737865778
1771.37195819877,2772.52737865778
1776.48904050799,2772.53737865778
1779.62514752686,2772.54737865778
1782.64555196931,2772.55737865778
1780.59466519114,2772.56737865778
1778.28611627374,2772.57737865778
1774.97112435851,2772.58737865778
1769.53449076201,2772.59737865778
1763.04314351381,2772.60737865778
1753.61121092015,2772.61737865778
1743.09847757901,2772.62737865778
1731.83993001159,2772.63737865778
1727.21195613197,2772.64737865778
1728.3356223167,2772.65737865778
1739.82740153963,2772.66737865778
1768.06431267974,2772.67737865778
1816.36819933243,2772.68737865778
1886.30362174169,2772.69737865778
1975.30738332331,2772.70737865778
2086.34514413068,2772.71737865778
2214.97612621233,2772.72737865778
2353.04697520855,2772.73737865778
2489.3380680338,2772.74737865778
2621.07951773315,2772.75737865778
2738.01578902172,2772.76737865778
2839.44846821515,2772.77737865778
2925.49294217146,2772.78737865778
2996.45985992087,2772.79737865778
3048.17560766013,2772.80737865778
3077.47796179176,2772.81737865778
3088.20994902816,2772.82737865778
3084.32485799252,2772.83737865778
3065.07309375204,2772.84737865778
3034.64616064295,2772.85737865778
2996.32110924604,2772.86737865778
2956.45021820758,2772.87737865778
2913.04747673326,2772.88737865778
2864.80756637952,2772.89737865778
2812.8627495766,2772.90737865778
2753.69011320179,2772.91737865778
2691.85618102224,2772.92737865778
2628.65434832489,2772.93737865778
2569.90311347976,2772.94737865778
2515.16898116012,2772.95737865778
2463.81725016439,2772.96737865778
2414.06366077179,2772.97737865778
2367.68651775577,2772.98737865778
2324.36540717788,2772.99737865778
2280.52517087538,2773.00737865778
2239.28429248873,2773.01737865778
2203.99241104306,2773.02737865778
2172.32459000199,2773.03737865778
2151.31052172805,2773.04737865778
2134.52740940175,2773.05737865778
2124.41908966429,2773.06737865778
2119.12315036039,2773.07737865778
2113.51873020292,2773.08737865778
2108.05324592179,2773.09737865778
2102.81261826038,2773.10737865778
2090.64390668257,2773.11737865778
2076.76150991523,2773.12737865778
2056.73716702443,2773.13737865778
2036.2328729417,2773.14737865778
2015.09299004126,2773.15737865778
1991.69954781958,2773.16737865778
1971.70295831287,2773.17737865778
1948.23448368531,2773.18737865778
1926.47918598676,2773.19737865778
1903.28358649972,2773.20737865778
1881.54721269342,2773.21737865778
1859.77913169533,2773.22737865778
1836.31980319921,2773.23737865778
1812.80189521305,2773.24737865778
1790.67518147,2773.25737865778
1772.6885478414,2773.26737865778
1755.94161288656,2773.27737865778
1741.42193393901,2773.28737865778
1725.9470939022,2773.29737865778
1713.80617071266,2773.30737865778
1702.41509786908,2773.31737865778
1693.37590521428,2773.32737865778
1687.16876185232,2773.33737865778
1682.19433423334,2773.34737865778
1675.50196220802,2773.35737865778
1671.06474645779,2773.36737865778
1662.95573670656,2773.37737865778
1655.55369238917,2773.38737865778
1650.29580249052,2773.39737865778
1644.53430744877,2773.40737865778
1639.88560578977,2773.41737865778
1632.88745343859,2773.42737865778
1626.43503925824,2773.43737865778
1617.76492411978,2773.44737865778
1609.78887950994,2773.45737865778
1603.9197317585,2773.46737865778
1599.56304972937,2773.47737865778
1595.63089235362,2773.48737865778
1589.35155797038,2773.49737865778
1578.44603668033,2773.50737865778
1562.80970547669,2773.51737865778
1543.74863304116,2773.52737865778
1529.07115860507,2773.53737865778
1519.76770657105,2773.54737865778
1512.59061566916,2773.55737865778
1508.74056736789,2773.56737865778
1507.58910289593,2773.57737865778
1508.9928144966,2773.58737865778
1519.88700084443,2773.59737865778
1541.48815862183,2773.60737865778
1579.37659317257,2773.61737865778
1641.84111771279,2773.62737865778
1732.5774050811,2773.63737865778
1840.25842802956,2773.64737865778
1966.71366578382,2773.65737865778
2093.13608924546,2773.66737865778
2203.57130850086,2773.67737865778
2312.25699932319,2773.68737865778
2408.89929354283,2773.69737865778
2493.53893680506,2773.70737865778
2563.13398930418,2773.71737865778
2617.25571710788,2773.72737865778
2654.36608881758,2773.73737865778
2676.42673237486,2773.74737865778
2682.91664647382,2773.75737865778
2681.70846727882,2773.76737865778
2671.5239555451,2773.77737865778
2649.57792425639,2773.78737865778
2619.57775802579,2773.79737865778
2582.37248482428,2773.80737865778
2543.43539377102,2773.81737865778
2503.97825720598,2773.82737865778
2467.74045631575,2773.83737865778
2434.98885671998,2773.84737865778
2401.98266969226,2773.85737865778
2368.78669816956,2773.86737865778
2336.05762110719,2773.87737865778
2302.61304896687,2773.88737865778
2272.22470474986,2773.89737865778
2243.56656177592,2773.90737865778
2219.92302219662,2773.91737865778
2202.67599150064,2773.92737865778
2192.79809571641,2773.93737865778
2188.01973278114,2773.94737865778
2187.90049570481,2773.95737865778
2191.72881030609,2773.96737865778
2198.33111451934,2773.97737865778
2203.39707357843,2773.98737865778
2207.40562774916,2773.99737865778
2206.65308136676,2774.00737865778
2203.17704057931,2774.01737865778
2193.06509907162,2774.02737865778
2180.72839131572,2774.03737865778
2170.57858157203,2774.04737865778
2158.85056292926,2774.05737865778
2145.3418604953,2774.06737865778
2130.0157503977,2774.07737865778
2109.42984037838,2774.08737865778
2085.60079327685,2774.09737865778
2063.67325201825,2774.10737865778
2044.78297032481,2774.11737865778
2027.67759031307,2774.12737865778
2010.14174152894,2774.13737865778
1995.07228141786,2774.14737865778
1982.66256864862,2774.15737865778
1972.52983662467,2774.16737865778
1962.3050022808,2774.17737865778
1951.5954690415,2774.18737865778
1939.21140499099,2774.19737865778
1926.72563840407,2774.20737865778
1916.29678775904,2774.21737865778
1905.64444488114,2774.22737865778
1894.7265610649,2774.23737865778
1885.07668383707,2774.24737865778
1875.47120510503,2774.25737865778
1866.16560845603,2774.26737865778
1857.58832296798,2774.27737865778
1847.60806849213,2774.28737865778
1838.32608146156,2774.29737865778
1829.73287001769,2774.30737865778
1823.81728722425,2774.31737865778
1818.63922751713,2774.32737865778
1813.4573869475,2774.33737865778
1803.48924216918,2774.34737865778
1793.42497182935,2774.35737865778
1785.30869244395,2774.36737865778
1776.45000258527,2774.37737865778
1768.74773060505,2774.38737865778
1762.78057185459,2774.39737865778
1757.54041030182,2774.40737865778
1751.27832285502,2774.41737865778
1745.13837550396,2774.42737865778
1740.07376334567,2774.43737865778
1733.41234342062,2774.44737865778
1730.1110429544,2774.45737865778
1729.46629271578,2774.46737865778
1734.63756831697,2774.47737865778
1751.75306808458,2774.48737865778
1783.64846366982,2774.49737865778
1834.30200534927,2774.50737865778
1902.9817709082,2774.51737865778
1984.80496161114,2774.52737865778
2079.04014214909,2774.53737865778
2181.96917922677,2774.54737865778
2289.03119018701,2774.55737865778
2395.06793418344,2774.56737865778
2493.64412366688,2774.57737865778
2588.30379010395,2774.58737865778
2669.62413478846,2774.59737865778
2733.95950902632,2774.60737865778
2779.89562156786,2774.61737865778
2807.52334858154,2774.62737865778
2818.62500636621,2774.63737865778
2820.89489502863,2774.64737865778
2812.96765365592,2774.65737865778
2796.04637045932,2774.66737865778
2773.69619468137,2774.67737865778
2745.74429409185,2774.68737865778
2712.37550240991,2774.69737865778
2678.1750056668,2774.70737865778
2642.60547291543,2774.71737865778
2605.97259948491,2774.72737865778
2563.81566778889,2774.73737865778
2519.58309466076,2774.74737865778
2475.53844653031,2774.75737865778
2432.16646453859,2774.76737865778
2390.2714295895,2774.77737865778
2348.74455201181,2774.78737865778
2310.77993727245,2774.79737865778
2275.15500622994,2774.80737865778
2240.37257982744,2774.81737865778
2209.49682996347,2774.82737865778
2182.42809749292,2774.83737865778
2159.69790698904,2774.84737865778
2138.80476255881,2774.85737865778
2122.81661716476,2774.86737865778
2112.24172304915,2774.87737865778
2103.53699682543,2774.88737865778
2098.52066616774,2774.89737865778
2096.2182935573,2774.90737865778
2094.24584776743,2774.91737865778
2090.85477784617,2774.92737865778
2088.55940608529,2774.93737865778
2083.63811378653,2774.94737865778
2078.65067204979,2774.95737865778
2069.74648065044,2774.96737865778
2062.16420143044,2774.97737865778
2053.2017259547,2774.98737865778
2039.25082878882,2774.99737865778
2024.88573767894,2775.00737865778
2007.54401087191,2775.01737865778
1990.36924692003,2775.02737865778
1974.41852807156,2775.03737865778
1960.01443598808,2775.04737865778
1946.14866431369,2775.05737865778
1930.44380362354,2775.06737865778
1915.95845687164,2775.07737865778
1902.62323125408,2775.08737865778
1891.42140911687,2775.09737865778
1883.11856325374,2775.10737865778
1873.67184511197,2775.11737865778
1861.24147451965,2775.12737865778
1846.97136609349,2775.13737865778
1833.68926456765,2775.14737865778
1823.06647084965,2775.15737865778
1808.36090668181,2775.16737865778
1794.61775487813,2775.17737865778
1782.78635297067,2775.18737865778
1771.33519645598,2775.19737865778
1763.13167647181,2775.20737865778
1755.71145600206,2775.21737865778
1750.05568537904,2775.22737865778
1744.86916887351,2775.23737865778
1738.97513603641,2775.24737865778
1733.91276958565,2775.25737865778
1726.70729190303,2775.26737865778
1719.52402489782,2775.27737865778
1708.75486784618,2775.28737865778
1702.22746898785,2775.29737865778
1696.02503144383,2775.30737865778
1689.91301000658,2775.31737865778
1683.36714860217,2775.32737865778
1675.12233215814,2775.33737865778
1667.26163138445,2775.34737865778
1660.73370642103,2775.35737865778
1653.8517448214,2775.36737865778
1647.96204651838,2775.37737865778
1641.3092592542,2775.38737865778
1632.58608982996,2775.39737865778
1622.17322626177,2775.40737865778
1611.4991948645,2775.41737865778
1599.39254816836,2775.42737865778
1590.54122179289,2775.43737865778
1589.3304519415,2775.44737865778
1594.8226347194,2775.45737865778
1609.3571753232,2775.46737865778
1635.80966288922,2775.47737865778
1679.22196932098,2775.48737865778
1743.63500439899,2775.49737865778
1826.99589656572,2775.50737865778
1924.55634682361,2775.51737865778
2032.97065297952,2775.52737865778
2143.714516246,2775.53737865778
2254.02220159368,2775.54737865778
2358.56488572434,2775.55737865778
2453.91504497261,2775.56737865778
2539.94636629537,2775.57737865778
2611.05653274664,2775.58737865778
2669.30989115958,2775.59737865778
2709.70491632904,2775.60737865778
2729.18581650994,2775.61737865778
2732.92769320491,2775.62737865778
2726.68683077236,2775.63737865778
2711.58214365089,2775.64737865778
2692.55787814395,2775.65737865778
2669.39482096899,2775.66737865778
2640.77103154046,2775.67737865778
2608.49011557841,2775.68737865778
2568.65879131339,2775.69737865778
2529.3847571797,2775.70737865778
2492.50283287143,2775.71737865778
2456.28938631183,2775.72737865778
2422.15972283663,2775.73737865778
2386.25258984665,2775.74737865778
2351.10227723431,2775.75737865778
2317.99643683907,2775.76737865778
2286.27759048629,2775.77737865778
2256.40057479634,2775.78737865778
2229.0010594612,2775.79737865778
2206.88777815041,2775.80737865778
2190.13515252131,2775.81737865778
2173.30051815704,2775.82737865778
2157.85687401471,2775.83737865778
2145.91803041626,2775.84737865778
2137.84812466126,2775.85737865778
2129.87581385181,2775.86737865778
2124.93655366556,2775.87737865778
2117.37180299262,2775.88737865778
2109.70468223594,2775.89737865778
2097.70972866201,2775.90737865778
2084.77856605755,2775.91737865778
2071.2648605025,2775.92737865778
2056.55347959428,2775.93737865778
2040.24465959454,2775.94737865778
2021.91098294113,2775.95737865778
2004.67571105712,2775.96737865778
1990.04249330284,2775.97737865778
1974.47184207434,2775.98737865778
1958.47116481024,2775.99737865778
1940.2102618397,2776.00737865778
1919.91203754547,2776.01737865778
1900.0458697619,2776.02737865778
1879.98743594126,2776.03737865778
1861.54032731757,2776.04737865778
1842.27547364566,2776.05737865778
1822.66695977995,2776.06737865778
1802.70343760841,2776.07737865778
1783.89906506535,2776.08737865778
1763.44299328181,2776.09737865778
1747.31230711581,2776.10737865778
1735.05414010701,2776.11737865778
1729.80087950518,2776.12737865778
1732.84701854229,2776.13737865778
1741.87946797283,2776.14737865778
1749.63649427516,2776.15737865778
1756.31516601557,2776.16737865778
1759.74219858797,2776.17737865778
1760.11590561421,2776.18737865778
1759.83835002261,2776.19737865778
1761.89829107858,2776.20737865778
1761.2884019272,2776.21737865778
1761.60226454961,2776.22737865778
1761.97609988143,2776.23737865778
1762.75587825994,2776.24737865778
1763.57080871235,2776.25737865778
1761.21578039839,2776.26737865778
1756.03007262416,2776.27737865778
1750.37663413637,2776.28737865778
1746.75089013855,2776.29737865778
1744.13188082231,2776.30737865778
1744.04458174597,2776.31737865778
1742.36565163878,2776.32737865778
1743.48197220658,2776.33737865778
1744.36213835116,2776.34737865778
1742.71569058786,2776.35737865778
1736.97600375098,2776.36737865778
1729.20409593901,2776.37737865778
1722.88078855361,2776.38737865778
1716.7822784261,2776.39737865778
1711.49545779844,2776.40737865778
1707.50986545669,2776.41737865778
1703.65290129804,2776.42737865778
1697.15077130456,2776.43737865778
1689.57345277145,2776.44737865778
1683.78486892682,2776.45737865778
1681.29138839741,2776.46737865778
1688.29917024441,2776.47737865778
1704.51348054264,2776.48737865778
1732.02401786086,2776.49737865778
1770.24196074569,2776.50737865778
1824.16621550585,2776.51737865778
1891.52699431674,2776.52737865778
1976.54264707632,2776.53737865778
2069.92793782059,2776.54737865778
2168.67886590979,2776.55737865778
2266.15744035292,2776.56737865778
2355.61806169899,2776.57737865778
2438.26162171877,2776.58737865778
2509.3600388308,2776.59737865778
2566.09827810123,2776.60737865778
2607.14407644203,2776.61737865778
2629.76711981903,2776.62737865778
2635.54888730171,2776.63737865778
2624.09078955657,2776.64737865778
2601.76176812422,2776.65737865778
2572.03146042705,2776.66737865778
2539.01922955093,2776.67737865778
2504.79462167126,2776.68737865778
2468.40230144372,2776.69737865778
2430.61018741931,2776.70737865778
2390.17914045914,2776.71737865778
2345.87614668853,2776.72737865778
2300.74456625409,2776.73737865778
2257.69372145105,2776.74737865778
2218.01635572035,2776.75737865778
2176.81247044034,2776.76737865778
2138.61679168028,2776.77737865778
2102.28332693678,2776.78737865778
2069.46010989007,2776.79737865778
2040.41480692002,2776.80737865778
2015.9963360584,2776.81737865778
1998.04676917142,2776.82737865778
1984.53519275007,2776.83737865778
1974.9230226778,2776.84737865778
1967.69535222514,2776.85737865778
1962.45634411766,2776.86737865778
1960.21569693027,2776.87737865778
1958.35677923718,2776.88737865778
1957.33844556848,2776.89737865778
1955.25137458724,2776.90737865778
1953.34196088219,2776.91737865778
1947.65515779924,2776.92737865778
1937.86287071029,2776.93737865778
1926.22922703147,2776.94737865778
1914.04103921436,2776.95737865778
1902.69436669581,2776.96737865778
1895.04815381843,2776.97737865778
1892.6288854928,2776.98737865778
1888.92869582987,2776.99737865778
1881.8876136753,2777.00737865778
1873.81422892373,2777.01737865778
1864.39252751887,2777.02737865778
1853.42428576939,2777.03737865778
1845.23101492641,2777.04737865778
1835.02613515605,2777.05737865778
1824.19381208192,2777.06737865778
1813.65455588936,2777.07737865778
1806.00306541707,2777.08737865778
1797.21771632588,2777.09737865778
1789.05376961301,2777.10737865778
1781.79562737977,2777.11737865778
1779.46304805638,2777.12737865778
1779.89540261749,2777.13737865778
1781.99430066899,2777.14737865778
1784.2215574624,2777.15737865778
1786.34958825117,2777.16737865778
1785.74223713461,2777.17737865778
1786.29025027349,2777.18737865778
1785.17761272668,2777.19737865778
1784.01962983969,2777.20737865778
1783.43702348734,2777.21737865778
1781.23798396893,2777.22737865778
1776.14584919726,2777.23737865778
1770.86973792255,2777.24737865778
1763.32205295915,2777.25737865778
1758.27075933824,2777.26737865778
1755.74332546979,2777.27737865778
1756.69064415259,2777.28737865778
1758.1655760239,2777.29737865778
1756.21680011704,2777.30737865778
1755.9673386496,2777.31737865778
1755.8819770706,2777.32737865778
1757.63875857321,2777.33737865778
1757.839011251,2777.34737865778
1758.51540990298,2777.35737865778
1760.00448009962,2777.36737865778
1760.12927307567,2777.37737865778
1765.33234848917,2777.38737865778
1777.85519295487,2777.39737865778
1802.57651679616,2777.40737865778
1840.379849785,2777.41737865778
1892.55045073696,2777.42737865778
1957.20139151993,2777.43737865778
2033.8254818138,2777.44737865778
2123.44849322916,2777.45737865778
2219.80818891462,2777.46737865778
2313.32875245852,2777.47737865778
2403.39772777482,2777.48737865778
2483.84754260042,2777.49737865778
2552.08154704215,2777.50737865778
2607.05245750486,2777.51737865778
2647.03657396799,2777.52737865778
2676.13232903702,2777.53737865778
2691.97493030094,2777.54737865778
2694.34970661735,2777.55737865778
2690.23127600586,2777.56737865778
2674.0256743999,2777.57737865778
2647.55482206781,2777.58737865778
2615.54007944063,2777.59737865778
2582.5953379832,2777.60737865778
2550.07996973759,2777.61737865778
2517.181435906,2777.62737865778
2484.76142658801,2777.63737865778
2449.62343459797,2777.64737865778
2414.39537972532,2777.65737865778
2378.28905688064,2777.66737865778
2344.45909889637,2777.67737865778
2313.83718488177,2777.68737865778
2288.07398419832,2777.69737865778
2262.9290210761,2777.70737865778
2243.35925387832,2777.71737865778
2227.53760763892,2777.72737865778
2211.36487757836,2777.73737865778
2201.39849360456,2777.74737865778
2197.33979033395,2777.75737865778
2198.78547394025,2777.76737865778
2200.63531554795,2777.77737865778
2202.19744665538,2777.78737865778
2200.2289206493,2777.79737865778
2198.40769078573,2777.80737865778
2194.17741760143,2777.81737865778
2187.26159809177,2777.82737865778
2179.23949558583,2777.83737865778
2171.2122957831,2777.84737865778
2161.70906122547,2777.85737865778
2150.90075650703,2777.86737865778
2137.20741924532,2777.87737865778
2123.04046550623,2777.88737865778
2109.2707127935,2777.89737865778
2094.46462228174,2777.90737865778
2076.42440724639,2777.91737865778
2055.56242813287,2777.92737865778
2032.55509945554,2777.93737865778
2013.43981409196,2777.94737865778
1997.00786409296,2777.95737865778
1985.34669551441,2777.96737865778
1975.92388546868,2777.97737865778
1965.70508454557,2777.98737865778
1956.29611830748,2777.99737865778
1945.61516107403,2778.00737865778
1936.31810828431,2778.01737865778
1927.63348642258,2778.02737865778
1922.02116553235,2778.03737865778
1915.34415837053,2778.04737865778
1906.94174923601,2778.05737865778
1903.63552587058,2778.06737865778
1902.60836417431,2778.07737865778
1901.18183407826,2778.08737865778
1897.76788523658,2778.09737865778
1891.83201768012,2778.10737865778
1887.60387874919,2778.11737865778
1881.92563363148,2778.12737865778
1877.56062886753,2778.13737865778
1873.5278328745,2778.14737865778
1870.20506493185,2778.15737865778
1866.31186471006,2778.16737865778
1860.67731322611,2778.17737865778
1857.23463872784,2778.18737865778
1855.25673796344,2778.19737865778
1851.845310108,2778.20737865778
1848.40010261682,2778.21737865778
1843.82591120297,2778.22737865778
1838.29450242,2778.23737865778
1830.73111822961,2778.24737865778
1824.87890674157,2778.25737865778
1819.41235631786,2778.26737865778
1815.60197736454,2778.27737865778
1811.52169644125,2778.28737865778
1807.39783372303,2778.29737865778
1804.06415766922,2778.30737865778
1801.68725222672,2778.31737865778
1798.60962428959,2778.32737865778
1798.87569751125,2778.33737865778
1808.86480717747,2778.34737865778
1829.32275841523,2778.35737865778
1864.22619188858,2778.36737865778
1920.10411643502,2778.37737865778
1986.54188709263,2778.38737865778
2073.32029535431,2778.39737865778
2191.51593384546,2778.40737865778
2317.70447019645,2778.41737865778
2442.87801392036,2778.42737865778
2560.53758738073,2778.43737865778
2670.05859306223,2778.44737865778
2765.1385124231,2778.45737865778
2846.76103729607,2778.46737865778
2906.2236068281,2778.47737865778
2945.43103510026,2778.48737865778
2958.59664012712,2778.49737865778
2951.98367145861,2778.50737865778
2931.09043694588,2778.51737865778
2900.58200049906,2778.52737865778
2870.39291442756,2778.53737865778
2839.15555605463,2778.54737865778
2806.53016846561,2778.55737865778
2770.99848300763,2778.56737865778
2731.22908570058,2778.57737865778
2687.89588399789,2778.58737865778
2640.26727055081,2778.59737865778
2598.94959581553,2778.60737865778
2561.12439592711,2778.61737865778
2528.40948168523,2778.62737865778
2498.3378816425,2778.63737865778
2475.50866438854,2778.64737865778
2453.79051070867,2778.65737865778
2432.34438438186,2778.66737865778
2413.08503786125,2778.67737865778
2394.52112028337,2778.68737865778
2378.55248573686,2778.69737865778
2365.84521841603,2778.70737865778
2352.12441377263,2778.71737865778
2343.54654567292,2778.72737865778
2332.58861191915,2778.73737865778
2319.10938020994,2778.74737865778
2310.0277038941,2778.75737865778
2302.63312017023,2778.76737865778
2297.42280845881,2778.77737865778
2288.94363073909,2778.78737865778
2280.14608679921,2778.79737865778
2269.16110466378,2778.80737865778
2253.77407619537,2778.81737865778
2237.83629165276,2778.82737865778
2219.01157996035,2778.83737865778
2202.47478547228,2778.84737865778
2181.66308090222,2778.85737865778
2161.25244945602,2778.86737865778
2137.84435718959,2778.87737865778
2113.26695658938,2778.88737865778
2093.02707374569,2778.89737865778
2072.94818057303,2778.90737865778
2051.49619020932,2778.91737865778
2027.79698570226,2778.92737865778
2001.60755742312,2778.93737865778
1978.49167395253,2778.94737865778
1956.16528021322,2778.95737865778
1937.65865615484,2778.96737865778
1917.97881241884,2778.97737865778
1898.11782068432,2778.98737865778
1877.24842290302,2778.99737865778
1855.87468240535,2779.00737865778
1833.49696349742,2779.01737865778
1813.54514144928,2779.02737865778
1799.46371138488,2779.03737865778
1787.11029047864,2779.04737865778
1775.30014247866,2779.05737865778
1765.71252717954,2779.06737865778
1756.897615051,2779.07737865778
1744.78416207766,2779.08737865778
1731.09045792834,2779.09737865778
1718.77525216832,2779.10737865778
1705.05278989124,2779.11737865778
1693.10404931025,2779.12737865778
1681.77934369178,2779.13737865778
1674.56768152928,2779.14737865778
1669.6805783681,2779.15737865778
1661.37083267704,2779.16737865778
1653.07116909199,2779.17737865778
1647.05031550651,2779.18737865778
1642.25486122281,2779.19737865778
1635.13153787847,2779.20737865778
1627.6474514286,2779.21737865778
1620.06509140552,2779.22737865778
1612.70645911643,2779.23737865778
1607.18285200048,2779.24737865778
1602.1013819979,2779.25737865778
1599.72736058836,2779.26737865778
1599.57925719912,2779.27737865778
1593.78133413403,2779.28737865778
1583.7823452921,2779.29737865778
1576.77372676205,2779.30737865778
1572.82927466678,2779.31737865778
1571.63100459275,2779.32737865778
1579.46845138164,2779.33737865778
1598.9321775203,2779.34737865778
1634.00508513414,2779.35737865778
1685.37679591746,2779.36737865778
1751.00057729758,2779.37737865778
1834.40859293125,2779.38737865778
1934.21432538385,2779.39737865778
2044.24415668834,2779.40737865778
2161.9473712193,2779.41737865778
2279.12704379261,2779.42737865778
2386.19925253076,2779.43737865778
2484.93325566107,2779.44737865778
2567.22297609504,2779.45737865778
2634.32407281491,2779.46737865778
2690.23377984392,2779.47737865778
2728.23100367725,2779.48737865778
2749.78966582711,2779.49737865778
2758.70476912201,2779.50737865778
2752.01978199783,2779.51737865778
2735.96753874069,2779.52737865778
2709.94831226824,2779.53737865778
2680.19289732342,2779.54737865778
2650.13914008207,2779.55737865778
2617.71837439474,2779.56737865778
2586.3384769274,2779.57737865778
2551.93843032779,2779.58737865778
2514.84045741506,2779.59737865778
2478.95683035283,2779.60737865778
2445.21783961948,2779.61737865778
2414.82637777525,2779.62737865778
2387.41182892082,2779.63737865778
2362.93780190219,2779.64737865778
2337.39325822329,2779.65737865778
2313.57991835947,2779.66737865778
2287.97083438217,2779.67737865778
2263.36622662319,2779.68737865778
2242.18854853444,2779.69737865778
2225.34396679651,2779.70737865778
2212.84965369015,2779.71737865778
2204.44294387437,2779.72737865778
2194.93793584917,2779.73737865778
2185.37325393059,2779.74737865778
2171.49575861029,2779.75737865778
2152.58445717894,2779.76737865778
2130.60020112628,2779.77737865778
2107.06418863926,2779.78737865778
2085.01729665716,2779.79737865778
2065.53512006831,2779.80737865778
2052.8267321138,2779.81737865778
2042.93828503382,2779.82737865778
2035.35038069939,2779.83737865778
2024.13536833833,2779.84737865778
2007.79814981515,2779.85737865778
1990.29691956987,2779.86737865778
1973.68115967661,2779.87737865778
1959.13244484423,2779.88737865778
1952.18177738464,2779.89737865778
1946.56099429371,2779.90737865778
1939.6464468012,2779.91737865778
1933.99524711316,2779.92737865778
1923.95286739574,2779.93737865778
1913.53653016427,2779.94737865778
1898.67019639965,2779.95737865778
1883.92320066073,2779.96737865778
1867.8228487563,2779.97737865778
1852.66448328724,2779.98737865778
1842.83222520737,2779.99737865778
1833.97673597774,2780.00737865778
1826.57642687544,2780.01737865778
1818.01247288017,2780.02737865778
1807.36907412874,2780.03737865778
1800.09441635766,2780.04737865778
1790.60703760902,2780.05737865778
1782.47479717888,2780.06737865778
1774.03786390737,2780.07737865778
1769.74724371955,2780.08737865778
1764.73183565667,2780.09737865778
1759.7255249648,2780.10737865778
1757.61429371245,2780.11737865778
1758.41115839686,2780.12737865778
1756.77745520709,2780.13737865778
1754.5663235898,2780.14737865778
1747.07975047399,2780.15737865778
1739.52154862262,2780.16737865778
1732.87159180877,2780.17737865778
1729.413564787,2780.18737865778
1728.85040746833,2780.19737865778
1726.69140659135,2780.20737865778
1722.70025426328,2780.21737865778
1713.31739675956,2780.22737865778
1702.34789068594,2780.23737865778
1695.08793061719,2780.24737865778
1690.10618587707,2780.25737865778
1692.5099843684,2780.26737865778
1694.62833056688,2780.27737865778
1697.50581960891,2780.28737865778
1697.95996296862,2780.29737865778
1697.89963134811,2780.30737865778
1695.34743077128,2780.31737865778
1693.11357067235,2780.32737865778
1692.97923791911,2780.33737865778
1701.47372879586,2780.34737865778
1719.19753302155,2780.35737865778
1744.28741051224,2780.36737865778
1784.36219772997,2780.37737865778
1836.00069837231,2780.38737865778
1907.51756937877,2780.39737865778
1995.69138665841,2780.40737865778
2095.43306434317,2780.41737865778
2204.4461398689,2780.42737865778
2316.45246745121,2780.43737865778
2420.64768176608,2780.44737865778
2517.07193536677,2780.45737865778
2603.62590198396,2780.46737865778
2675.47056093003,2780.47737865778
2732.53822467336,2780.48737865778
2769.30434052258,2780.49737865778
2790.14431804356,2780.50737865778
2796.33443326695,2780.51737865778
2790.47459513135,2780.52737865778
2770.91074767331,2780.53737865778
2743.65508964603,2780.54737865778
2712.36125297395,2780.55737865778
2679.49366860269,2780.56737865778
2646.81175865625,2780.57737865778
2611.64110944513,2780.58737865778
2574.7858298394,2780.59737865778
2534.5861659409,2780.60737865778
2491.51651011884,2780.61737865778
2448.05750106567,2780.62737865778
2399.22747511201,2780.63737865778
2354.19041496697,2780.64737865778
2306.93550244446,2780.65737865778
2260.17362867692,2780.66737865778
2219.06206257329,2780.67737865778
2178.7011920589,2780.68737865778
2141.56850408086,2780.69737865778
2106.60964224692,2780.70737865778
2075.20040018116,2780.71737865778
2050.17534457561,2780.72737865778
2023.11838923423,2780.73737865778
1998.40423075119,2780.74737865778
1979.38133241342,2780.75737865778
1957.83403600573,2780.76737865778
1938.09949119514,2780.77737865778
1917.81498953794,2780.78737865778
1898.85914440194,2780.79737865778
1879.87859398774,2780.80737865778
1863.22170066268,2780.81737865778
1845.26020382448,2780.82737865778
1827.17321567433,2780.83737865778
1808.66449681898,2780.84737865778
1781.05990837795,2780.85737865778
1751.27517850577,2780.86737865778
1717.31705353829,2780.87737865778
1683.14786718092,2780.88737865778
1653.53655074716,2780.89737865778
1629.12398811816,2780.90737865778
1608.87918188256,2780.91737865778
1585.08757301794,2780.92737865778
1562.78740263156,2780.93737865778
1540.70420512015,2780.94737865778
1521.30616017453,2780.95737865778
1507.00155767831,2780.96737865778
1493.13638951437,2780.97737865778
1476.41121093159,2780.98737865778
1461.06424663293,2780.99737865778
1451.12959631785,2781.00737865778
1438.26649142034,2781.01737865778
1425.81613541524,2781.02737865778
1412.78903370505,2781.03737865778
1398.43880652357,2781.04737865778
1389.97305703406,2781.05737865778
1385.45707071924,2781.06737865778
1382.1108764364,2781.07737865778
1383.05945910586,2781.08737865778
1384.23404100192,2781.09737865778
1381.51284626546,2781.10737865778
1387.00118248833,2781.11737865778
1391.28648957367,2781.12737865778
1400.86467528433,2781.13737865778
1410.98519685625,2781.14737865778
1418.51731390127,2781.15737865778
1430.11862905229,2781.16737865778
1444.52468954703,2781.17737865778
1460.567104133,2781.18737865778
1478.98021450379,2781.19737865778
1501.20562250183,2781.20737865778
1525.56755792574,2781.21737865778
1548.32864688886,2781.22737865778
1566.96515641753,2781.23737865778
1583.56921623563,2781.24737865778
1597.10464242224,2781.25737865778
1613.58357704413,2781.26737865778
1629.22987274055,2781.27737865778
1653.14997659785,2781.28737865778
1683.19292299547,2781.29737865778
1733.61164774588,2781.30737865778
1797.60729602299,2781.31737865778
1882.72483007825,2781.32737865778
1987.63489459132,2781.33737865778
2115.3895944924,2781.34737865778
2257.2926020987,2781.35737865778
2403.22875571185,2781.36737865778
2538.89118753581,2781.37737865778
2666.44860031946,2781.38737865778
2781.45140639436,2781.39737865778
2879.00182607774,2781.40737865778
2957.03351353791,2781.41737865778
3010.5993588421,2781.42737865778
3037.67578934845,2781.43737865778
3040.43537001778,2781.44737865778
3020.14970794786,2781.45737865778
2981.90239409081,2781.46737865778
2931.77122380814,2781.47737865778
2870.11306648354,2781.48737865778
2799.78060675405,2781.49737865778
2716.91389133227,2781.50737865778
2628.06988850477,2781.51737865778
2538.669887484,2781.52737865778
2454.08939141511,2781.53737865778
2374.04602708168,2781.54737865778
2292.08720861775,2781.55737865778
2215.26244565266,2781.56737865778
2139.00663926163,2781.57737865778
2067.3126471817,2781.58737865778
2001.84811088241,2781.59737865778
1943.48321911713,2781.60737865778
1897.30718233827,2781.61737865778
1858.69962449664,2781.62737865778
1830.36565671504,2781.63737865778
1813.55279434678,2781.64737865778
1810.45904720529,2781.65737865778
1816.53946475231,2781.66737865778
1827.09754500603,2781.67737865778
1838.93383044696,2781.68737865778
1849.06742289694,2781.69737865778
1857.98781204,2781.70737865778
1864.99344567309,2781.71737865778
1868.58905258874,2781.72737865778
1869.84365571518,2781.73737865778
1875.59283736866,2781.74737865778
1884.56877488717,2781.75737865778
1896.28302378396,2781.76737865778
1907.20870420549,2781.77737865778
1912.10401599627,2781.78737865778
1919.82313005697,2781.79737865778
1927.05486406317,2781.80737865778
1933.69502452798,2781.81737865778
1944.31261573003,2781.82737865778
1955.18476244523,2781.83737865778
1964.21358062018,2781.84737865778
1972.84244675573,2781.85737865778
1985.66725155423,2781.86737865778
2000.37724016941,2781.87737865778
2020.74264271968,2781.88737865778
2048.85788485387,2781.89737865778
2074.48680299532,2781.90737865778
2097.61225849708,2781.91737865778
2115.74848001967,2781.92737865778
2134.57412992087,2781.93737865778
2156.95974264582,2781.94737865778
2180.23873482733,2781.95737865778
2197.59928363987,2781.96737865778
2209.1482003476,2781.97737865778
2218.43999615897,2781.98737865778
2221.57347221868,2781.99737865778
2221.79135838458,2782.00737865778
2210.91695938834,2782.01737865778
2194.41981893748,2782.02737865778
2180.72050621359,2782.03737865778
2169.19761639386,2782.04737865778
2155.54659940507,2782.05737865778
2142.76896754564,2782.06737865778
2129.95730864685,2782.07737865778
2113.06911527384,2782.08737865778
2095.36960259411,2782.09737865778
2077.04131450209,2782.10737865778
2059.44419959478,2782.11737865778
2040.03217429797,2782.12737865778
2013.58762231885,2782.13737865778
1993.09586982492,2782.14737865778
1972.66483422071,2782.15737865778
1956.58240834421,2782.16737865778
1942.24106417173,2782.17737865778
1933.00664015521,2782.18737865778
1927.44723816002,2782.19737865778
1922.24120241734,2782.20737865778
1918.83494199492,2782.21737865778
1908.96831854671,2782.22737865778
1893.55102047949,2782.23737865778
1876.53244420923,2782.24737865778
1856.23838049905,2782.25737865778
1832.37690810827,2782.26737865778
1810.92530776482,2782.27737865778
1789.6606110276,2782.28737865778
1770.44493980291,2782.29737865778
1764.66485552191,2782.30737865778
1773.94315298513,2782.31737865778
1805.78184440727,2782.32737865778
1863.67394482796,2782.33737865778
1943.64766883153,2782.34737865778
2049.64407402433,2782.35737865778
2179.20370136715,2782.36737865778
2325.16367167707,2782.37737865778
2477.19868216947,2782.38737865778
2628.72046137916,2782.39737865778
2772.3191610009,2782.40737865778
2907.50871007457,2782.41737865778
3028.67769065733,2782.42737865778
3124.48519679375,2782.43737865778
3197.3922312296,2782.44737865778
3251.80770223357,2782.45737865778
3283.22000948089,2782.46737865778
3296.33644270242,2782.47737865778
3294.66548177832,2782.48737865778
3280.00894267704,2782.49737865778
3255.66489392022,2782.50737865778
3224.95086462321,2782.51737865778
3193.8117208226,2782.52737865778
3165.25765040592,2782.53737865778
3137.30818768834,2782.54737865778
3104.58258595089,2782.55737865778
3070.80848501282,2782.56737865778
3031.05114060091,2782.57737865778
2990.44239750094,2782.58737865778
2945.60352689113,2782.59737865778
2902.38707520107,2782.60737865778
2866.59708864948,2782.61737865778
2829.98693093043,2782.62737865778
2793.82278039417,2782.63737865778
2762.68203829532,2782.64737865778
2730.88051330797,2782.65737865778
2697.92284175227,2782.66737865778
2664.7902583517,2782.67737865778
2630.28195238834,2782.68737865778
2605.31617508651,2782.69737865778
2584.81636970044,2782.70737865778
2568.14088805515,2782.71737865778
2555.68733241149,2782.72737865778
2543.83200557665,2782.73737865778
2529.27697035682,2782.74737865778
2509.53671946459,2782.75737865778
2494.27843094252,2782.76737865778
2478.58309264035,2782.77737865778
2456.74506893852,2782.78737865778
2432.617232856,2782.79737865778
2406.14501551641,2782.80737865778
2379.10245384974,2782.81737865778
2352.00433294751,2782.82737865778
2330.07052293654,2782.83737865778
2309.02567662492,2782.84737865778
2286.78036607269,2782.85737865778
2264.06943585164,2782.86737865778
2236.05623312611,2782.87737865778
2206.07123076657,2782.88737865778
2178.18168453766,2782.89737865778
2147.90815144622,2782.90737865778
2120.93112554241,2782.91737865778
2092.58944079393,2782.92737865778
2067.08241988354,2782.93737865778
2043.15867752608,2782.94737865778
2023.02396253809,2782.95737865778
2001.21064059416,2782.96737865778
1986.01369547882,2782.97737865778
1965.24770370033,2782.98737865778
1946.24182537366,2782.99737865778
1922.14025260225,2783.00737865778
1898.58898393605,2783.01737865778
1876.40096547219,2783.02737865778
1857.75484246246,2783.03737865778
1842.64657772682,2783.04737865778
1824.01913263575,2783.05737865778
1803.13898010216,2783.06737865778
1782.90985852681,2783.07737865778
1765.38010453825,2783.08737865778
1749.33101092211,2783.09737865778
1731.0748777553,2783.10737865778
1713.3056140669,2783.11737865778
1697.38268606523,2783.12737865778
1683.75271879514,2783.13737865778
1669.34355753527,2783.14737865778
1658.35239666821,2783.15737865778
1643.5758279816,2783.16737865778
1629.73930690046,2783.17737865778
1617.50432461463,2783.18737865778
1610.00121378681,2783.19737865778
1607.60458426875,2783.20737865778
1603.79201396822,2783.21737865778
1598.42643693103,2783.22737865778
1592.63913310927,2783.23737865778
1587.45044641226,2783.24737865778
1579.9224052452,2783.25737865778
1577.7191222894,2783.26737865778
1576.71576475822,2783.27737865778
1577.20641112499,2783.28737865778
1573.75441392249,2783.29737865778
1566.95438756708,2783.30737865778
1562.64548319948,2783.31737865778
1555.84523787574,2783.32737865778
1551.85693083091,2783.33737865778
1545.31850418783,2783.34737865778
1534.69746434147,2783.35737865778
1526.99337792494,2783.36737865778
1522.14011639924,2783.37737865778
1523.66462540228,2783.38737865778
1537.7374167926,2783.39737865778
1566.09939041332,2783.40737865778
1612.47116708806,2783.41737865778
1680.79770635355,2783.42737865778
1775.71856423101,2783.43737865778
1892.36765635969,2783.44737865778
2024.04171034133,2783.45737865778
2164.04815035662,2783.46737865778
2305.64128677203,2783.47737865778
2435.40172820675,2783.48737865778
2553.52121347103,2783.49737865778
2658.33304183325,2783.50737865778
2744.11741604986,2783.51737865778
2811.22094333067,2783.52737865778
2860.57971291846,2783.53737865778
2893.32309723928,2783.54737865778
2906.16380132444,2783.55737865778
2904.82513225367,2783.56737865778
2889.08173904897,2783.57737865778
2863.82831049349,2783.58737865778
2834.3843409957,2783.59737865778
2803.34943049503,2783.60737865778
2772.1235578569,2783.61737865778
2742.09891873672,2783.62737865778
2711.89929425235,2783.63737865778
2678.2287946036,2783.64737865778
2650.50711851081,2783.65737865778
2624.09879401931,2783.66737865778
2601.94665999974,2783.67737865778
2578.65845673693,2783.68737865778
2549.98773421429,2783.69737865778
2521.51930640584,2783.70737865778
2484.99056853881,2783.71737865778
2455.2566761854,2783.72737865778
2429.20484836615,2783.73737865778
2406.6790055185,2783.74737865778
2387.72189840562,2783.75737865778
2376.9045977235,2783.76737865778
2366.73235827828,2783.77737865778
2356.36832015237,2783.78737865778
2348.87349272534,2783.79737865778
2340.55656732756,2783.80737865778
2332.94514939025,2783.81737865778
2325.58111265573,2783.82737865778
2310.65174406809,2783.83737865778
2291.29467613104,2783.84737865778
2269.95694886177,2783.85737865778
2245.45852172556,2783.86737865778
2221.7397026957,2783.87737865778
2195.17739441355,2783.88737865778
2175.08798058521,2783.89737865778
2154.88858085929,2783.90737865778
2132.77648696677,2783.91737865778
2108.43212962686,2783.92737865778
2084.82889227438,2783.93737865778
2057.16237046746,2783.94737865778
2032.41083428615,2783.95737865778
2013.48306602449,2783.96737865778
1994.08532961801,2783.97737865778
1976.33197213915,2783.98737865778
1960.25548557461,2783.99737865778
1942.89842992941,2784.00737865778
1926.19419772689,2784.01737865778
1908.21374987719,2784.02737865778
1887.7275765318,2784.03737865778
1869.00728349687,2784.04737865778
1851.92442630843,2784.05737865778
1838.3926021835,2784.06737865778
1827.10347378573,2784.07737865778
1809.03101187499,2784.08737865778
1791.35468120034,2784.09737865778
1770.50664705081,2784.10737865778
1752.34331620225,2784.11737865778
1735.43859440421,2784.12737865778
1719.37747067325,2784.13737865778
1705.55752865058,2784.14737865778
1694.75456616791,2784.15737865778
1689.82873065766,2784.16737865778
1685.12185352256,2784.17737865778
1685.87979121593,2784.18737865778
1691.44005136219,2784.19737865778
1700.19586422325,2784.20737865778
1703.4844212311,2784.21737865778
1701.97773750528,2784.22737865778
1696.41842903695,2784.23737865778
1691.21896949248,2784.24737865778
1690.37354343691,2784.25737865778
1686.4398735394,2784.26737865778
1685.3402974036,2784.27737865778
1681.27610228781,2784.28737865778
1678.98499589199,2784.29737865778
1673.10172065564,2784.30737865778
1667.1438594668,2784.31737865778
1666.12662521492,2784.32737865778
1663.65632940138,2784.33737865778
1664.17696415701,2784.34737865778
1663.92736914351,2784.35737865778
1664.0039266218,2784.36737865778
1664.1290544002,2784.37737865778
1663.12753829284,2784.38737865778
1659.8510771859,2784.39737865778
1654.54236993544,2784.40737865778
1645.91020005448,2784.41737865778
1640.77799864652,2784.42737865778
1633.07097804147,2784.43737865778
1629.91635612021,2784.44737865778
1624.00008982432,2784.45737865778
1619.27852849769,2784.46737865778
1617.50457449598,2784.47737865778
1621.7197167851,2784.48737865778
1640.12777194228,2784.49737865778
1674.75837215181,2784.50737865778
1737.78095347012,2784.51737865778
1818.97545314181,2784.52737865778
1919.24086712812,2784.53737865778
2039.45288778547,2784.54737865778
2172.23721354247,2784.55737865778
2310.26990077209,2784.56737865778
2439.17791562569,2784.57737865778
2559.88544946189,2784.58737865778
2666.45729557678,2784.59737865778
2759.11634012994,2784.60737865778
2834.94145983844,2784.61737865778
2887.54657491807,2784.62737865778
2919.49168080906,2784.63737865778
2931.86220892361,2784.64737865778
2928.00135867033,2784.65737865778
2913.07054408296,2784.66737865778
2888.09346038179,2784.67737865778
2852.13483244125,2784.68737865778
2809.09913101224,2784.69737865778
2760.89438960366,2784.70737865778
2707.93825166754,2784.71737865778
2650.63850737783,2784.72737865778
2591.05358369235,2784.73737865778
2531.23853611384,2784.74737865778
2467.48950018798,2784.75737865778
2407.0093949266,2784.76737865778
2348.30956075068,2784.77737865778
2290.6595326583,2784.78737865778
2242.102962508,2784.79737865778
2199.33584929582,2784.80737865778
2158.89632116297,2784.81737865778
2125.7415008157,2784.82737865778
2093.67500447362,2784.83737865778
2066.24458079517,2784.84737865778
2040.97328205583,2784.85737865778
2024.09545814611,2784.86737865778
2014.51038644821,2784.87737865778
2011.63689445382,2784.88737865778
2014.42560939917,2784.89737865778
2018.31380692437,2784.90737865778
2024.78867607171,2784.91737865778
2027.33426207295,2784.92737865778
2023.67325016653,2784.93737865778
2016.55722643377,2784.94737865778
2004.76641996058,2784.95737865778
1993.03535924541,2784.96737865778
1977.44851481682,2784.97737865778
1961.63111116815,2784.98737865778
1949.13153872069,2784.99737865778
1933.49689091136,2785.00737865778
1919.64343994755,2785.01737865778
1905.71704519441,2785.02737865778
1893.07739324821,2785.03737865778
1875.02616317099,2785.04737865778
1858.08897477873,2785.05737865778
1845.75576480257,2785.06737865778
1833.76061110279,2785.07737865778
1821.88231066412,2785.08737865778
1811.35890124812,2785.09737865778
1796.75885984373,2785.10737865778
1779.31929286119,2785.11737865778
1763.36019524549,2785.12737865778
1752.82388420244,2785.13737865778
1750.89466755171,2785.14737865778
1750.94554477256,2785.15737865778
1751.02436376856,2785.16737865778
1750.85527257315,2785.17737865778
1751.12415053983,2785.18737865778
1748.30201847119,2785.19737865778
1748.18018690898,2785.20737865778
1746.82279363089,2785.21737865778
1744.95935136322,2785.22737865778
1742.31886569789,2785.23737865778
1745.33766131295,2785.24737865778
1749.05614763596,2785.25737865778
1757.88039799272,2785.26737865778
1769.46834702438,2785.27737865778
1775.66660893717,2785.28737865778
1778.29569934827,2785.29737865778
1777.88777885057,2785.30737865778
1775.60156901131,2785.31737865778
1774.88585003225,2785.32737865778
1777.38599761054,2785.33737865778
1781.50541142472,2785.34737865778
1787.62053733396,2785.35737865778
1793.77929822301,2785.36737865778
1798.69111146873,2785.37737865778
1799.23397481795,2785.38737865778
1798.07967603039,2785.39737865778
1795.04502800747,2785.40737865778
1791.12574592333,2785.41737865778
1784.7204048615,2785.42737865778
1774.18036392551,2785.43737865778
1758.24862548956,2785.44737865778
1742.37985085102,2785.45737865778
1728.40731704482,2785.46737865778
1719.80024100958,2785.47737865778
1715.08600526588,2785.48737865778
1715.20684404664,2785.49737865778
1728.38413665704,2785.50737865778
1758.97701951027,2785.51737865778
1811.05897906649,2785.52737865778
1883.12347669492,2785.53737865778
1976.77862193651,2785.54737865778
2083.73677992434,2785.55737865778
2206.02013178388,2785.56737865778
2331.08206963122,2785.57737865778
2452.051607577,2785.58737865778
2569.0543341336,2785.59737865778
2678.05225375323,2785.60737865778
2770.16948046938,2785.61737865778
2844.17985763744,2785.62737865778
2899.49206409607,2785.63737865778
2930.52078867611,2785.64737865778
2948.78090930225,2785.65737865778
2950.96037973207,2785.66737865778
2943.00572617017,2785.67737865778
2924.82855231573,2785.68737865778
2900.00418903088,2785.69737865778
2867.18759331783,2785.70737865778
2826.28890111749,2785.71737865778
2782.96046983119,2785.72737865778
2740.16871552924,2785.73737865778
2696.76586564357,2785.74737865778
2655.01000802676,2785.75737865778
2614.21352293845,2785.76737865778
2570.65912436343,2785.77737865778
2526.51514035026,2785.78737865778
2487.33576272838,2785.79737865778
2445.69458059928,2785.80737865778
2406.87680042021,2785.81737865778
2374.6904728739,2785.82737865778
2348.0890396786,2785.83737865778
2325.5616040326,2785.84737865778
2309.24650449449,2785.85737865778
2295.74827862453,2785.86737865778
2283.51522494727,2785.87737865778
2278.1808898794,2785.88737865778
2280.26299789411,2785.89737865778
2285.06899098639,2785.90737865778
2292.98226152776,2785.91737865778
2299.76151366426,2785.92737865778
2300.27964433642,2785.93737865778
2293.47585942334,2785.94737865778
2278.0285408653,2785.95737865778
2263.72126562466,2785.96737865778
2248.91517627051,2785.97737865778
2228.26224104286,2785.98737865778
2204.82660235655,2785.99737865778
2179.7997709789,2786.00737865778
2153.04136871225,2786.01737865778
2133.49137172505,2786.02737865778
2110.86450767228,2786.03737865778
2084.23940057711,2786.04737865778
2057.67591215666,2786.05737865778
2023.89812134374,2786.06737865778
1995.19322684159,2786.07737865778
1964.4576191538,2786.08737865778
1937.13195118422,2786.09737865778
1916.01308936986,2786.10737865778
1896.58232337847,2786.11737865778
1885.78140186226,2786.12737865778
1879.10253502264,2786.13737865778
1874.22444954241,2786.14737865778
1871.61278176613,2786.15737865778
1869.81462711983,2786.16737865778
1865.39010328219,2786.17737865778
1864.16232707047,2786.18737865778
1860.61415228018,2786.19737865778
1859.07335998111,2786.20737865778
1858.0868757706,2786.21737865778
1854.93413665844,2786.22737865778
1849.49186420247,2786.23737865778
1845.85267563944,2786.24737865778
1840.49520472453,2786.25737865778
1835.14066367942,2786.26737865778
1835.13906547986,2786.27737865778
1834.86578796991,2786.28737865778
1835.2249719778,2786.29737865778
1829.30449926027,2786.30737865778
1821.26682915939,2786.31737865778
1807.66721565453,2786.32737865778
1793.59168605047,2786.33737865778
1777.18508134823,2786.34737865778
1767.81549099683,2786.35737865778
1763.02514620524,2786.36737865778
1751.75776156927,2786.37737865778
1738.36821537762,2786.38737865778
1732.53641826951,2786.39737865778
1728.67282467609,2786.40737865778
1726.11862776884,2786.41737865778
1720.29257612775,2786.42737865778
1714.59735965166,2786.43737865778
1707.34767718498,2786.44737865778
1699.14636096195,2786.45737865778
1695.90695190566,2786.46737865778
1693.58243513606,2786.47737865778
1695.11569708245,2786.48737865778
1697.19375358053,2786.49737865778
1696.8333993261,2786.50737865778
1697.24131208012,2786.51737865778
1697.65183656941,2786.52737865778
1692.35131754422,2786.53737865778
1688.85143251015,2786.54737865778
1685.60272408562,2786.55737865778
1683.86046354837,2786.56737865778
1682.78607579266,2786.57737865778
1683.5155582143,2786.58737865778
1691.66387666659,2786.59737865778
1707.61877602679,2786.60737865778
1739.67884511733,2786.61737865778
1788.0291325937,2786.62737865778
1857.07847624911,2786.63737865778
1947.3833847347,2786.64737865778
2053.4001794681,2786.65737865778
2181.52934203827,2786.66737865778
2320.50299886659,2786.67737865778
2467.7328800157,2786.68737865778
2620.01193015975,2786.69737865778
2763.21094072855,2786.70737865778
2890.7539760567,2786.71737865778
2999.84553345853,2786.72737865778
3091.28952818372,2786.73737865778
3161.21181708605,2786.74737865778
3206.59670610497,2786.75737865778
3233.83117648837,2786.76737865778
3240.58755888354,2786.77737865778
3233.22733603761,2786.78737865778
3211.62892600752,2786.79737865778
3182.38261924652,2786.80737865778
3149.84994323314,2786.81737865778
3118.16767269204,2786.82737865778
3082.66889568774,2786.83737865778
3046.37278059986,2786.84737865778
3010.66954106017,2786.85737865778
2971.12890102587,2786.86737865778
2928.01348320389,2786.87737865778
2882.35772894934,2786.88737865778
2839.72006260633,2786.89737865778
2802.42569319552,2786.90737865778
2764.00525598157,2786.91737865778
2726.26518823857,2786.92737865778
2685.62111691846,2786.93737865778
2644.67773384983,2786.94737865778
2607.58824192164,2786.95737865778
2570.28308316599,2786.96737865778
2539.17204050295,2786.97737865778
2513.19936292242,2786.98737865778
2493.17589393331,2786.99737865778
2478.85029746525,2787.00737865778
2464.39236792969,2787.01737865778
2457.74529016448,2787.02737865778
2445.45875151521,2787.03737865778
2434.89738380762,2787.04737865778
2422.6128742443,2787.05737865778
2409.40862187437,2787.06737865778
2395.93435129139,2787.07737865778
2378.17833736493,2787.08737865778
2358.05260222116,2787.09737865778
2338.54154991369,2787.10737865778
2321.25378752633,2787.11737865778
2300.00510169258,2787.12737865778
2272.53838343172,2787.13737865778
2244.79597885133,2787.14737865778
2212.01834090996,2787.15737865778
2173.36172394455,2787.16737865778
2130.3658596731,2787.17737865778
2092.29342936791,2787.18737865778
2058.06555775817,2787.19737865778
2031.94094215109,2787.20737865778
2007.65937785054,2787.21737865778
1978.99639192672,2787.22737865778
1950.54014675604,2787.23737865778
1918.70880003991,2787.24737865778
1894.62898357995,2787.25737865778
1875.2211624982,2787.26737865778
1856.96025037896,2787.27737865778
1837.10001485184,2787.28737865778
1811.83207587634,2787.29737865778
1788.65829110687,2787.30737865778
1768.87769190124,2787.31737865778
1752.39426042606,2787.32737865778
1740.79167177717,2787.33737865778
1733.82020518758,2787.34737865778
1722.01706545602,2787.35737865778
1704.9966775555,2787.36737865778
1690.23495866325,2787.37737865778
1683.2069455647,2787.38737865778
1679.67310898805,2787.39737865778
1678.59773488065,2787.40737865778
1677.02373925476,2787.41737865778
1673.7840331098,2787.42737865778
1666.37434786067,2787.43737865778
1657.86130271705,2787.44737865778
1652.00813094401,2787.45737865778
1652.86356959847,2787.46737865778
1656.29218248629,2787.47737865778
1658.0684524239,2787.48737865778
1658.1212702451,2787.49737865778
1654.76675661418,2787.50737865778
1649.92638594851,2787.51737865778
1641.36458591171,2787.52737865778
1630.05107925893,2787.53737865778
1617.37561517414,2787.54737865778
1607.11245566955,2787.55737865778
1594.10586886432,2787.56737865778
1585.95810783025,2787.57737865778
1582.81594955683,2787.58737865778
1579.22666047307,2787.59737865778
1583.69791508225,2787.60737865778
1587.00122848447,2787.61737865778
1592.57687180912,2787.62737865778
1598.49244751064,2787.63737865778
1602.43334771365,2787.64737865778
1603.23756642471,2787.65737865778
1599.04018821636,2787.66737865778
1587.65146727759,2787.67737865778
1576.69716952291,2787.68737865778
1569.14170451599,2787.69737865778
1561.6756203375,2787.70737865778
1562.02006584608,2787.71737865778
1561.28059759053,2787.72737865778
1573.66734767579,2787.73737865778
1602.20919377406,2787.74737865778
1649.92262631065,2787.75737865778
1716.5483836786,2787.76737865778
1809.43715715446,2787.77737865778
1922.31883288161,2787.78737865778
2052.77306249695,2787.79737865778
2192.96591892396,2787.80737865778
2340.1540026726,2787.81737865778
2485.93945132171,2787.82737865778
2627.95353500604,2787.83737865778
2758.90122374953,2787.84737865778
2880.4268336225,2787.85737865778
2984.49180847544,2787.86737865778
3067.27871923832,2787.87737865778
3127.84389648207,2787.88737865778
3167.95991977924,2787.89737865778
3186.72531860697,2787.90737865778
3187.6107239776,2787.91737865778
3175.62808676642,2787.92737865778
3148.74559899397,2787.93737865778
3111.84979141261,2787.94737865778
3069.8567180321,2787.95737865778
3026.56697603421,2787.96737865778
2985.95248125662,2787.97737865778
2943.97148307028,2787.98737865778
2898.55462140259,2787.99737865778
2847.63818099955,2788.00737865778
2799.03005416256,2788.01737865778
2752.03180123833,2788.02737865778
2709.79187818892,2788.03737865778
2670.0496230652,2788.04737865778
2634.63518325947,2788.05737865778
2602.00801011308,2788.06737865778
2566.34327200813,2788.07737865778
2532.71206327245,2788.08737865778
2500.56365139398,2788.09737865778
2469.64801068419,2788.10737865778
2443.21300552212,2788.11737865778
2422.92559577056,2788.12737865778
2410.67424855708,2788.13737865778
2404.32188966845,2788.14737865778
2400.77772126247,2788.15737865778
2398.10244712603,2788.16737865778
2389.20316641036,2788.17737865778
2376.53485413945,2788.18737865778
2362.12033899479,2788.19737865778
2340.7311202443,2788.20737865778
2316.91316417349,2788.21737865778
2298.42412934197,2788.22737865778
2277.81193510377,2788.23737865778
2261.09619159336,2788.24737865778
2244.33479565504,2788.25737865778
2227.66163418623,2788.26737865778
2210.63256611383,2788.27737865778
2192.67073538896,2788.28737865778
2173.09988610946,2788.29737865778
2152.22089374982,2788.30737865778
2129.25505849362,2788.31737865778
2106.9360440946,2788.32737865778
2081.25344133461,2788.33737865778
2051.80962599591,2788.34737865778
2026.73920118396,2788.35737865778
2000.12467055827,2788.36737865778
1982.39460414944,2788.37737865778
1966.31129826399,2788.38737865778
1950.45986020009,2788.39737865778
1934.31445745748,2788.40737865778
1920.85962434139,2788.41737865778
1906.17302116499,2788.42737865778
1891.5754987844,2788.43737865778
1877.36593629928,2788.44737865778
1862.42196165115,2788.45737865778
1848.61930765788,2788.46737865778
1831.86242100875,2788.47737865778
1810.18907350591,2788.48737865778
1784.62640118983,2788.49737865778
1759.56166993066,2788.50737865778
1731.68108708298,2788.51737865778
1708.33780593928,2788.52737865778
1686.27156570031,2788.53737865778
1671.42458980925,2788.54737865778
1660.05463413971,2788.55737865778
1644.23940459864,2788.56737865778
1626.88703214056,2788.57737865778
1614.83653087265,2788.58737865778
1602.57210563229,2788.59737865778
1594.07030825454,2788.60737865778
1590.87237263763,2788.61737865778
1586.19236846986,2788.62737865778
1588.46961635259,2788.63737865778
1589.00473786851,2788.64737865778
1591.49177100895,2788.65737865778
1594.28456108616,2788.66737865778
1596.91621209337,2788.67737865778
1604.82360743591,2788.68737865778
1608.00095919461,2788.69737865778
1611.20276150062,2788.70737865778
1618.04627922519,2788.71737865778
1621.71778126162,2788.72737865778
1622.01834240849,2788.73737865778
1622.0191963021,2788.74737865778
1619.54894379891,2788.75737865778
1618.79905465187,2788.76737865778
1621.44707131057,2788.77737865778
1619.67582301505,2788.78737865778
1615.38562535849,2788.79737865778
1611.49227228469,2788.80737865778
1609.60809270151,2788.81737865778
1610.46329117619,2788.82737865778
1617.08965361264,2788.83737865778
1632.48194655421,2788.84737865778
1667.7987332822,2788.85737865778
1721.343728328,2788.86737865778
1795.20959646665,2788.87737865778
1890.88246230202,2788.88737865778
2004.70002357707,2788.89737865778
2138.97357650947,2788.90737865778
2286.76283416726,2788.91737865778
2437.67829842864,2788.92737865778
2591.09341219044,2788.93737865778
2734.3873460289,2788.94737865778
2869.19138275983,2788.95737865778
2989.60797638341,2788.96737865778
3093.43631954443,2788.97737865778
3179.2530876273,2788.98737865778
3239.30431267164,2788.99737865778
3276.01788709725,2789.00737865778
3287.7397953844,2789.01737865778
3280.87959701996,2789.02737865778
3261.44646061763,2789.03737865778
3231.06956541763,2789.04737865778
3196.8898392855,2789.05737865778
3159.73752567709,2789.06737865778
3122.81178721693,2789.07737865778
3084.89862888776,2789.08737865778
3041.84974776136,2789.09737865778
2997.6035566703,2789.10737865778
2951.15408910875,2789.11737865778
2902.36784960356,2789.12737865778
2857.61877826176,2789.13737865778
2810.26939860894,2789.14737865778
2757.51935335004,2789.15737865778
2708.30645445907,2789.16737865778
2657.56741650924,2789.17737865778
2616.84796049353,2789.18737865778
2577.53603876989,2789.19737865778
2542.95590693886,2789.20737865778
2515.69093380398,2789.21737865778
2487.38501750328,2789.22737865778
2458.94078507918,2789.23737865778
2434.36235852417,2789.24737865778
2409.0588317512,2789.25737865778
2384.514811186,2789.26737865778
2359.90988720196,2789.27737865778
2332.09310608982,2789.28737865778
2304.42518277915,2789.29737865778
2278.15032225187,2789.30737865778
2255.96478683917,2789.31737865778
2235.07757660209,2789.32737865778
2212.74394526823,2789.33737865778
2189.99419141852,2789.34737865778
2161.07129273745,2789.35737865778
2135.34454515959,2789.36737865778
2109.88087154723,2789.37737865778
2086.08170968539,2789.38737865778
2060.3379538713,2789.39737865778
2027.91765799513,2789.40737865778
1997.41418485696,2789.41737865778
1962.14178625803,2789.42737865778
1931.22319702075,2789.43737865778
1900.79691106061,2789.44737865778
1875.83613383527,2789.45737865778
1851.15706979972,2789.46737865778
1834.19393629306,2789.47737865778
1816.01373543316,2789.48737865778
1796.73268715612,2789.49737865778
1779.63788931286,2789.50737865778
1759.88926831783,2789.51737865778
1742.63534878481,2789.52737865778
1727.54978406133,2789.53737865778
1716.13897927849,2789.54737865778
1702.4553057766,2789.55737865778
1689.6738401905,2789.56737865778
1674.63838395742,2789.57737865778
1658.23408130064,2789.58737865778
1642.44846701322,2789.59737865778
1629.34697624507,2789.60737865778
1618.94904971386,2789.61737865778
1611.92235122743,2789.62737865778
1607.73056128173,2789.63737865778
1600.11821474299,2789.64737865778
1587.77054288794,2789.65737865778
1575.51607929426,2789.66737865778
1565.71183662655,2789.67737865778
1561.53107130299,2789.68737865778
1558.54923569689,2789.69737865778
1559.26386029758,2789.70737865778
1554.07323960884,2789.71737865778
1548.87554602406,2789.72737865778
1533.2626811072,2789.73737865778
1518.40735133415,2789.74737865778
1504.67764631356,2789.75737865778
1490.52267558152,2789.76737865778
1474.24019617236,2789.77737865778
1461.57230481289,2789.78737865778
1450.60316245192,2789.79737865778
1445.00880239788,2789.80737865778
1441.10371108293,2789.81737865778
1441.739794764,2789.82737865778
1442.85242551012,2789.83737865778
1448.44428127939,2789.84737865778
1451.52890188096,2789.85737865778
1449.3754162983,2789.86737865778
1448.82127352386,2789.87737865778
1450.92519491472,2789.88737865778
1458.619655393,2789.89737865778
1470.86763943785,2789.90737865778
1486.69930816398,2789.91737865778
1513.48916541445,2789.92737865778
1557.09965418147,2789.93737865778
1623.5229556128,2789.94737865778
1709.42564933581,2789.95737865778
1817.15696041572,2789.96737865778
1942.87716835393,2789.97737865778
2086.4248158086,2789.98737865778
2241.92336255263,2789.99737865778
2398.38566044886,2790.00737865778
2550.76584642765,2790.01737865778
2695.50444690006,2790.02737865778
2829.43545058608,2790.03737865778
2941.6334479225,2790.04737865778
3029.85986617689,2790.05737865778
3093.96451207156,2790.06737865778
3136.25140746217,2790.07737865778
3160.47828958599,2790.08737865778
3168.09133262806,2790.09737865778
3167.36453845725,2790.10737865778
3160.21757955601,2790.11737865778
3139.52415895473,2790.12737865778
3112.01371249257,2790.13737865778
3079.19714520955,2790.14737865778
3042.82115582018,2790.15737865778
3000.80969017743,2790.16737865778
2958.96398761375,2790.17737865778
2916.03525613486,2790.18737865778
2870.34684616028,2790.19737865778
2827.53163501859,2790.20737865778
2788.8628680582,2790.21737865778
2752.75574561397,2790.22737865778
2721.65528569816,2790.23737865778
2692.70011948924,2790.24737865778
2669.28932772064,2790.25737865778
2654.05482095514,2790.26737865778
2645.4466065363,2790.27737865778
2647.40954787547,2790.28737865778
2650.33869021091,2790.29737865778
2652.06573754209,2790.30737865778
2654.23687672103,2790.31737865778
2656.22423166926,2790.32737865778
2657.56812506764,2790.33737865778
2655.09169666271,2790.34737865778
2646.53133463956,2790.35737865778
2634.75441876422,2790.36737865778
2621.43995079125,2790.37737865778
2610.9418600018,2790.38737865778
2598.89629111274,2790.39737865778
2581.37109882647,2790.40737865778
2557.79986272709,2790.41737865778
2528.06088365126,2790.42737865778
2498.11100453304,2790.43737865778
2467.8615079569,2790.44737865778
2438.99723613989,2790.45737865778
2411.33282591356,2790.46737865778
2378.33810824796,2790.47737865778
2348.01334290591,2790.48737865778
2315.40588653422,2790.49737865778
2283.22287851139,2790.50737865778
2253.66173462196,2790.51737865778
2225.65106795091,2790.52737865778
2202.52134916718,2790.53737865778
2183.95035783074,2790.54737865778
2167.07888462348,2790.55737865778
2149.97291617515,2790.56737865778
2134.90537124882,2790.57737865778
2113.90259072869,2790.58737865778
2094.18622135491,2790.59737865778
2073.49458201301,2790.60737865778
2056.14274435239,2790.61737865778
2040.29764174426,2790.62737865778
2023.04773170736,2790.63737865778
2009.95556175037,2790.64737865778
1994.6410519905,2790.65737865778
1979.74441765538,2790.66737865778
1964.80791912813,2790.67737865778
1952.5365052811,2790.68737865778
1944.3667469536,2790.69737865778
1938.09936095776,2790.70737865778
1928.42011856017,2790.71737865778
1915.77672779272,2790.72737865778
1899.58677739993,2790.73737865778
1883.81397568338,2790.74737865778
1864.93701966765,2790.75737865778
1851.41434325178,2790.76737865778
1831.95897840673,2790.77737865778
1811.51963094774,2790.78737865778
1786.41557751898,2790.79737865778
1763.60374320601,2790.80737865778
1744.72423896879,2790.81737865778
1732.20414563578,2790.82737865778
1727.32300753644,2790.83737865778
1724.45923002153,2790.84737865778
1721.28415121704,2790.85737865778
1720.3153693718,2790.86737865778
1712.93219593767,2790.87737865778
1703.81927102368,2790.88737865778
1698.29969074189,2790.89737865778
1692.25427768952,2790.90737865778
1690.37090633525,2790.91737865778
1693.19122130267,2790.92737865778
1710.96345880241,2790.93737865778
1740.34479654966,2790.94737865778
1795.00188961098,2790.95737865778
1874.83335561404,2790.96737865778
1977.09403763513,2790.97737865778
2096.0804950947,2790.98737865778
2229.58275072711,2790.99737865778
2374.29073778411,2791.00737865778
2522.94906267413,2791.01737865778
2671.4403173436,2791.02737865778
2823.66303558591,2791.03737865778
2968.25335638416,2791.04737865778
3091.16533354245,2791.05737865778
3191.16113117209,2791.06737865778
3264.09463242373,2791.07737865778
3317.52483925534,2791.08737865778
3352.19194466872,2791.09737865778
3373.93206430108,2791.10737865778
3388.84164282906,2791.11737865778
3399.73266481853,2791.12737865778
3407.7902981253,2791.13737865778
3414.96760077345,2791.14737865778
3419.62297885094,2791.15737865778
3419.14308072563,2791.16737865778
3415.15338787989,2791.17737865778
3402.59659550763,2791.18737865778
3388.9161057934,2791.19737865778
3371.39805779447,2791.20737865778
3345.42583955662,2791.21737865778
3317.17240922409,2791.22737865778
3287.01108047378,2791.23737865778
3254.62230741168,2791.24737865778
3221.44541693805,2791.25737865778
3190.2037999622,2791.26737865778
3151.18252301169,2791.27737865778
3110.8139233656,2791.28737865778
3074.16938941198,2791.29737865778
3044.65530317896,2791.30737865778
3023.85079537041,2791.31737865778
3007.03557844428,2791.32737865778
2998.00303252348,2791.33737865778
2989.6890405336,2791.34737865778
2974.47862794435,2791.35737865778
2953.1289848881,2791.36737865778
2929.68764802733,2791.37737865778
2902.87166648867,2791.38737865778
2873.60714700388,2791.39737865778
2837.2111562497,2791.40737865778
2801.60802864569,2791.41737865778
2762.98510857983,2791.42737865778
2727.90226374849,2791.43737865778
2690.04172160103,2791.44737865778
2651.50379541686,2791.45737865778
2618.75312944614,2791.46737865778
2584.41210404511,2791.47737865778
2550.94245903801,2791.48737865778
2515.35319715479,2791.49737865778
2477.91286917446,2791.50737865778
2441.12996662186,2791.51737865778
2404.09640558758,2791.52737865778
2368.71127345383,2791.53737865778
2331.39689984236,2791.54737865778
2292.38626742516,2791.55737865778
2253.22464302022,2791.56737865778
2215.21779450908,2791.57737865778
2176.49543718337,2791.58737865778
2134.7271279918,2791.59737865778
2095.36359881313,2791.60737865778
2059.96174321806,2791.61737865778
2023.75946373703,2791.62737865778
1992.09337333763,2791.63737865778
1957.22954506548,2791.64737865778
1926.24631899201,2791.65737865778
1890.04436624675,2791.66737865778
1853.69729454163,2791.67737865778
1821.0925357687,2791.68737865778
1794.87849010375,2791.69737865778
1773.61395077563,2791.70737865778
1755.00631831442,2791.71737865778
1737.38999401371,2791.72737865778
1718.19567953874,2791.73737865778
1692.43999622779,2791.74737865778
1671.05967472008,2791.75737865778
1650.24867024652,2791.76737865778
1628.87751006453,2791.77737865778
1606.89646605348,2791.78737865778
1586.26909276827,2791.79737865778
1562.62538705426,2791.80737865778
1536.16060731755,2791.81737865778
1511.3621073087,2791.82737865778
1490.8137529187,2791.83737865778
1474.20736434418,2791.84737865778
1459.16920561908,2791.85737865778
1444.40488882787,2791.86737865778
1428.29075558999,2791.87737865778
1410.21838179572,2791.88737865778
1391.38513151776,2791.89737865778
1369.86617964053,2791.90737865778
1350.05438852646,2791.91737865778
1334.64095212514,2791.92737865778
1322.04446645931,2791.93737865778
1308.62683058532,2791.94737865778
1299.14517439729,2791.95737865778
1290.13480287744,2791.96737865778
1281.82109651392,2791.97737865778
1279.54927946696,2791.98737865778
1279.73762807022,2791.99737865778
1282.55265600437,2792.00737865778
1294.25215012665,2792.01737865778
1322.47720791067,2792.02737865778
1373.7573043983,2792.03737865778
1448.45769659796,2792.04737865778
1541.18043379096,2792.05737865778
1654.57150415249,2792.06737865778
1789.45390460795,2792.07737865778
1943.37331578338,2792.08737865778
2113.8063909757,2792.09737865778
2286.5136929703,2792.10737865778
2454.23871367687,2792.11737865778
2612.5299695193,2792.12737865778
2754.90077415442,2792.13737865778
2879.22781203989,2792.14737865778
2982.88057435213,2792.15737865778
3068.2902151939,2792.16737865778
3136.75904447529,2792.17737865778
3189.22065200453,2792.18737865778
3228.3684332507,2792.19737865778
3255.44495239691,2792.20737865778
3266.42920316266,2792.21737865778
3265.77844884506,2792.22737865778
3252.28971479953,2792.23737865778
3229.17728535451,2792.24737865778
3198.06401856675,2792.25737865778
3164.43845946672,2792.26737865778
3133.34131852539,2792.27737865778
3095.00680523458,2792.28737865778
3057.65353079224,2792.29737865778
3017.94195759228,2792.30737865778
2981.26594798502,2792.31737865778
2948.42598170387,2792.32737865778
2922.86212072842,2792.33737865778
2898.3169401365,2792.34737865778
2868.4126795984,2792.35737865778
2835.96994076574,2792.36737865778
2803.50749664036,2792.37737865778
2775.70429390291,2792.38737865778
2757.28355686277,2792.39737865778
2743.59790738862,2792.40737865778
2734.4952262177,2792.41737865778
2724.81482085423,2792.42737865778
2713.78144390767,2792.43737865778
2699.18541170327,2792.44737865778
2682.33311011449,2792.45737865778
2663.15813641087,2792.46737865778
2643.23732596009,2792.47737865778
2623.65380592524,2792.48737865778
2598.80386864549,2792.49737865778
2573.68837061615,2792.50737865778
2549.71549219744,2792.51737865778
2524.87141921856,2792.52737865778
2499.77628551848,2792.53737865778
2474.12327860444,2792.54737865778
2442.86710345672,2792.55737865778
2410.36615540674,2792.56737865778
2367.77276039316,2792.57737865778
2321.41610824343,2792.58737865778
2277.50480401259,2792.59737865778
2240.05010781825,2792.60737865778
2210.04432624924,2792.61737865778
2182.46486934524,2792.62737865778
2153.07269971833,2792.63737865778
2123.11638463615,2792.64737865778
2089.65229163932,2792.65737865778
2053.39364324184,2792.66737865778
2016.59862910168,2792.67737865778
1977.83586857338,2792.68737865778
1943.72609583813,2792.69737865778
1909.31955583343,2792.70737865778
1872.01484488246,2792.71737865778
1837.31341183757,2792.72737865778
1797.5130289466,2792.73737865778
1757.41943317368,2792.74737865778
1717.67884643194,2792.75737865778
1676.53302050277,2792.76737865778
1638.27551802691,2792.77737865778
1599.22137356517,2792.78737865778
1561.1830404861,2792.79737865778
1525.41626866608,2792.80737865778
1492.42006861595,2792.81737865778
1466.56437763641,2792.82737865778
1442.45136421691,2792.83737865778
1418.84397806961,2792.84737865778
1393.47259763318,2792.85737865778
1367.42701702711,2792.86737865778
1341.1805365619,2792.87737865778
1316.42515232544,2792.88737865778
1290.18934779045,2792.89737865778
1263.03764827787,2792.90737865778
1235.21417010163,2792.91737865778
1199.99543245135,2792.92737865778
1166.14273479406,2792.93737865778
1136.74713857619,2792.94737865778
1113.24030323486,2792.95737865778
1098.47117013755,2792.96737865778
1086.89468379989,2792.97737865778
1074.57386649261,2792.98737865778
1061.19159701848,2792.99737865778
1051.78160969483,2793.00737865778
1044.47873205301,2793.01737865778
1035.09534821246,2793.02737865778
1028.83929094324,2793.03737865778
1015.36235517452,2793.04737865778
1000.04961403693,2793.05737865778
987.28377572423,2793.06737865778
977.263181564001,2793.07737865778
977.256015246709,2793.08737865778
987.281698288389,2793.09737865778
1006.98505605706,2793.10737865778
1038.0919676153,2793.11737865778
1081.76627116924,2793.12737865778
1148.04848244779,2793.13737865778
1240.620520741,2793.14737865778
1357.36967996837,2793.15737865778
1498.20503478194,2793.16737865778
1654.14412857026,2793.17737865778
1821.49358196679,2793.18737865778
1993.29520134129,2793.19737865778
2161.36049458595,2793.20737865778
2314.68062699202,2793.21737865778
2452.31633660461,2793.22737865778
2573.63688957395,2793.23737865778
2673.8495964267,2793.24737865778
2753.60161498723,2793.25737865778
2818.85087716315,2793.26737865778
2867.59793707071,2793.27737865778
2903.6439828612,2793.28737865778
2925.09870516954,2793.29737865778
2932.27288592591,2793.30737865778
2933.66509941213,2793.31737865778
2929.94035791054,2793.32737865778
2920.1705030664,2793.33737865778
2905.65957207318,2793.34737865778
2888.75335772507,2793.35737865778
2866.8870359193,2793.36737865778
2841.94609215611,2793.37737865778
2811.8203342791,2793.38737865778
2780.22144299795,2793.39737865778
2748.7652025305,2793.40737865778
2715.52172891748,2793.41737865778
2683.81735615285,2793.42737865778
2647.24975511186,2793.43737865778
2611.21408718246,2793.44737865778
2574.66613778885,2793.45737865778
2546.80105331873,2793.46737865778
2525.82462263753,2793.47737865778
2510.66184609613,2793.48737865778
2494.08678545472,2793.49737865778
2479.30932050757,2793.50737865778
2464.1696264905,2793.51737865778
2449.35226603138,2793.52737865778
2433.5109274307,2793.53737865778
2414.23698728589,2793.54737865778
2390.75488210534,2793.55737865778
2366.45312766624,2793.56737865778
2343.59971276119,2793.57737865778
2324.44765738814,2793.58737865778
2302.77702274697,2793.59737865778
2276.20797368837,2793.60737865778
2248.80780422449,2793.61737865778
2220.19714199956,2793.62737865778
2188.91047885502,2793.63737865778
2154.50382358049,2793.64737865778
2120.47552795521,2793.65737865778
2088.15328243296,2793.66737865778
2064.22915334049,2793.67737865778
2044.69842916771,2793.68737865778
2026.63609974974,2793.69737865778
2013.67003584842,2793.70737865778
1996.38598590205,2793.71737865778
1972.64870596157,2793.72737865778
1943.09563336697,2793.73737865778
1910.49888140594,2793.74737865778
1877.45674103317,2793.75737865778
1846.83891366271,2793.76737865778
1817.1863089402,2793.77737865778
1789.05908719644,2793.78737865778
1764.51436425371,2793.79737865778
1742.85065735943,2793.80737865778
1719.03556154056,2793.81737865778
1700.01824373358,2793.82737865778
1682.20574502779,2793.83737865778
1659.53087168645,2793.84737865778
1640.39393474026,2793.85737865778
1614.05087330869,2793.86737865778
1589.61928519792,2793.87737865778
1570.12370829411,2793.88737865778
1549.95732945783,2793.89737865778
1529.88830128735,2793.90737865778
1505.49004315798,2793.91737865778
1481.52479128128,2793.92737865778
1458.43419524071,2793.93737865778
1440.08653886066,2793.94737865778
1422.98845239048,2793.95737865778
1410.89975263214,2793.96737865778
1400.3193572466,2793.97737865778
1383.44075098445,2793.98737865778
1364.91473306324,2793.99737865778
1348.18368875614,2794.00737865778
1333.16397690231,2794.01737865778
1318.44212944231,2794.02737865778
1304.57856654547,2794.03737865778
1290.6308746179,2794.04737865778
1278.69922894471,2794.05737865778
1269.25633251159,2794.06737865778
1256.93897044088,2794.07737865778
1241.31746792605,2794.08737865778
1227.26768915418,2794.09737865778
1217.15670064189,2794.10737865778
1217.38220290814,2794.11737865778
1227.02460400168,2794.12737865778
1252.86181546684,2794.13737865778
1296.33352161599,2794.14737865778
1357.07403473192,2794.15737865778
1440.42385586486,2794.16737865778
1541.0436265563,2794.17737865778
1662.31492662864,2794.18737865778
1801.0244609836,2794.19737865778
1956.67114496324,2794.20737865778
2114.64992340787,2794.21737865778
2267.90786217852,2794.22737865778
2411.06423268615,2794.23737865778
2537.39224262172,2794.24737865778
2649.33949390315,2794.25737865778
2742.13909553559,2794.26737865778
2820.13054011404,2794.27737865778
2883.17018749383,2794.28737865778
2929.56957799429,2794.29737865778
2962.00360867298,2794.30737865778
2979.3809953984,2794.31737865778
2993.01096099961,2794.32737865778
3000.40223072673,2794.33737865778
3001.40093455437,2794.34737865778
2993.52692234184,2794.35737865778
2982.06521396944,2794.36737865778
2964.74852100254,2794.37737865778
2941.99593963372,2794.38737865778
2914.71950231224,2794.39737865778
2878.90201930097,2794.40737865778
2839.15002405799,2794.41737865778
2798.26120528482,2794.42737865778
2757.68921541213,2794.43737865778
2714.44630363597,2794.44737865778
2673.7204874683,2794.45737865778
2630.26068620962,2794.46737865778
2590.65062957016,2794.47737865778
2556.9108857831,2794.48737865778
2523.67887390684,2794.49737865778
2492.00180078543,2794.50737865778
2459.18551548688,2794.51737865778
2430.74222035963,2794.52737865778
2406.40272660518,2794.53737865778
2378.9387897437,2794.54737865778
2356.19824572895,2794.55737865778
2332.02842097025,2794.56737865778
2305.75086584499,2794.57737865778
2278.41786366329,2794.58737865778
2249.33883806048,2794.59737865778
2218.6149326799,2794.60737865778
2187.92828775827,2794.61737865778
2155.611479252,2794.62737865778
2121.95434269438,2794.63737865778
2085.72523470706,2794.64737865778
2046.23497941265,2794.65737865778
2004.95052878085,2794.66737865778
1961.10564521585,2794.67737865778
1921.95685745415,2794.68737865778
1885.19003761862,2794.69737865778
1849.65925878256,2794.70737865778
1810.66209761166,2794.71737865778
1772.37877876213,2794.72737865778
1730.00948223754,2794.73737865778
1679.91039972093,2794.74737865778
1629.93115766694,2794.75737865778
1577.75898829516,2794.76737865778
1523.19776661736,2794.77737865778
1476.78725249086,2794.78737865778
1438.58786992966,2794.79737865778
1406.20291239557,2794.80737865778
1379.00162046287,2794.81737865778
1356.69626469998,2794.82737865778
1332.35602674529,2794.83737865778
1308.78477580481,2794.84737865778
1281.089705136,2794.85737865778
1256.39773630765,2794.86737865778
1237.39842183126,2794.87737865778
1218.13255654705,2794.88737865778
1200.18160189684,2794.89737865778
1184.52146179334,2794.90737865778
1170.53414309959,2794.91737865778
1156.65971440635,2794.92737865778
1142.37707800968,2794.93737865778
1129.56471227721,2794.94737865778
1120.85537472552,2794.95737865778
1112.62981365955,2794.96737865778
1108.83826633825,2794.97737865778
1098.79424873835,2794.98737865778
1086.95996400591,2794.99737865778
1071.41489752547,2795.00737865778
1055.56907540112,2795.01737865778
1043.11527244117,2795.02737865778
1032.80010468169,2795.03737865778
1028.61645019594,2795.04737865778
1024.56299532148,2795.05737865778
1020.04441775428,2795.06737865778
1013.62883811903,2795.07737865778
1008.92162504852,2795.08737865778
1003.37928731355,2795.09737865778
997.658998254477,2795.10737865778
992.560181750887,2795.11737865778
986.475609370585,2795.12737865778
981.704193432011,2795.13737865778
972.842162918408,2795.14737865778
967.099170421043,2795.15737865778
955.475761440799,2795.16737865778
947.115867408559,2795.17737865778
940.879824457811,2795.18737865778
934.623363765015,2795.19737865778
935.519693468156,2795.20737865778
947.356852679624,2795.21737865778
972.308751092064,2795.22737865778
1013.73559791868,2795.23737865778
1076.74052721751,2795.24737865778
1165.46821991602,2795.25737865778
1279.10265261432,2795.26737865778
1413.63073847668,2795.27737865778
1562.57459846013,2795.28737865778
1719.27427944798,2795.29737865778
1878.98603324521,2795.30737865778
2033.7265307721,2795.31737865778
2181.3537352555,2795.32737865778
2316.53473753708,2795.33737865778
2435.89380410458,2795.34737865778
2534.85956550553,2795.35737865778
2613.76178126342,2795.36737865778
2668.9720284344,2795.37737865778
2706.43817616162,2795.38737865778
2730.02990012138,2795.39737865778
2746.79407138749,2795.40737865778
2755.76437249429,2795.41737865778
2758.70339186458,2795.42737865778
2759.55252171019,2795.43737865778
2755.16122757297,2795.44737865778
2741.79917537419,2795.45737865778
2725.49036114213,2795.46737865778
2709.44667884821,2795.47737865778
2689.02021707128,2795.48737865778
2668.45385769101,2795.49737865778
2641.5699110288,2795.50737865778
2609.86675452076,2795.51737865778
2573.1770896723,2795.52737865778
2535.39856265398,2795.53737865778
2493.91260034212,2795.54737865778
2452.38112154344,2795.55737865778
2417.53025289411,2795.56737865778
2385.86311128429,2795.57737865778
2353.86502754567,2795.58737865778
2323.28050383428,2795.59737865778
2289.5828017079,2795.60737865778
2258.00309404119,2795.61737865778
2227.14223830634,2795.62737865778
2194.38044677847,2795.63737865778
2168.80928031168,2795.64737865778
2145.76995751783,2795.65737865778
2124.02610955013,2795.66737865778
2103.04427470156,2795.67737865778
2080.79065408722,2795.68737865778
2060.48025301784,2795.69737865778
2035.76075091593,2795.70737865778
2003.61790804874,2795.71737865778
1970.43748379238,2795.72737865778
1937.49106344058,2795.73737865778
1904.55840041592,2795.74737865778
1873.14032607328,2795.75737865778
1836.71572510292,2795.76737865778
1796.9877896019,2795.77737865778
1759.56234351397,2795.78737865778
1721.65113602966,2795.79737865778
1677.27041036416,2795.80737865778
1639.34863317625,2795.81737865778
1603.86734721989,2795.82737865778
1577.70867629564,2795.83737865778
1551.71177303817,2795.84737865778
1524.4594071251,2795.85737865778
1497.97895012907,2795.86737865778
1476.76240535921,2795.87737865778
1454.5458088941,2795.88737865778
1433.98984487733,2795.89737865778
1413.04987672159,2795.90737865778
1390.70083372368,2795.91737865778
1368.71592494808,2795.92737865778
1345.30142100663,2795.93737865778
1324.93963027247,2795.94737865778
1302.6765170934,2795.95737865778
1278.51984157186,2795.96737865778
1252.35034228429,2795.97737865778
1223.35654209078,2795.98737865778
1192.47073267474,2795.99737865778
1167.44336891793,2796.00737865778
1148.93421468542,2796.01737865778
1137.12534633285,2796.02737865778
1125.13710999613,2796.03737865778
1109.55215834764,2796.04737865778
1094.07965811407,2796.05737865778
1072.81865593765,2796.06737865778
1053.14700428543,2796.07737865778
1037.37219772439,2796.08737865778
1021.36497551702,2796.09737865778
1005.19626722509,2796.10737865778
992.605508175793,2796.11737865778
986.12498515395,2796.12737865778
986.701686446686,2796.13737865778
992.598735180149,2796.14737865778
1000.77584273099,2796.15737865778
1008.68727236974,2796.16737865778
1019.82941782101,2796.17737865778
1035.63671918407,2796.18737865778
1053.75166093127,2796.19737865778
1071.93262152563,2796.20737865778
1084.11015660071,2796.21737865778
1091.74667882026,2796.22737865778
1097.43553177555,2796.23737865778
1107.03520890327,2796.24737865778
1116.85897828754,2796.25737865778
1128.10912664832,2796.26737865778
1139.54974109155,2796.27737865778
1142.43163187908,2796.28737865778
1140.16261329255,2796.29737865778
1126.34423110367,2796.30737865778
1111.00646592872,2796.31737865778
1099.19768544623,2796.32737865778
1097.21905936086,2796.33737865778
1104.3007039501,2796.34737865778
1116.37267841773,2796.35737865778
1138.5932946086,2796.36737865778
1170.18965180616,2796.37737865778
1223.58796532118,2796.38737865778
1298.30952920583,2796.39737865778
1397.77748312254,2796.40737865778
1517.28463371903,2796.41737865778
1650.58020145992,2796.42737865778
1794.57002448148,2796.43737865778
1932.52190380429,2796.44737865778
2064.41285518215,2796.45737865778
2192.36053050741,2796.46737865778
2313.78978091971,2796.47737865778
2427.60282121976,2796.48737865778
2519.8187899794,2796.49737865778
2592.15631091717,2796.50737865778
2643.01566184419,2796.51737865778
2674.24732262488,2796.52737865778
2687.14748701238,2796.53737865778
2686.5120861089,2796.54737865778
2677.57914299387,2796.55737865778
2661.59905371443,2796.56737865778
2637.85704168123,2796.57737865778
2606.59509336387,2796.58737865778
2576.19091203304,2796.59737865778
2545.8215231915,2796.60737865778
2517.29056669871,2796.61737865778
2488.37030544856,2796.62737865778
2457.19962571608,2796.63737865778
2425.97518980201,2796.64737865778
2396.22539666535,2796.65737865778
2364.88721184458,2796.66737865778
2330.52146642208,2796.67737865778
2296.46788338672,2796.68737865778
2263.61969021897,2796.69737865778
2233.56278312993,2796.70737865778
2198.59489914251,2796.71737865778
2163.93789222256,2796.72737865778
2128.27239069541,2796.73737865778
2096.32846865539,2796.74737865778
2076.74343901476,2796.75737865778
2062.67459612883,2796.76737865778
2043.56412964158,2796.77737865778
2025.46463619321,2796.78737865778
2002.73837511414,2796.79737865778
1974.67974252257,2796.80737865778
1953.03938148982,2796.81737865778
1928.22916948817,2796.82737865778
1907.38950115263,2796.83737865778
1880.88921923438,2796.84737865778
1855.15842896584,2796.85737865778
1830.09650626274,2796.86737865778
1806.35410225588,2796.87737865778
1787.48574749864,2796.88737865778
1768.18527965553,2796.89737865778
1747.04845579963,2796.90737865778
1724.44139608312,2796.91737865778
1701.49769005108,2796.92737865778
1680.57235659835,2796.93737865778
1660.38416060534,2796.94737865778
1642.92861451658,2796.95737865778
1626.13423197127,2796.96737865778
1610.5654488969,2796.97737865778
1594.0331512029,2796.98737865778
1582.53381791827,2796.99737865778
1576.44056025249,2797.00737865778
1572.62920143868,2797.01737865778
1570.95256054653,2797.02737865778
1570.2319286691,2797.03737865778
1564.25797059544,2797.04737865778
1561.05005398921,2797.05737865778
1554.54482526652,2797.06737865778
1543.53561250185,2797.07737865778
1535.19422056266,2797.08737865778
1527.13780162246,2797.09737865778
1519.31840413615,2797.10737865778
1513.32519664415,2797.11737865778
1510.62724950129,2797.12737865778
1511.24302410846,2797.13737865778
1508.30283368833,2797.14737865778
1505.73539542681,2797.15737865778
1501.31283125417,2797.16737865778
1496.3173758053,2797.17737865778
1491.04084319642,2797.18737865778
1489.74611331321,2797.19737865778
1490.1545727203,2797.20737865778
1489.30781773299,2797.21737865778
1482.45899161111,2797.22737865778
1475.83879996479,2797.23737865778
1467.91217613859,2797.24737865778
1462.19894802326,2797.25737865778
1456.40919209759,2797.26737865778
1448.26314607406,2797.27737865778
1441.61295141838,2797.28737865778
1432.8310620649,2797.29737865778
1426.19209938203,2797.30737865778
1418.90308715207,2797.31737865778
1414.58170975077,2797.32737865778
1410.49410257068,2797.33737865778
1409.09294076454,2797.34737865778
1407.86426611426,2797.35737865778
1403.26176428919,2797.36737865778
1400.27102434,2797.37737865778
1399.81976314635,2797.38737865778
1399.51784761828,2797.39737865778
1401.43506323478,2797.40737865778
1408.74176776164,2797.41737865778
1430.66133448838,2797.42737865778
1463.70837557459,2797.43737865778
1510.70315652616,2797.44737865778
1577.85513737966,2797.45737865778
1664.81511154455,2797.46737865778
1771.91351318752,2797.47737865778
1896.05033437352,2797.48737865778
2030.69574006727,2797.49737865778
2165.73715666643,2797.50737865778
2297.93563193231,2797.51737865778
2421.24857558728,2797.52737865778
2533.53407538378,2797.53737865778
2632.09742057044,2797.54737865778
2714.68245092997,2797.55737865778
2775.23589836255,2797.56737865778
2813.56489482349,2797.57737865778
2839.232139281,2797.58737865778
2853.30043903353,2797.59737865778
2856.22918346826,2797.60737865778
2850.04601697848,2797.61737865778
2839.47490585151,2797.62737865778
2823.57031562037,2797.63737865778
2802.23359883907,2797.64737865778
2774.1765377838,2797.65737865778
2744.21331774765,2797.66737865778
2708.41050498848,2797.67737865778
2670.31831979211,2797.68737865778
2631.32975887666,2797.69737865778
2590.69591077894,2797.70737865778
2551.98924400818,2797.71737865778
2517.40085458083,2797.72737865778
2489.08777296456,2797.73737865778
2464.16530442752,2797.74737865778
2439.29221954172,2797.75737865778
2413.30622967293,2797.76737865778
2388.0122658883,2797.77737865778
2368.80033073978,2797.78737865778
2352.72897124476,2797.79737865778
2342.56028343064,2797.80737865778
2339.42356875209,2797.81737865778
2341.3422124434,2797.82737865778
2339.18706366421,2797.83737865778
2330.97524244301,2797.84737865778
2323.62480495482,2797.85737865778
2310.95768821167,2797.86737865778
2290.32392297784,2797.87737865778
2264.08130209505,2797.88737865778
2242.76187297643,2797.89737865778
2223.76755831014,2797.90737865778
2205.28611967004,2797.91737865778
2181.37842071342,2797.92737865778
2157.22017054673,2797.93737865778
2138.64920542097,2797.94737865778
2116.70675538762,2797.95737865778
2096.73580177113,2797.96737865778
2073.59195537436,2797.97737865778
2049.93368435408,2797.98737865778
2024.19295334632,2797.99737865778
1997.35734906612,2798.00737865778
1972.7586472347,2798.01737865778
1948.67155456488,2798.02737865778
1928.35585969951,2798.03737865778
1909.36967401189,2798.04737865778
1890.07846418278,2798.05737865778
1869.99613624786,2798.06737865778
1847.35903633554,2798.07737865778
1827.73783330674,2798.08737865778
1811.07688341119,2798.09737865778
1797.19379986813,2798.10737865778
1791.76411675832,2798.11737865778
1789.65324292266,2798.12737865778
1787.42659001237,2798.13737865778
1774.63935719381,2798.14737865778
1758.55881416714,2798.15737865778
1743.56740977942,2798.16737865778
1728.10838263825,2798.17737865778
1715.65824055978,2798.18737865778
1707.06533266568,2798.19737865778
1696.83933944318,2798.20737865778
1687.92371624512,2798.21737865778
1678.01830326375,2798.22737865778
1663.21261548758,2798.23737865778
1650.66888608712,2798.24737865778
1639.48359485948,2798.25737865778
1634.29350104277,2798.26737865778
1629.04486469687,2798.27737865778
1622.25179626201,2798.28737865778
1613.96183822941,2798.29737865778
1607.2778695962,2798.30737865778
1601.33672172226,2798.31737865778
1595.61443480761,2798.32737865778
1588.27640929611,2798.33737865778
1585.64181717673,2798.34737865778
1581.49845449775,2798.35737865778
1577.75698492357,2798.36737865778
1567.86788258292,2798.37737865778
1561.22369774215,2798.38737865778
1558.44451149502,2798.39737865778
1560.19469621249,2798.40737865778
1561.85106404196,2798.41737865778
1562.13768257207,2798.42737865778
1555.75535300127,2798.43737865778
1547.61044856863,2798.44737865778
1546.128654652,2798.45737865778
1552.02313673973,2798.46737865778
1572.1503972329,2798.47737865778
1608.18005220613,2798.48737865778
1657.1299040667,2798.49737865778
1721.48368976809,2798.50737865778
1805.83860728223,2798.51737865778
1905.25055619901,2798.52737865778
2020.13663449482,2798.53737865778
2148.41214563713,2798.54737865778
2282.53964748445,2798.55737865778
2413.25896461835,2798.56737865778
2536.93818961016,2798.57737865778
2650.90627671766,2798.58737865778
2748.16750469016,2798.59737865778
2829.658504968,2798.60737865778
2895.17442797403,2798.61737865778
2946.72507277982,2798.62737865778
2986.94720962919,2798.63737865778
3013.34618208523,2798.64737865778
3029.48110056449,2798.65737865778
3037.26177690297,2798.66737865778
3039.5624627808,2798.67737865778
3035.67574150427,2798.68737865778
3025.02538378839,2798.69737865778
3009.74714036423,2798.70737865778
2991.06418613558,2798.71737865778
2973.60389711079,2798.72737865778
2951.86501869061,2798.73737865778
2927.61320013786,2798.74737865778
2903.72731249725,2798.75737865778
2878.96097167297,2798.76737865778
2848.06328963912,2798.77737865778
2812.64998460291,2798.78737865778
2772.95772390056,2798.79737865778
2733.85847066733,2798.80737865778
2701.85262085703,2798.81737865778
2672.65535380803,2798.82737865778
2644.66060941025,2798.83737865778
2619.72453047831,2798.84737865778
2598.95826047964,2798.85737865778
2576.30877591499,2798.86737865778
2556.84501306777,2798.87737865778
2539.90318866133,2798.88737865778
2526.47968605434,2798.89737865778
2512.48855317869,2798.90737865778
2494.13402885107,2798.91737865778
2471.3408812208,2798.92737865778
2451.28291039274,2798.93737865778
2429.67335216185,2798.94737865778
2409.03698834296,2798.95737865778
2388.01527374423,2798.96737865778
2368.33625123532,2798.97737865778
2348.44802926448,2798.98737865778
2324.70185595826,2798.99737865778
2299.74327841041,2799.00737865778
2273.17090190386,2799.01737865778
2247.66366623174,2799.02737865778
2218.70697156167,2799.03737865778
2192.63200681153,2799.04737865778
2165.23574973278,2799.05737865778
2134.99220923724,2799.06737865778
2102.37731391272,2799.07737865778
2072.83316626729,2799.08737865778
2042.92917543542,2799.09737865778
2011.47119297696,2799.10737865778
1983.11479648998,2799.11737865778
1958.27542901515,2799.12737865778
1937.99261453578,2799.13737865778
1922.64104437462,2799.14737865778
1905.4405663386,2799.15737865778
1886.17569407002,2799.16737865778
1862.74407992842,2799.17737865778
1838.32626702121,2799.18737865778
1817.95229368023,2799.19737865778
1798.48599946197,2799.20737865778
1783.49365915856,2799.21737865778
1766.93579628604,2799.22737865778
1751.19396167506,2799.23737865778
1740.12791310661,2799.24737865778
1726.94811679945,2799.25737865778
1716.06326227343,2799.26737865778
1706.01484232609,2799.27737865778
1693.37427013384,2799.28737865778
1678.41696842518,2799.29737865778
1664.53526909716,2799.30737865778
1650.87127553582,2799.31737865778
1635.24679904462,2799.32737865778
1621.1642567456,2799.33737865778
1613.27781014076,2799.34737865778
1602.75802520331,2799.35737865778
1590.7447186235,2799.36737865778
1579.47215304122,2799.37737865778
1574.25788972806,2799.38737865778
1573.952010417,2799.39737865778
1576.35388814579,2799.40737865778
1574.92997518382,2799.41737865778
1572.62709959803,2799.42737865778
1571.06226210213,2799.43737865778
1567.69893802729,2799.44737865778
1563.63264662373,2799.45737865778
1558.83031052648,2799.46737865778
1551.20523530057,2799.47737865778
1543.89059109865,2799.48737865778
1545.08820454541,2799.49737865778
1547.19318770778,2799.50737865778
1546.88372086335,2799.51737865778
1544.04734561917,2799.52737865778
1538.30945841047,2799.53737865778
1534.97561486287,2799.54737865778
1533.8761236145,2799.55737865778
1531.80849975586,2799.56737865778
1533.41527177074,2799.57737865778
1534.01830133987,2799.58737865778
1535.77435378465,2799.59737865778
1542.01779377215,2799.60737865778
1557.03531998869,2799.61737865778
1579.69158240151,2799.62737865778
1613.48151942531,2799.63737865778
1664.07784632884,2799.64737865778
1735.31271878988,2799.65737865778
1823.267414314,2799.66737865778
1928.16247562049,2799.67737865778
2048.03780357663,2799.68737865778
2175.46319038596,2799.69737865778
2307.52188567025,2799.70737865778
2437.46475536639,2799.71737865778
2556.21923267752,2799.72737865778
2662.25917709649,2799.73737865778
2746.00681396347,2799.74737865778
2809.50327355083,2799.75737865778
2848.98052937209,2799.76737865778
2870.13337283692,2799.77737865778
2876.43363929076,2799.78737865778
2874.64921342199,2799.79737865778
2862.98002553298,2799.80737865778
2846.52712199931,2799.81737865778
2823.50732025405,2799.82737865778
2795.60468038783,2799.83737865778
2760.69518990872,2799.84737865778
2722.13799659087,2799.85737865778
2684.20386020179,2799.86737865778
2647.12291987289,2799.87737865778
2616.38175657121,2799.88737865778
2584.79573606067,2799.89737865778
2555.23637314334,2799.90737865778
2526.2984300549,2799.91737865778
2497.36291230048,2799.92737865778
2468.05673623881,2799.93737865778
2440.93626703472,2799.94737865778
2421.81248204473,2799.95737865778
2410.5124781917,2799.96737865778
2400.30780582696,2799.97737865778
2390.69163747913,2799.98737865778
2377.09038004903,2799.99737865778
2362.60439106616,2800.00737865778
2348.26578871537,2800.01737865778
2338.95869460989,2800.02737865778
2335.9639305772,2800.03737865778
2328.26509819635,2800.04737865778
2317.70438660925,2800.05737865778
2311.56136890287,2800.06737865778
2299.66264352717,2800.07737865778
2285.90626345703,2800.08737865778
2267.34270695064,2800.09737865778
2246.89247411199,2800.10737865778
2229.4269347859,2800.11737865778
2213.43589855167,2800.12737865778
2196.74317054755,2800.13737865778
2176.21139997913,2800.14737865778
2150.3406808396,2800.15737865778
2127.51483996654,2800.16737865778
2109.11070448492,2800.17737865778
2091.90923488104,2800.18737865778
2082.42007441091,2800.19737865778
2070.58068676185,2800.20737865778
2062.37480881783,2800.21737865778
2052.3133768881,2800.22737865778
2033.9581503996,2800.23737865778
2013.87413543613,2800.24737865778
1993.07964536345,2800.25737865778
1981.87684707679,2800.26737865778
1974.28220127071,2800.27737865778
1968.61635748369,2800.28737865778
1966.08888060631,2800.29737865778
1960.4102239431,2800.30737865778
1951.9465661075,2800.31737865778
1942.819296918,2800.32737865778
1936.27770096098,2800.33737865778
1932.93464182332,2800.34737865778
1927.46076138476,2800.35737865778
1919.05442988775,2800.36737865778
1906.5497346202,2800.37737865778
1893.43552965717,2800.38737865778
1882.77358819795,2800.39737865778
1871.50590853194,2800.40737865778
1860.83976400513,2800.41737865778
1851.08745251159,2800.42737865778
1843.20368436836,2800.43737865778
1835.15069837164,2800.44737865778
1827.18885573937,2800.45737865778
1819.1323088056,2800.46737865778
1814.23315995071,2800.47737865778
1817.06566003046,2800.48737865778
1824.75194688622,2800.49737865778
1832.75795655299,2800.50737865778
1836.11871340679,2800.51737865778
1838.43195726434,2800.52737865778
1836.22965195576,2800.53737865778
1829.62463631789,2800.54737865778
1822.49721989729,2800.55737865778
1816.25026424606,2800.56737865778
1813.710050197,2800.57737865778
1811.80297355275,2800.58737865778
1807.39814919411,2800.59737865778
1801.37332365123,2800.60737865778
1794.58763226751,2800.61737865778
1787.12853898729,2800.62737865778
1781.38375040411,2800.63737865778
1774.75486562636,2800.64737865778
1768.67253888494,2800.65737865778
1770.18903788382,2800.66737865778
1789.04343392934,2800.67737865778
1827.10974312621,2800.68737865778
1885.88506852587,2800.69737865778
1965.18099385932,2800.70737865778
2063.28893047969,2800.71737865778
2172.81005301544,2800.72737865778
2290.61589735759,2800.73737865778
2411.95296864836,2800.74737865778
2535.10895457788,2800.75737865778
2655.36103145483,2800.76737865778
2768.14296442509,2800.77737865778
2863.53747700932,2800.78737865778
2940.45526072085,2800.79737865778
2998.60631958578,2800.80737865778
3041.0681771969,2800.81737865778
3072.3649126105,2800.82737865778
3089.617715813,2800.83737865778
3097.61055614797,2800.84737865778
3095.28623777185,2800.85737865778
3084.57940999296,2800.86737865778
3064.59665092097,2800.87737865778
3040.24063171841,2800.88737865778
3010.69619374194,2800.89737865778
2973.54629534483,2800.90737865778
2936.74534499141,2800.91737865778
2899.4470578056,2800.92737865778
2861.05400383945,2800.93737865778
2823.51105782124,2800.94737865778
2784.03007850609,2800.95737865778
2744.74979564787,2800.96737865778
2710.62288806526,2800.97737865778
2674.10355962641,2800.98737865778
2641.73104317685,2800.99737865778
2612.08468847328,2801.00737865778
2581.71413593877,2801.01737865778
2553.57874889468,2801.02737865778
2532.90867923109,2801.03737865778
2508.0618500999,2801.04737865778
2486.63343639826,2801.05737865778
2469.52095310994,2801.06737865778
2450.77366972162,2801.07737865778
2436.73052064638,2801.08737865778
2424.61946036688,2801.09737865778
2410.68376349735,2801.10737865778
2391.44560240297,2801.11737865778
2374.9334405698,2801.12737865778
2362.65367637794,2801.13737865778
2347.05252766983,2801.14737865778
2331.71956123263,2801.15737865778
2315.02750786971,2801.16737865778
2302.95704441969,2801.17737865778
2290.40174389499,2801.18737865778
2278.48162453592,2801.19737865778
2269.4305426417,2801.20737865778
2253.16362106931,2801.21737865778
2237.83175992077,2801.22737865778
2219.50604365943,2801.23737865778
2197.88858094921,2801.24737865778
2178.08231334678,2801.25737865778
2157.95430440367,2801.26737865778
2138.0888839707,2801.27737865778
2117.28444310797,2801.28737865778
2095.86225026613,2801.29737865778
2073.81314226948,2801.30737865778
2055.23204357325,2801.31737865778
2040.28670745993,2801.32737865778
2025.39424202914,2801.33737865778
2008.04676905257,2801.34737865778
1992.50466676123,2801.35737865778
1976.47407912379,2801.36737865778
1959.48469286323,2801.37737865778
1945.81340616555,2801.38737865778
1935.37755983989,2801.39737865778
1926.3096545764,2801.40737865778
1914.96783028177,2801.41737865778
1900.32192990667,2801.42737865778
1887.01838505542,2801.43737865778
1868.30665443195,2801.44737865778
1844.7525558251,2801.45737865778
1822.71953621902,2801.46737865778
1803.37753095916,2801.47737865778
1781.6143649852,2801.48737865778
1758.50329771901,2801.49737865778
1739.84309778998,2801.50737865778
1726.41985262339,2801.51737865778
1717.95671464992,2801.52737865778
1713.68601788273,2801.53737865778
1710.24058140135,2801.54737865778
1704.18446244916,2801.55737865778
1703.43897480169,2801.56737865778
1698.48157600455,2801.57737865778
1690.14060751052,2801.58737865778
1684.38564276943,2801.59737865778
1679.1876283315,2801.60737865778
1676.55502134267,2801.61737865778
1673.40049902017,2801.62737865778
1672.83524891495,2801.63737865778
1675.52202072886,2801.64737865778
1673.48712168707,2801.65737865778
1668.10922876597,2801.66737865778
1662.46825989224,2801.67737865778
1657.80387659876,2801.68737865778
1656.91484944357,2801.69737865778
1661.42183502145,2801.70737865778
1666.97209647341,2801.71737865778
1678.17922476682,2801.72737865778
1703.66970722681,2801.73737865778
1743.78846439638,2801.74737865778
1806.24153370142,2801.75737865778
1890.18575139078,2801.76737865778
1994.47610038858,2801.77737865778
2112.19214463988,2801.78737865778
2242.01767106991,2801.79737865778
2374.11347462939,2801.80737865778
2506.41338343954,2801.81737865778
2632.68734822409,2801.82737865778
2756.07046955962,2801.83737865778
2869.19860308138,2801.84737865778
2962.31488409377,2801.85737865778
3032.59021385662,2801.86737865778
3086.13687138188,2801.87737865778
3122.27245890987,2801.88737865778
3144.02049776824,2801.89737865778
3152.6830769944,2801.90737865778
3150.6166619549,2801.91737865778
3137.54453409657,2801.92737865778
3116.11473348942,2801.93737865778
3093.31030808436,2801.94737865778
3066.86817862125,2801.95737865778
3038.88042571996,2801.96737865778
3008.18379552617,2801.97737865778
2975.68927658287,2801.98737865778
2944.02510548855,2801.99737865778
2908.65930884889,2802.00737865778
2873.89612534368,2802.01737865778
2835.53410610088,2802.02737865778
2796.69326322877,2802.03737865778
2763.66020373194,2802.04737865778
2731.63974865044,2802.05737865778
2698.35371520829,2802.06737865778
2665.28782453605,2802.07737865778
2630.97461986041,2802.08737865778
2596.46400800844,2802.09737865778
2565.65321316021,2802.10737865778
2541.72792420384,2802.11737865778
2519.58571819832,2802.12737865778
2501.15079367348,2802.13737865778
2487.76694998883,2802.14737865778
2475.84930625032,2802.15737865778
2462.9606443489,2802.16737865778
2445.21417236348,2802.17737865778
2429.5651703832,2802.18737865778
2413.2980647605,2802.19737865778
2400.01243421087,2802.20737865778
2384.47707715818,2802.21737865778
2368.48327739363,2802.22737865778
2347.58048743562,2802.23737865778
2324.02233747118,2802.24737865778
2290.44627260573,2802.25737865778
2253.10766265328,2802.26737865778
2215.10127192221,2802.27737865778
2173.45792864825,2802.28737865778
2138.11236249364,2802.29737865778
2106.59140133329,2802.30737865778
2077.83590383735,2802.31737865778
2049.04028283685,2802.32737865778
2020.43048987182,2802.33737865778
1988.83791194145,2802.34737865778
1958.89220133179,2802.35737865778
1932.68388080393,2802.36737865778
1912.50269357108,2802.37737865778
1897.09392652197,2802.38737865778
1887.74738883933,2802.39737865778
1881.20609712228,2802.40737865778
1873.79789420518,2802.41737865778
1864.34991026279,2802.42737865778
1847.92128938983,2802.43737865778
1833.92562322116,2802.44737865778
1820.53880074099,2802.45737865778
1812.55241968253,2802.46737865778
1806.80263625637,2802.47737865778
1797.2605991836,2802.48737865778
1785.07195996471,2802.49737865778
1770.38613036934,2802.50737865778
1758.37082672808,2802.51737865778
1739.60043536864,2802.52737865778
1724.3387515554,2802.53737865778
1713.67553441757,2802.54737865778
1705.2192728164,2802.55737865778
1698.59284145855,2802.56737865778
1689.8934594136,2802.57737865778
1684.85573919074,2802.58737865778
1677.11307427867,2802.59737865778
1672.41212650262,2802.60737865778
1674.13304192416,2802.61737865778
1676.35731851577,2802.62737865778
1674.27344588388,2802.63737865778
1665.11542713034,2802.64737865778
1654.95246154296,2802.65737865778
1645.00179145956,2802.66737865778
1635.00904781661,2802.67737865778
1627.30515356482,2802.68737865778
1621.43065839843,2802.69737865778
1617.72686609501,2802.70737865778
1612.72616388281,2802.71737865778
1605.91540894444,2802.72737865778
1604.75851736737,2802.73737865778
1608.0560095295,2802.74737865778
1616.61864941507,2802.75737865778
1627.27658067525,2802.76737865778
1633.61593388051,2802.77737865778
1634.1578344642,2802.78737865778
1630.61421777796,2802.79737865778
1621.74129432447,2802.80737865778
1615.12548670116,2802.81737865778
1607.65543384511,2802.82737865778
1606.65037725876,2802.83737865778
1612.1605304347,2802.84737865778
1622.28442908368,2802.85737865778
1639.85534731636,2802.86737865778
1666.71336569744,2802.87737865778
1710.79434129847,2802.88737865778
1769.93858250508,2802.89737865778
1851.65364596186,2802.90737865778
1952.84350096489,2802.91737865778
2066.02083354412,2802.92737865778
2186.67882963626,2802.93737865778
2315.23831209748,2802.94737865778
2440.9596219053,2802.95737865778
2562.89914495733,2802.96737865778
2671.50699577207,2802.97737865778
2764.85195262038,2802.98737865778
2841.63955611225,2802.99737865778
2898.56580852392,2803.00737865778
2934.0068970998,2803.01737865778
2956.81627851049,2803.02737865778
2972.18502877625,2803.03737865778
2976.13887732003,2803.04737865778
2968.25364960299,2803.05737865778
2950.77666003215,2803.06737865778
2923.3237872517,2803.07737865778
2893.45602908588,2803.08737865778
2861.14585580203,2803.09737865778
2826.50587920706,2803.10737865778
2792.70681312428,2803.11737865778
2759.35836349021,2803.12737865778
2726.63842880994,2803.13737865778
2692.66832786935,2803.14737865778
2658.43865547719,2803.15737865778
2622.52320435218,2803.16737865778
2585.39668855711,2803.17737865778
2544.02002383585,2803.18737865778
2505.99818650817,2803.19737865778
2472.19294959611,2803.20737865778
2444.8562841136,2803.21737865778
2419.00145331423,2803.22737865778
2399.04782741473,2803.23737865778
2378.88175729331,2803.24737865778
2364.36590601359,2803.25737865778
2353.90349220107,2803.26737865778
2343.86310444699,2803.27737865778
2327.04254570297,2803.28737865778
2307.60331028684,2803.29737865778
2289.28986020227,2803.30737865778
2270.82509024401,2803.31737865778
2255.20066180851,2803.32737865778
2240.0549426041,2803.33737865778
2224.11553249106,2803.34737865778
2210.97740085284,2803.35737865778
2195.69806306199,2803.36737865778
2177.70963330028,2803.37737865778
2154.94434841556,2803.38737865778
2129.56809128126,2803.39737865778
2103.1205986204,2803.40737865778
2074.30643560952,2803.41737865778
2052.65309627328,2803.42737865778
2031.45301582784,2803.43737865778
2011.60466051133,2803.44737865778
1993.68840593222,2803.45737865778
1983.05684172721,2803.46737865778
1971.37234146087,2803.47737865778
1955.06879496188,2803.48737865778
1937.50263148937,2803.49737865778
1918.5758546029,2803.50737865778
1898.1673953165,2803.51737865778
1876.67277863565,2803.52737865778
1858.48996634732,2803.53737865778
1845.09281454669,2803.54737865778
1827.86628883853,2803.55737865778
1811.06068899364,2803.56737865778
1796.50330630839,2803.57737865778
1780.00553640062,2803.58737865778
1768.65738623192,2803.59737865778
1762.09844948567,2803.60737865778
1759.9228188729,2803.61737865778
1761.39856976852,2803.62737865778
1759.98462168336,2803.63737865778
1756.66693394686,2803.64737865778
1750.19580145841,2803.65737865778
1745.06442161106,2803.66737865778
1746.03055500169,2803.67737865778
1750.50406265863,2803.68737865778
1756.79210154985,2803.69737865778
1763.91422580115,2803.70737865778
1771.70472532128,2803.71737865778
1779.8585474659,2803.72737865778
1787.77640166784,2803.73737865778
1792.79204907737,2803.74737865778
1792.91447885807,2803.75737865778
1795.62899785878,2803.76737865778
1795.87994266024,2803.77737865778
1797.07225114615,2803.78737865778
1799.2014876974,2803.79737865778
1801.41527606161,2803.80737865778
1802.12871878362,2803.81737865778
1801.99855438606,2803.82737865778
1799.46595406942,2803.83737865778
1801.31543233229,2803.84737865778
1799.64806251131,2803.85737865778
1798.60344427206,2803.86737865778
1794.26373130621,2803.87737865778
1788.97731012124,2803.88737865778
1786.5612247471,2803.89737865778
1794.66573853527,2803.90737865778
1810.06691413442,2803.91737865778
1836.37144009641,2803.92737865778
1879.08081760204,2803.93737865778
1937.2743111079,2803.94737865778
2013.6348817332,2803.95737865778
2111.87515843945,2803.96737865778
2208.36425348213,2803.97737865778
2323.91749446958,2803.98737865778
2439.62819315216,2803.99737865778
2553.93988828406,2804.00737865778
2663.69336506037,2804.01737865778
2764.84014120274,2804.02737865778
2857.20230488103,2804.03737865778
2936.88655061727,2804.04737865778
2999.0682299525,2804.05737865778
3044.50561244944,2804.06737865778
3072.59057571971,2804.07737865778
3087.28354098979,2804.08737865778
3089.33913898521,2804.09737865778
3083.94376680641,2804.10737865778
3068.8302900098,2804.11737865778
3047.09966992115,2804.12737865778
3024.18676687784,2804.13737865778
2998.63905622258,2804.14737865778
2971.81650341968,2804.15737865778
2938.84174736503,2804.16737865778
2899.87845673588,2804.17737865778
2862.59150494488,2804.18737865778
2823.67571403928,2804.19737865778
2793.0712009839,2804.20737865778
2764.32935810988,2804.21737865778
2730.60968372561,2804.22737865778
2693.95534834281,2804.23737865778
2660.21461558012,2804.24737865778
2632.8581969947,2804.25737865778
2614.07913605226,2804.26737865778
2600.69915151293,2804.27737865778
2589.53541832044,2804.28737865778
2585.81082503151,2804.29737865778
2580.58578425026,2804.30737865778
2571.12963299146,2804.31737865778
2560.77274340667,2804.32737865778
2555.02714228532,2804.33737865778
2552.97078652614,2804.34737865778
2545.10832017052,2804.35737865778
2530.41125673418,2804.36737865778
2512.0991906994,2804.37737865778
2492.1690385054,2804.38737865778
2468.77704751354,2804.39737865778
2444.69694094221,2804.40737865778
2424.66166889807,2804.41737865778
2398.88776474664,2804.42737865778
2368.76969250337,2804.43737865778
2337.73874069294,2804.44737865778
2305.78093225646,2804.45737865778
2271.52319301,2804.46737865778
2239.96381774224,2804.47737865778
2209.8691581868,2804.48737865778
2181.38112701621,2804.49737865778
2161.95911328384,2804.50737865778
2144.79037897261,2804.51737865778
2131.60730541603,2804.52737865778
2119.63327585602,2804.53737865778
2106.45454594766,2804.54737865778
2090.15792681494,2804.55737865778
2070.72628797564,2804.56737865778
2048.83857455224,2804.57737865778
2024.37357186043,2804.58737865778
2001.48342291461,2804.59737865778
1983.18848588502,2804.60737865778
1965.12545059898,2804.61737865778
1949.68660328103,2804.62737865778
1932.29241969617,2804.63737865778
1916.50773755795,2804.64737865778
1900.11416796461,2804.65737865778
1888.46040788027,2804.66737865778
1877.8091037769,2804.67737865778
1868.82557291464,2804.68737865778
1862.35632773952,2804.69737865778
1858.80273811302,2804.70737865778
1850.77833727733,2804.71737865778
1832.27082884409,2804.72737865778
1811.94541025495,2804.73737865778
1794.3024974985,2804.74737865778
1776.88572605596,2804.75737865778
1762.04470911816,2804.76737865778
1740.79393903831,2804.77737865778
1719.11599976815,2804.78737865778
1702.65969316363,2804.79737865778
1688.02927564587,2804.80737865778
1676.10933904964,2804.81737865778
1661.16191151456,2804.82737865778
1648.48250182821,2804.83737865778
1633.08579738704,2804.84737865778
1620.59321128173,2804.85737865778
1609.67032790432,2804.86737865778
1605.61186116174,2804.87737865778
1603.87785604689,2804.88737865778
1603.89441995027,2804.89737865778
1607.11336894204,2804.90737865778
1616.92118917071,2804.91737865778
1626.90902006198,2804.92737865778
1631.43232789607,2804.93737865778
1629.65667869786,2804.94737865778
1627.63599076848,2804.95737865778
1627.8569270412,2804.96737865778
1630.62812090847,2804.97737865778
1644.83183627841,2804.98737865778
1673.14011138706,2804.99737865778
1716.4173795644,2805.00737865778
1776.29310052209,2805.01737865778
1851.5514372634,2805.02737865778
1944.3829691145,2805.03737865778
2055.08826647263,2805.04737865778
2181.9714004285,2805.05737865778
2320.53750014046,2805.06737865778
2462.14719071394,2805.07737865778
2601.95169253607,2805.08737865778
2737.16807010034,2805.09737865778
2862.55595037937,2805.10737865778
2971.38510543218,2805.11737865778
3055.22082545531,2805.12737865778
3119.25870270278,2805.13737865778
3162.11426577633,2805.14737865778
3189.37955012617,2805.15737865778
3204.71163384131,2805.16737865778
3204.45121358406,2805.17737865778
3196.51964946992,2805.18737865778
3187.68486302334,2805.19737865778
3168.90802119775,2805.20737865778
3150.39328358306,2805.21737865778
3129.13352772323,2805.22737865778
3100.81613619002,2805.23737865778
3067.08691441293,2805.24737865778
3029.30678469361,2805.25737865778
2993.39211755128,2805.26737865778
2955.83487901767,2805.27737865778
2922.35509203527,2805.28737865778
2897.35992930995,2805.29737865778
2869.08589061295,2805.30737865778
2841.33999104342,2805.31737865778
2812.28225268938,2805.32737865778
2781.6284305927,2805.33737865778
2755.51203777463,2805.34737865778
2726.04264561449,2805.35737865778
2696.02836395206,2805.36737865778
2665.74025959535,2805.37737865778
2637.70830551992,2805.38737865778
2616.72243791581,2805.39737865778
2595.56273888789,2805.40737865778
2577.1673446321,2805.41737865778
2558.51683631136,2805.42737865778
2536.67968314934,2805.43737865778
2515.09625225995,2805.44737865778
2489.15139151575,2805.45737865778
2462.92332431844,2805.46737865778
2443.24199564784,2805.47737865778
2420.40781271162,2805.48737865778
2399.3973331635,2805.49737865778
2374.69436563102,2805.50737865778
2350.05061220283,2805.51737865778
2323.55867444065,2805.52737865778
2296.83667887465,2805.53737865778
2270.64315594768,2805.54737865778
2241.36247220168,2805.55737865778
2211.97674926103,2805.56737865778
2183.00710405642,2805.57737865778
2155.05954576914,2805.58737865778
2125.8414607943,2805.59737865778
2099.05770203469,2805.60737865778
2081.77248392051,2805.61737865778
2063.19225245209,2805.62737865778
2043.03172126932,2805.63737865778
2020.19910775423,2805.64737865778
1998.75086040905,2805.65737865778
1978.89284489072,2805.66737865778
1961.86509882636,2805.67737865778
1942.35982211417,2805.68737865778
1921.9322070944,2805.69737865778
1906.51112002359,2805.70737865778
1893.57820024281,2805.71737865778
1881.18715386651,2805.72737865778
1862.94272459745,2805.73737865778
1845.59438672394,2805.74737865778
1828.29839746525,2805.75737865778
1810.24907089343,2805.76737865778
1794.33619048155,2805.77737865778
1776.28369280973,2805.78737865778
1757.24549914011,2805.79737865778
1739.30578433169,2805.80737865778
1725.0346268708,2805.81737865778
1709.41568785334,2805.82737865778
1695.75555879876,2805.83737865778
1683.74013003694,2805.84737865778
1674.26765654858,2805.85737865778
1662.87716353403,2805.86737865778
1650.79123796022,2805.87737865778
1635.58609849299,2805.88737865778
1614.41241406408,2805.89737865778
1599.39655027725,2805.90737865778
1591.10753133021,2805.91737865778
1588.7558329758,2805.92737865778
1589.12929650241,2805.93737865778
1586.46412281508,2805.94737865778
1583.52790591411,2805.95737865778
1579.77093603696,2805.96737865778
1574.73521592137,2805.97737865778
1567.39883480417,2805.98737865778
1555.9451851281,2805.99737865778
1538.17373858989,2806.00737865778
1515.44135591078,2806.01737865778
1497.14722987031,2806.02737865778
1481.37630894661,2806.03737865778
1469.89061439751,2806.04737865778
1461.98030857037,2806.05737865778
1456.31023172345,2806.06737865778
1450.37849779676,2806.07737865778
1458.30622636361,2806.08737865778
1479.45128916379,2806.09737865778
1514.5510654114,2806.10737865778
1569.25020443046,2806.11737865778
1644.06348983053,2806.12737865778
1743.14129852835,2806.13737865778
1858.95752943089,2806.14737865778
1989.70176056077,2806.15737865778
2131.00700626519,2806.16737865778
2275.64021938768,2806.17737865778
2416.31688461229,2806.18737865778
2554.70259955747,2806.19737865778
2678.40928994526,2806.20737865778
2783.34461693434,2806.21737865778
2871.03329016515,2806.22737865778
2938.90168428139,2806.23737865778
2987.95820479825,2806.24737865778
3016.73743781969,2806.25737865778
3029.81381273839,2806.26737865778
3032.88855259378,2806.27737865778
3025.72750045435,2806.28737865778
3008.82724092236,2806.29737865778
2981.59193810711,2806.30737865778
2950.22365528802,2806.31737865778
2914.61526382564,2806.32737865778
2878.4593987245,2806.33737865778
2840.16525390239,2806.34737865778
2802.43393609546,2806.35737865778
2763.3009429206,2806.36737865778
2725.12626202402,2806.37737865778
2689.66860965442,2806.38737865778
2652.96663385638,2806.39737865778
2618.6915237635,2806.40737865778
2581.11497137512,2806.41737865778
2541.73145287159,2806.42737865778
2507.50462111074,2806.43737865778
2474.35610281374,2806.44737865778
2446.23763274141,2806.45737865778
2422.84090824465,2806.46737865778
2402.31706753634,2806.47737865778
2380.80798966598,2806.48737865778
2358.82576926755,2806.49737865778
2336.61374360373,2806.50737865778
2312.74887135739,2806.51737865778
2290.56764828888,2806.52737865778
2269.90074702835,2806.53737865778
2250.4765629229,2806.54737865778
2233.35833417204,2806.55737865778
2216.34862006678,2806.56737865778
2193.70671195688,2806.57737865778
2170.92460928052,2806.58737865778
2144.16894788538,2806.59737865778
2117.81126992743,2806.60737865778
2088.46278949076,2806.61737865778
2066.08613092049,2806.62737865778
2046.73271431461,2806.63737865778
2023.18572956734,2806.64737865778
1996.81893735697,2806.65737865778
1969.09223318647,2806.66737865778
1944.41806721919,2806.67737865778
1928.42621731806,2806.68737865778
1917.73324402339,2806.69737865778
1913.64060869158,2806.70737865778
1909.42189647928,2806.71737865778
1901.04916646853,2806.72737865778
1888.46389231625,2806.73737865778
1870.69389508432,2806.74737865778
1852.6399445289,2806.75737865778
1837.83687822104,2806.76737865778
1826.74384252427,2806.77737865778
1813.08998766193,2806.78737865778
1803.40085764223,2806.79737865778
1791.47851325385,2806.80737865778
1781.81578629286,2806.81737865778
1774.21776622537,2806.82737865778
1764.65705825724,2806.83737865778
1762.99608633505,2806.84737865778
1758.14578391343,2806.85737865778
1750.99208456648,2806.86737865778
1744.1700727299,2806.87737865778
