PPG,time
-0.170954665572366,1503.07055193406
-0.342073253985545,1503.08055193406
-0.307278974841778,1503.09055193406
-0.334710976208518,1503.10055193406
-0.326500893442816,1503.11055193406
-0.340894276040435,1503.12055193406
-0.34126977436904,1503.13055193406
-0.350263132800838,1503.14055193406
-0.353080630119268,1503.15055193406
-0.357275742466803,1503.16055193406
-0.357333879702076,1503.17055193406
-0.348874278910055,1503.18055193406
-0.323868690148485,1503.19055193406
-0.275892102003962,1503.20055193406
-0.202332762078709,1503.21055193406
-0.104231587971478,1503.22055193406
0.0113904445225194,1503.23055193406
0.132178026044595,1503.24055193406
0.242732422302393,1503.25055193406
0.330435985556302,1503.26055193406
0.387178609008691,1503.27055193406
0.412657091383795,1503.28055193406
0.412116743357169,1503.29055193406
0.392486451735886,1503.30055193406
0.36055580890292,1503.31055193406
0.322561494924592,1503.32055193406
0.281219903465584,1503.33055193406
0.238970250500035,1503.34055193406
0.197391010803395,1503.35055193406
0.157605604572691,1503.36055193406
0.120601764350951,1503.37055193406
0.0873349852115822,1503.38055193406
0.0576715442794752,1503.39055193406
0.0310303298653034,1503.40055193406
0.00707886643536052,1503.41055193406
-0.0137493787987769,1503.42055193406
-0.0327100500912328,1503.43055193406
-0.0497225140022978,1503.44055193406
-0.0650245477132535,1503.45055193406
-0.0793363815203807,1503.46055193406
-0.0927357233916122,1503.47055193406
-0.105636830951988,1503.48055193406
-0.117384525958406,1503.49055193406
-0.128207565701637,1503.50055193406
-0.138452529868008,1503.51055193406
-0.14698661747253,1503.52055193406
-0.154530121929833,1503.53055193406
-0.159947098906181,1503.54055193406
-0.162837925557675,1503.55055193406
-0.163080389839515,1503.56055193406
-0.160500224034979,1503.57055193406
-0.155972941898868,1503.58055193406
-0.149713739502061,1503.59055193406
-0.142656655878929,1503.60055193406
-0.135798865345178,1503.61055193406
-0.130736815638981,1503.62055193406
-0.127340158266404,1503.63055193406
-0.126384957602732,1503.64055193406
-0.127739192683701,1503.65055193406
-0.131346821881983,1503.66055193406
-0.137056442217267,1503.67055193406
-0.144313684442847,1503.68055193406
-0.152905961143636,1503.69055193406
-0.163066941205307,1503.70055193406
-0.173301246292414,1503.71055193406
-0.183831636110478,1503.72055193406
-0.194316328806029,1503.73055193406
-0.204575490975823,1503.74055193406
-0.213469635305157,1503.75055193406
-0.221977086303404,1503.76055193406
-0.22987492075935,1503.77055193406
-0.237275556211194,1503.78055193406
-0.244349243665591,1503.79055193406
-0.251396421587577,1503.80055193406
-0.258872590266859,1503.81055193406
-0.266435967130865,1503.82055193406
-0.27369127631923,1503.83055193406
-0.280577892031056,1503.84055193406
-0.286782310094694,1503.85055193406
-0.293132467300068,1503.86055193406
-0.299556169070137,1503.87055193406
-0.3058107604511,1503.88055193406
-0.312052596427598,1503.89055193406
-0.317790408037672,1503.90055193406
-0.323751229719713,1503.91055193406
-0.32980538439844,1503.92055193406
-0.335538115918246,1503.93055193406
-0.34024218004453,1503.94055193406
-0.342531728500483,1503.95055193406
-0.33656218627734,1503.96055193406
-0.315491670105267,1503.97055193406
-0.27206873925655,1503.98055193406
-0.202172134986065,1503.99055193406
-0.10635759066029,1504.00055193406
0.0109497541241977,1504.01055193406
0.136762084860126,1504.02055193406
0.255316189478071,1504.03055193406
0.352781257777068,1504.04055193406
0.419580407333119,1504.05055193406
0.455132859063014,1504.06055193406
0.463278430974993,1504.07055193406
0.450603556209652,1504.08055193406
0.424399910530516,1504.09055193406
0.390578425515808,1504.10055193406
0.352568501131075,1504.11055193406
0.313084465407607,1504.12055193406
0.273658878600048,1504.13055193406
0.234903072769748,1504.14055193406
0.197959780625829,1504.15055193406
0.163298775945616,1504.16055193406
0.130842362367389,1504.17055193406
0.101696503365813,1504.18055193406
0.0755675873800177,1504.19055193406
0.0519679980510335,1504.20055193406
0.0312394087077437,1504.21055193406
0.0119131451310431,1504.22055193406
-0.00609911350663261,1504.23055193406
-0.0237141960031271,1504.24055193406
-0.0410457397493435,1504.25055193406
-0.0572866368564365,1504.26055193406
-0.0721844829016811,1504.27055193406
-0.0856128772664703,1504.28055193406
-0.096927683520709,1504.29055193406
-0.106859235429988,1504.30055193406
-0.115002001596962,1504.31055193406
-0.121175717195737,1504.32055193406
-0.124801301785,1504.33055193406
-0.125594900770351,1504.34055193406
-0.123282109370512,1504.35055193406
-0.117881125406668,1504.36055193406
-0.109855576664672,1504.37055193406
-0.100079251804668,1504.38055193406
-0.0902718563101324,1504.39055193406
-0.0817099195103159,1504.40055193406
-0.0747616287640224,1504.41055193406
-0.0708533359887711,1504.42055193406
-0.0700474177714877,1504.43055193406
-0.0717654533116859,1504.44055193406
-0.0766175951499634,1504.45055193406
-0.0833103506573854,1504.46055193406
-0.0918635432480813,1504.47055193406
-0.10199422942751,1504.48055193406
-0.112784846805707,1504.49055193406
-0.124219973127186,1504.50055193406
-0.135803666999777,1504.51055193406
-0.146850143077362,1504.52055193406
-0.15750183010848,1504.53055193406
-0.167523469854147,1504.54055193406
-0.177203908773243,1504.55055193406
-0.186629606622398,1504.56055193406
-0.195379622415331,1504.57055193406
-0.203777199008768,1504.58055193406
-0.211959205541726,1504.59055193406
-0.219878215925801,1504.60055193406
-0.227270276108404,1504.61055193406
-0.234758474227362,1504.62055193406
-0.24220923254241,1504.63055193406
-0.248976025282095,1504.64055193406
-0.255768690909604,1504.65055193406
-0.262124229786923,1504.66055193406
-0.268474934059642,1504.67055193406
-0.274975070487069,1504.68055193406
-0.280542042275725,1504.69055193406
-0.286966923620945,1504.70055193406
-0.293279126573578,1504.71055193406
-0.299948283107996,1504.72055193406
-0.306367813470088,1504.73055193406
-0.310665233366382,1504.74055193406
-0.308949121147391,1504.75055193406
-0.293029548230123,1504.76055193406
-0.255885692944606,1504.77055193406
-0.190785009663291,1504.78055193406
-0.0944991739624047,1504.79055193406
0.0286619897367386,1504.80055193406
0.16524078169335,1504.81055193406
0.297446423494087,1504.82055193406
0.407439223991375,1504.83055193406
0.484942158826394,1504.84055193406
0.527254774126991,1504.85055193406
0.53887640117766,1504.86055193406
0.528283421806181,1504.87055193406
0.503875764793368,1504.88055193406
0.471688509578423,1504.89055193406
0.436223762890472,1504.90055193406
0.399433606812906,1504.91055193406
0.362500408696552,1504.92055193406
0.325797310173036,1504.93055193406
0.289438764557438,1504.94055193406
0.255378279376179,1504.95055193406
0.223375451708804,1504.96055193406
0.1939500119179,1504.97055193406
0.167933933487477,1504.98055193406
0.144850917035157,1504.99055193406
0.124476636836154,1505.00055193406
0.106168028889548,1505.01055193406
0.0881570155635089,1505.02055193406
0.071011507705968,1505.03055193406
0.0535534015131427,1505.04055193406
0.036355828137031,1505.05055193406
0.0198221880103617,1505.06055193406
0.00387167370398348,1505.07055193406
-0.0107628271829225,1505.08055193406
-0.0236883674075692,1505.09055193406
-0.035156220013267,1505.10055193406
-0.0442066354936211,1505.11055193406
-0.0506540324967176,1505.12055193406
-0.0542863662961991,1505.13055193406
-0.05413201753598,1505.14055193406
-0.0510858194923569,1505.15055193406
-0.0456003222725475,1505.16055193406
-0.0375731164893126,1505.17055193406
-0.0285400335795463,1505.18055193406
-0.0195338693782436,1505.19055193406
-0.0118142738817242,1505.20055193406
-0.00661319975652737,1505.21055193406
-0.00389932764717007,1505.22055193406
-0.00429609502141028,1505.23055193406
-0.00758046490771786,1505.24055193406
-0.0135368166698707,1505.25055193406
-0.0213495247072782,1505.26055193406
-0.0312145236318775,1505.27055193406
-0.0421701612254578,1505.28055193406
-0.0534308017970038,1505.29055193406
-0.0649129462616434,1505.30055193406
-0.076270221954412,1505.31055193406
-0.087563840735785,1505.32055193406
-0.0985108273886955,1505.33055193406
-0.109337852920497,1505.34055193406
-0.119733851367556,1505.35055193406
-0.130302776064545,1505.36055193406
-0.140380509543451,1505.37055193406
-0.150015461281435,1505.38055193406
-0.159253087266238,1505.39055193406
-0.167758745006481,1505.40055193406
-0.175181785637654,1505.41055193406
-0.182972461066928,1505.42055193406
-0.190409603755506,1505.43055193406
-0.198349643893081,1505.44055193406
-0.205408548910581,1505.45055193406
-0.212749270329864,1505.46055193406
-0.220003402810767,1505.47055193406
-0.22674220737186,1505.48055193406
-0.233472343349058,1505.49055193406
-0.240545711715009,1505.50055193406
-0.247277160389985,1505.51055193406
-0.253790100930903,1505.52055193406
-0.260531854686264,1505.53055193406
-0.26721242629113,1505.54055193406
-0.273666921778717,1505.55055193406
-0.278035133586542,1505.56055193406
-0.277693799452686,1505.57055193406
-0.266421411879664,1505.58055193406
-0.235771296855723,1505.59055193406
-0.179069420520485,1505.60055193406
-0.0925093584504178,1505.61055193406
0.0219670759319709,1505.62055193406
0.153393380845959,1505.63055193406
0.284785704968702,1505.64055193406
0.39807876045349,1505.65055193406
0.481244433700878,1505.66055193406
0.530073469291632,1505.67055193406
0.547967280051112,1505.68055193406
0.541387784480408,1505.69055193406
0.518743985040553,1505.70055193406
0.486654498926922,1505.71055193406
0.449400945089376,1505.72055193406
0.410253218796065,1505.73055193406
0.369901911526809,1505.74055193406
0.329720634030434,1505.75055193406
0.290640318743234,1505.76055193406
0.253765550994395,1505.77055193406
0.219681179412156,1505.78055193406
0.189629247911893,1505.79055193406
0.162972159088634,1505.80055193406
0.139397706019424,1505.81055193406
0.118438636996622,1505.82055193406
0.0995116379258409,1505.83055193406
0.0814749923317938,1505.84055193406
0.0638748014834827,1505.85055193406
0.045853632989368,1505.86055193406
0.0285790164174841,1505.87055193406
0.0123430230311648,1505.88055193406
-0.00254182798747553,1505.89055193406
-0.0164113183420903,1505.90055193406
-0.0288378881401671,1505.91055193406
-0.0387284880088354,1505.92055193406
-0.0466024282607234,1505.93055193406
-0.0511205978345194,1505.94055193406
-0.0524308450021996,1505.95055193406
-0.0500849186493005,1505.96055193406
-0.0442015082751217,1505.97055193406
-0.0347389606255664,1505.98055193406
-0.0231909247125996,1505.99055193406
-0.0107865851292798,1506.00055193406
0.00140027230553712,1506.01055193406
0.0121655855636086,1506.02055193406
0.0210080098651729,1506.03055193406
0.0264973376701388,1506.04055193406
0.0279685429008767,1506.05055193406
0.0259773596006048,1506.06055193406
0.0207250543736139,1506.07055193406
0.0124299587168967,1506.08055193406
0.00199585096461724,1506.09055193406
-0.00973672447329389,1506.10055193406
-0.0223100894347945,1506.11055193406
-0.0352504057166562,1506.12055193406
-0.0481805901603274,1506.13055193406
-0.0608366229212304,1506.14055193406
-0.0724230536134301,1506.15055193406
-0.0838738430972023,1506.16055193406
-0.0946202075758344,1506.17055193406
-0.105663248728437,1506.18055193406
-0.116449418032317,1506.19055193406
-0.126655970181071,1506.20055193406
-0.136573824054137,1506.21055193406
-0.146042631727261,1506.22055193406
-0.154587018530173,1506.23055193406
-0.162994893590267,1506.24055193406
-0.170841936561968,1506.25055193406
-0.178484029239507,1506.26055193406
-0.186173940515156,1506.27055193406
-0.193841891647521,1506.28055193406
-0.201165232272336,1506.29055193406
-0.208633458582544,1506.30055193406
-0.216189539947933,1506.31055193406
-0.223458198086402,1506.32055193406
-0.230969010010834,1506.33055193406
-0.238512449502392,1506.34055193406
-0.245790076784131,1506.35055193406
-0.252635699243394,1506.36055193406
-0.257830067670253,1506.37055193406
-0.258781843269263,1506.38055193406
-0.248734633706638,1506.39055193406
-0.220807313513544,1506.40055193406
-0.167408815863451,1506.41055193406
-0.083202174782629,1506.42055193406
0.0300775454261978,1506.43055193406
0.163069316703192,1506.44055193406
0.298105554249964,1506.45055193406
0.416141968177472,1506.46055193406
0.50384463713425,1506.47055193406
0.556472756839514,1506.48055193406
0.576611726637688,1506.49055193406
0.571462022623374,1506.50055193406
0.549729592681955,1506.51055193406
0.518035332552187,1506.52055193406
0.48122425285194,1506.53055193406
0.442024380056372,1506.54055193406
0.402100112618762,1506.55055193406
0.362001951927738,1506.56055193406
0.322791146557333,1506.57055193406
0.284913798588975,1506.58055193406
0.249883982312993,1506.59055193406
0.217871070064705,1506.60055193406
0.189596393612714,1506.61055193406
0.164435262940931,1506.62055193406
0.141474003691428,1506.63055193406
0.120084046103193,1506.64055193406
0.0995264243790065,1506.65055193406
0.0799766813465947,1506.66055193406
0.0610045124973912,1506.67055193406
0.042195418461791,1506.68055193406
0.0244216310166856,1506.69055193406
0.00797578449905476,1506.70055193406
-0.00642054083343953,1506.71055193406
-0.0182961143307993,1506.72055193406
-0.0266907536533828,1506.73055193406
-0.0314264679986264,1506.74055193406
-0.0318264876974189,1506.75055193406
-0.0279967144649035,1506.76055193406
-0.0194827739574701,1506.77055193406
-0.00697219945794734,1506.78055193406
0.00838935994543457,1506.79055193406
0.0257675729979832,1506.80055193406
0.0430530475187457,1506.81055193406
0.0588794409975162,1506.82055193406
0.0711389474890775,1506.83055193406
0.0784368862045002,1506.84055193406
0.0806957608876663,1506.85055193406
0.0779534368311808,1506.86055193406
0.0710415965871918,1506.87055193406
0.0608220101042755,1506.88055193406
0.0487159099676183,1506.89055193406
0.0356124322113317,1506.90055193406
0.0223849571185031,1506.91055193406
0.0092154161259099,1506.92055193406
-0.00386807807946598,1506.93055193406
-0.0175368259945258,1506.94055193406
-0.0314964724765028,1506.95055193406
-0.0449814377532243,1506.96055193406
-0.0584653806846551,1506.97055193406
-0.0711926934308443,1506.98055193406
-0.0835300793877403,1506.99055193406
-0.09456495149246,1507.00055193406
-0.10525257371806,1507.01055193406
-0.115372161532401,1507.02055193406
-0.124803557932598,1507.03055193406
-0.133784182870346,1507.04055193406
-0.142053200291136,1507.05055193406
-0.149747356926217,1507.06055193406
-0.157492830999812,1507.07055193406
-0.16542563625101,1507.08055193406
-0.173341550592502,1507.09055193406
-0.181137602120029,1507.10055193406
-0.188523175669588,1507.11055193406
-0.195561410260841,1507.12055193406
-0.202165418387828,1507.13055193406
-0.208953900650695,1507.14055193406
-0.216049144261171,1507.15055193406
-0.222958864772428,1507.16055193406
-0.229465934639765,1507.17055193406
-0.233537868046381,1507.18055193406
-0.231047372815689,1507.19055193406
-0.214346950632852,1507.20055193406
-0.174854135129168,1507.21055193406
-0.104660388468552,1507.22055193406
0.000158799441278924,1507.23055193406
0.132861311181631,1507.24055193406
0.277497823488936,1507.25055193406
0.412477083884999,1507.26055193406
0.520262806010895,1507.27055193406
0.591238278294815,1507.28055193406
0.626118646730566,1507.29055193406
0.631525939139728,1507.30055193406
0.616518343801414,1507.31055193406
0.589269891710654,1507.32055193406
0.555789112682094,1507.33055193406
0.519448853106728,1507.34055193406
0.482144049832995,1507.35055193406
0.444535623963453,1507.36055193406
0.407169608012253,1507.37055193406
0.370665592665419,1507.38055193406
0.336735987064666,1507.39055193406
0.305502035663382,1507.40055193406
0.277159135271464,1507.41055193406
0.253193649690711,1507.42055193406
0.232022671609725,1507.43055193406
0.213319678254599,1507.44055193406
0.196119177915976,1507.45055193406
0.179552801430799,1507.46055193406
0.162695697802051,1507.47055193406
0.144489631188844,1507.48055193406
0.126003156480129,1507.49055193406
0.107495003473684,1507.50055193406
0.0898596121582189,1507.51055193406
0.0742577537046815,1507.52055193406
0.0605113781683313,1507.53055193406
0.0497887295899114,1507.54055193406
0.0429611786731791,1507.55055193406
0.0398535132918105,1507.56055193406
0.0408265283340827,1507.57055193406
0.0461484298078816,1507.58055193406
0.0551301322404225,1507.59055193406
0.067535283810351,1507.60055193406
0.0809732981462143,1507.61055193406
0.0947271344525329,1507.62055193406
0.10712086928579,1507.63055193406
0.116115672096805,1507.64055193406
0.121349148233867,1507.65055193406
0.122675013840531,1507.66055193406
0.119819288679491,1507.67055193406
0.113265737772249,1507.68055193406
0.103563817320193,1507.69055193406
0.0917547424579551,1507.70055193406
0.0784564536516003,1507.71055193406
0.0645434413897263,1507.72055193406
0.0502785804469805,1507.73055193406
0.0358009360487752,1507.74055193406
0.0216556066415636,1507.75055193406
0.00767653835007264,1507.76055193406
-0.00599399269331235,1507.77055193406
-0.0193513602213115,1507.78055193406
-0.0317171324290607,1507.79055193406
-0.0437746969304999,1507.80055193406
-0.0556929612208347,1507.81055193406
-0.0671246438902035,1507.82055193406
-0.078219870781674,1507.83055193406
-0.0887762197765465,1507.84055193406
-0.0985638882801576,1507.85055193406
-0.108096177279683,1507.86055193406
-0.116974864345166,1507.87055193406
-0.125926084577276,1507.88055193406
-0.134237018932346,1507.89055193406
-0.143062497643604,1507.90055193406
-0.151573052524639,1507.91055193406
-0.159671057375577,1507.92055193406
-0.167499887134977,1507.93055193406
-0.17539663576257,1507.94055193406
-0.182963677470428,1507.95055193406
-0.19069559699084,1507.96055193406
-0.198347236156689,1507.97055193406
-0.206294957639157,1507.98055193406
-0.214401317994426,1507.99055193406
-0.222078065298695,1508.00055193406
-0.226819945494118,1508.01055193406
-0.223240369164797,1508.02055193406
-0.203019092770177,1508.03055193406
-0.157095695220095,1508.04055193406
-0.0768595289774232,1508.05055193406
0.0390278395397586,1508.06055193406
0.180983616204302,1508.07055193406
0.329665509504476,1508.08055193406
0.462044490456648,1508.09055193406
0.561782057699978,1508.10055193406
0.622916138124422,1508.11055193406
0.648542522351802,1508.12055193406
0.646302791792431,1508.13055193406
0.625913621636068,1508.14055193406
0.595107477689599,1508.15055193406
0.559141969315529,1508.16055193406
0.521072850474808,1508.17055193406
0.481469744769148,1508.18055193406
0.441497816190806,1508.19055193406
0.402251362188992,1508.20055193406
0.363772579201294,1508.21055193406
0.328011407469205,1508.22055193406
0.294936084426874,1508.23055193406
0.266550522136829,1508.24055193406
0.241878324974543,1508.25055193406
0.220424983370274,1508.26055193406
0.201850232683735,1508.27055193406
0.18453959503602,1508.28055193406
0.168009610492343,1508.29055193406
0.151093595337533,1508.30055193406
0.133285446317464,1508.31055193406
0.114866679571772,1508.32055193406
0.0964353079500163,1508.33055193406
0.0780029772959915,1508.34055193406
0.0618579692217656,1508.35055193406
0.0474723155883253,1508.36055193406
0.035917949587909,1508.37055193406
0.0279302793550533,1508.38055193406
0.0241816865169825,1508.39055193406
0.0246030896795208,1508.40055193406
0.0295882466369402,1508.41055193406
0.0386539974336734,1508.42055193406
0.0504069785610066,1508.43055193406
0.0638370103691785,1508.44055193406
0.0774601060805378,1508.45055193406
0.0894546607662837,1508.46055193406
0.0983673606618335,1508.47055193406
0.104534081660589,1508.48055193406
0.105905712417884,1508.49055193406
0.103297043715335,1508.50055193406
0.0971846512743694,1508.51055193406
0.0883238230937281,1508.52055193406
0.0777709482588427,1508.53055193406
0.065164605281113,1508.54055193406
0.0516481718607946,1508.55055193406
0.0378303461692398,1508.56055193406
0.0237667312858269,1508.57055193406
0.0097936985465593,1508.58055193406
-0.0038628742343487,1508.59055193406
-0.0174538876431354,1508.60055193406
-0.0307217518119804,1508.61055193406
-0.0431921269617555,1508.62055193406
-0.0553510947511155,1508.63055193406
-0.0672946371193559,1508.64055193406
-0.0785734982809464,1508.65055193406
-0.0893402769090474,1508.66055193406
-0.0987293319375416,1508.67055193406
-0.107541176884117,1508.68055193406
-0.115629917269987,1508.69055193406
-0.123430288941134,1508.70055193406
-0.130774745636266,1508.71055193406
-0.13824939190057,1508.72055193406
-0.145897869247983,1508.73055193406
-0.153356017069652,1508.74055193406
-0.161480938163973,1508.75055193406
-0.168852610143638,1508.76055193406
-0.175900993783821,1508.77055193406
-0.18241492396825,1508.78055193406
-0.18858561707514,1508.79055193406
-0.194798083241928,1508.80055193406
-0.201130881578915,1508.81055193406
-0.208239347158551,1508.82055193406
-0.215062443049478,1508.83055193406
-0.221600974552411,1508.84055193406
-0.228131937558722,1508.85055193406
-0.23430305643942,1508.86055193406
-0.240054743138184,1508.87055193406
-0.242361880189962,1508.88055193406
-0.237033883229487,1508.89055193406
-0.215624640763141,1508.90055193406
-0.170194112866893,1508.91055193406
-0.0934217149681689,1508.92055193406
0.0174218684077753,1508.93055193406
0.154234787225442,1508.94055193406
0.298702180781762,1508.95055193406
0.430052770752257,1508.96055193406
0.529986526946469,1508.97055193406
0.592492751734165,1508.98055193406
0.617850225055928,1508.99055193406
0.614794555806731,1509.00055193406
0.592446609795855,1509.01055193406
0.558515754868888,1509.02055193406
0.518540848175302,1509.03055193406
0.475361421482548,1509.04055193406
0.430708751975251,1509.05055193406
0.386211106545173,1509.06055193406
0.342566365665227,1509.07055193406
0.300579190967862,1509.08055193406
0.261850528714402,1509.09055193406
0.226139872977961,1509.10055193406
0.193986366705132,1509.11055193406
0.165835793471304,1509.12055193406
0.141020670519393,1509.13055193406
0.119176313397622,1509.14055193406
0.0992862009887295,1509.15055193406
0.0814663925828727,1509.16055193406
0.0637523852950643,1509.17055193406
0.046403949038465,1509.18055193406
0.0296705760635935,1509.19055193406
0.014109302403064,1509.20055193406
-0.000588429541775417,1509.21055193406
-0.0131963633854139,1509.22055193406
-0.0231255493102572,1509.23055193406
-0.0304511094709822,1509.24055193406
-0.0339365038678461,1509.25055193406
-0.0336445828989427,1509.26055193406
-0.0286927126354331,1509.27055193406
-0.0198909181268519,1509.28055193406
-0.0073481535356329,1509.29055193406
0.00781479034499058,1509.30055193406
0.0235603917471846,1509.31055193406
0.0389096169192432,1509.32055193406
0.0515592259617424,1509.33055193406
0.0608302304404183,1509.34055193406
0.0659549228017161,1509.35055193406
0.0667505592580945,1509.36055193406
0.0636107266045847,1509.37055193406
0.0563198393606628,1509.38055193406
0.0461841204742534,1509.39055193406
0.0338088250111041,1509.40055193406
0.0202635606691686,1509.41055193406
0.00630609274060524,1509.42055193406
-0.00784230233095911,1509.43055193406
-0.0220257459958518,1509.44055193406
-0.0356553891491556,1509.45055193406
-0.0492357308645469,1509.46055193406
-0.0622358126989926,1509.47055193406
-0.0745738936882258,1509.48055193406
-0.0863619113621703,1509.49055193406
-0.0976766423708015,1509.50055193406
-0.108487262718188,1509.51055193406
-0.118662487249254,1509.52055193406
-0.128190120413269,1509.53055193406
-0.136874682866608,1509.54055193406
-0.144663791391627,1509.55055193406
-0.151959692997598,1509.56055193406
-0.158345168162457,1509.57055193406
-0.164792372606337,1509.58055193406
-0.171803780138595,1509.59055193406
-0.178887920295753,1509.60055193406
-0.186601907620364,1509.61055193406
-0.194443315424509,1509.62055193406
-0.202299156816085,1509.63055193406
-0.209720130648628,1509.64055193406
-0.217067217506388,1509.65055193406
-0.22406569513265,1509.66055193406
-0.231188578703933,1509.67055193406
-0.238048679549857,1509.68055193406
-0.244090994137593,1509.69055193406
-0.24885221027131,1509.70055193406
-0.2495502781424,1509.71055193406
-0.24060014077301,1509.72055193406
-0.21355558934545,1509.73055193406
-0.16077757226494,1509.74055193406
-0.0751567721742339,1509.75055193406
0.043612117565245,1509.76055193406
0.184201394171512,1509.77055193406
0.32703295256631,1509.78055193406
0.450676919830469,1509.79055193406
0.540754011037194,1509.80055193406
0.592673649659684,1509.81055193406
0.609602762337268,1509.82055193406
0.601011294445603,1509.83055193406
0.57508780932866,1509.84055193406
0.539685001578579,1509.85055193406
0.49937944814709,1509.86055193406
0.456671353720118,1509.87055193406
0.412899708273844,1509.88055193406
0.369274863893626,1509.89055193406
0.32762245894747,1509.90055193406
0.287706602858702,1509.91055193406
0.251012943699643,1509.92055193406
0.217635624015796,1509.93055193406
0.187728082462966,1509.94055193406
0.161604918280754,1509.95055193406
0.137856831537003,1509.96055193406
0.116041787286851,1509.97055193406
0.0959802747719207,1509.98055193406
0.0763101003089061,1509.99055193406
0.0568267864991094,1510.00055193406
0.0375701971858888,1510.01055193406
0.0196787373344406,1510.02055193406
0.00324994177709026,1510.03055193406
-0.0110779686161502,1510.04055193406
-0.0224459999343057,1510.05055193406
-0.0316672395969396,1510.06055193406
-0.0375457987799066,1510.07055193406
-0.0401698103439344,1510.08055193406
-0.0384346158793564,1510.09055193406
-0.0319670157115801,1510.10055193406
-0.0210553148881064,1510.11055193406
-0.00641000651503304,1510.12055193406
0.00999763944781816,1510.13055193406
0.0270943222967936,1510.14055193406
0.0420427453913826,1510.15055193406
0.0543015667330678,1510.16055193406
0.0619464260921353,1510.17055193406
0.0652256836425946,1510.18055193406
0.0632899193074744,1510.19055193406
0.0574229082162432,1510.20055193406
0.0475918650711437,1510.21055193406
0.0349942725699341,1510.22055193406
0.0208738166645311,1510.23055193406
0.00555886614109583,1510.24055193406
-0.00967757430246042,1510.25055193406
-0.0251222259407292,1510.26055193406
-0.039834922461573,1510.27055193406
-0.0539558017385463,1510.28055193406
-0.0673360808015649,1510.29055193406
-0.0797441192600036,1510.30055193406
-0.0913372868527799,1510.31055193406
-0.101890243156603,1510.32055193406
-0.111909820451914,1510.33055193406
-0.121842516957568,1510.34055193406
-0.131006967645293,1510.35055193406
-0.139393992851135,1510.36055193406
-0.147823431442591,1510.37055193406
-0.15609466127908,1510.38055193406
-0.163829669163575,1510.39055193406
-0.171091653724251,1510.40055193406
-0.178765846810699,1510.41055193406
-0.186040559978664,1510.42055193406
-0.193457282801872,1510.43055193406
-0.201196381726507,1510.44055193406
-0.208369374995677,1510.45055193406
-0.215282058467353,1510.46055193406
-0.221808796143511,1510.47055193406
-0.228103404819866,1510.48055193406
-0.234485934897063,1510.49055193406
-0.241239033188385,1510.50055193406
-0.248435544743947,1510.51055193406
-0.255672492669401,1510.52055193406
-0.262336660230291,1510.53055193406
-0.26628873937127,1510.54055193406
-0.261781960833521,1510.55055193406
-0.241345530587269,1510.56055193406
-0.194966944125502,1510.57055193406
-0.115553712189851,1510.58055193406
6.68399494828028e-05,1510.59055193406
0.142953327394975,1510.60055193406
0.29443508143019,1510.61055193406
0.431652753620824,1510.62055193406
0.537618964854405,1510.63055193406
0.603795150748014,1510.64055193406
0.63255803549586,1510.65055193406
0.631429828667699,1510.66055193406
0.609891696401127,1510.67055193406
0.577183376968556,1510.68055193406
0.538746474824017,1510.69055193406
0.497675026625089,1510.70055193406
0.455323835168942,1510.71055193406
0.41312690288951,1510.72055193406
0.371170447640482,1510.73055193406
0.330932334750461,1510.74055193406
0.292428645317461,1510.75055193406
0.257577618699864,1510.76055193406
0.226457419659424,1510.77055193406
0.198450070672868,1510.78055193406
0.174385824840347,1510.79055193406
0.153560157418466,1510.80055193406
0.135232160511975,1510.81055193406
0.118793908883663,1510.82055193406
0.102844855898509,1510.83055193406
0.0865874332245292,1510.84055193406
0.0696624228945723,1510.85055193406
0.0521330439704552,1510.86055193406
0.0351622242779832,1510.87055193406
0.0197121656830873,1510.88055193406
0.00661874382339716,1510.89055193406
-0.00384467081895374,1510.90055193406
-0.0111567422342067,1510.91055193406
-0.0146473771628581,1510.92055193406
-0.0148547339512639,1510.93055193406
-0.0111471673732925,1510.94055193406
-0.00413782755131377,1510.95055193406
0.00607831619174281,1510.96055193406
0.0183265381838753,1510.97055193406
0.030835778235878,1510.98055193406
0.0423462503104728,1510.99055193406
0.0517705831525848,1511.00055193406
0.0580766794344287,1511.01055193406
0.0602435871183363,1511.02055193406
0.0588593954338913,1511.03055193406
0.0535786357970605,1511.04055193406
0.045786986390433,1511.05055193406
0.035653551109099,1511.06055193406
0.023993066895734,1511.07055193406
0.0109051796463078,1511.08055193406
-0.00257238002748722,1511.09055193406
-0.0169945924404599,1511.10055193406
-0.0314326296905272,1511.11055193406
-0.0455696169251338,1511.12055193406
-0.0596958518585961,1511.13055193406
-0.0730139122983619,1511.14055193406
-0.0858354179471934,1511.15055193406
-0.0973484470544822,1511.16055193406
-0.10820089084554,1511.17055193406
-0.118473559510689,1511.18055193406
-0.127971938842357,1511.19055193406
-0.137173221115519,1511.20055193406
-0.145846304740173,1511.21055193406
-0.154389605183158,1511.22055193406
-0.162780537203011,1511.23055193406
-0.171000506144857,1511.24055193406
-0.179319223489046,1511.25055193406
-0.186918688003759,1511.26055193406
-0.194293873664859,1511.27055193406
-0.201604263487112,1511.28055193406
-0.208350165528465,1511.29055193406
-0.214931225079036,1511.30055193406
-0.221007145023421,1511.31055193406
-0.227190642544733,1511.32055193406
-0.233521238296301,1511.33055193406
-0.239831972974676,1511.34055193406
-0.24671268570875,1511.35055193406
-0.253744988124124,1511.36055193406
-0.261249977803414,1511.37055193406
-0.268268582865835,1511.38055193406
-0.274989067639013,1511.39055193406
-0.281433998526262,1511.40055193406
-0.28764119482057,1511.41055193406
-0.291433011018328,1511.42055193406
-0.288608721148151,1511.43055193406
-0.271266075618376,1511.44055193406
-0.229187308479114,1511.45055193406
-0.155244213748547,1511.46055193406
-0.0454411004260834,1511.47055193406
0.0943360527368806,1511.48055193406
0.246539213565141,1511.49055193406
0.388606595423706,1511.50055193406
0.50124247076758,1511.51055193406
0.573834995993529,1511.52055193406
0.606978388584592,1511.53055193406
0.608554026190624,1511.54055193406
0.587892691258167,1511.55055193406
0.554144906577497,1511.56055193406
0.513788975509168,1511.57055193406
0.470514561016137,1511.58055193406
0.426227006073717,1511.59055193406
0.382159731104028,1511.60055193406
0.338776146496427,1511.61055193406
0.297036914693736,1511.62055193406
0.258227667728803,1511.63055193406
0.2220235687659,1511.64055193406
0.189550899790217,1511.65055193406
0.160761999249316,1511.66055193406
0.136054647035505,1511.67055193406
0.1146459145795,1511.68055193406
0.0957181547231366,1511.69055193406
0.0784955861080223,1511.70055193406
0.0615437374074321,1511.71055193406
0.0446598341067793,1511.72055193406
0.0274148021717535,1511.73055193406
0.0103909824197449,1511.74055193406
-0.00571958288398329,1511.75055193406
-0.0210011324251259,1511.76055193406
-0.0341797088166768,1511.77055193406
-0.0448883173601328,1511.78055193406
-0.0528828128985654,1511.79055193406
-0.0577804233922022,1511.80055193406
-0.0598441238121964,1511.81055193406
-0.0585435906221454,1511.82055193406
-0.0536506331856369,1511.83055193406
-0.0468449777366317,1511.84055193406
-0.03764388245772,1511.85055193406
-0.0270573527490556,1511.86055193406
-0.0161999389410799,1511.87055193406
-0.00638537864710922,1511.88055193406
0.00100962033586683,1511.89055193406
0.00482274187598391,1511.90055193406
0.00525725429883019,1511.91055193406
0.00233159960816889,1511.92055193406
-0.0031193476736973,1511.93055193406
-0.0113906126032523,1511.94055193406
-0.0211046904838805,1511.95055193406
-0.0325551155386847,1511.96055193406
-0.044892991550155,1511.97055193406
-0.0572403098805505,1511.98055193406
-0.0697488755435538,1511.99055193406
-0.0819413234685372,1512.00055193406
-0.0930143526164216,1512.01055193406
-0.103597343635194,1512.02055193406
-0.113280422907737,1512.03055193406
-0.12228661775347,1512.04055193406
-0.130673157080902,1512.05055193406
-0.13870381938281,1512.06055193406
-0.146102303170493,1512.07055193406
-0.153702912925559,1512.08055193406
-0.161868759032836,1512.09055193406
-0.170042857032932,1512.10055193406
-0.177959091998937,1512.11055193406
-0.185860635518469,1512.12055193406
-0.193576100906546,1512.13055193406
-0.200863737224465,1512.14055193406
-0.208517975302064,1512.15055193406
-0.215665926594046,1512.16055193406
-0.222522239509136,1512.17055193406
-0.229010264301521,1512.18055193406
-0.235344736702701,1512.19055193406
-0.241018671939059,1512.20055193406
-0.246751803098312,1512.21055193406
-0.252294724900267,1512.22055193406
-0.257567068695898,1512.23055193406
-0.263057683126139,1512.24055193406
-0.26853892326403,1512.25055193406
-0.274272359510007,1512.26055193406
-0.279802391176614,1512.27055193406
-0.282650854295228,1512.28055193406
-0.278947258548725,1512.29055193406
-0.260698412373248,1512.30055193406
-0.219071151789925,1512.31055193406
-0.14851285056665,1512.32055193406
-0.0465452845380611,1512.33055193406
0.0814715930453575,1512.34055193406
0.220920342487626,1512.35055193406
0.352401225080713,1512.36055193406
0.458145488170498,1512.37055193406
0.528404039678404,1512.38055193406
0.561950957772616,1512.39055193406
0.564164172530967,1512.40055193406
0.543963682952068,1512.41055193406
0.50903062541901,1512.42055193406
0.466436252037439,1512.43055193406
0.420005225878744,1512.44055193406
0.372314867699572,1512.45055193406
0.325143095199703,1512.46055193406
0.279814075208375,1512.47055193406
0.237116654780335,1512.48055193406
0.197722817886101,1512.49055193406
0.162343910775099,1512.50055193406
0.130787337758603,1512.51055193406
0.102890754724493,1512.52055193406
0.0790746586737634,1512.53055193406
0.0581705885249386,1512.54055193406
0.0389141494678044,1512.55055193406
0.0216266036240332,1512.56055193406
0.00544863742227807,1512.57055193406
-0.00973036500041006,1512.58055193406
-0.0236212084965668,1512.59055193406
-0.0362885197083768,1512.60055193406
-0.047821044419084,1512.61055193406
-0.0587547331501246,1512.62055193406
-0.0684149259532959,1512.63055193406
-0.0767211474531481,1512.64055193406
-0.0834544481430324,1512.65055193406
-0.0875438942929707,1512.66055193406
-0.0886746464848455,1512.67055193406
-0.0864931211248592,1512.68055193406
-0.0812918120680446,1512.69055193406
-0.0729997721627984,1512.70055193406
-0.0629772900021517,1512.71055193406
-0.0525977674771968,1512.72055193406
-0.04373969630766,1512.73055193406
-0.0363307794088126,1512.74055193406
-0.0322364677496167,1512.75055193406
-0.0316897740633925,1512.76055193406
-0.0350679706014421,1512.77055193406
-0.041332597264272,1512.78055193406
-0.0497976216237859,1512.79055193406
-0.0601401842569254,1512.80055193406
-0.071110710462378,1512.81055193406
-0.0826238795034847,1512.82055193406
-0.0942945982504198,1512.83055193406
-0.105946803651997,1512.84055193406
-0.116778353111843,1512.85055193406
-0.126950978558639,1512.86055193406
-0.136737312132304,1512.87055193406
-0.1461201189422,1512.88055193406
-0.155606395837669,1512.89055193406
-0.164806135516605,1512.90055193406
-0.173333475773853,1512.91055193406
-0.181358143445686,1512.92055193406
-0.188683392666785,1512.93055193406
-0.195708160638208,1512.94055193406
-0.202791902142107,1512.95055193406
-0.209559323626035,1512.96055193406
-0.21553620252732,1512.97055193406
-0.221919819411879,1512.98055193406
-0.228258989811617,1512.99055193406
-0.234286300084066,1513.00055193406
-0.240751789230912,1513.01055193406
-0.24710487181617,1513.02055193406
-0.253010128305396,1513.03055193406
-0.259089288429834,1513.04055193406
-0.265037073127617,1513.05055193406
-0.271542405873856,1513.06055193406
-0.277690614895856,1513.07055193406
-0.283473251916822,1513.08055193406
-0.288946263516712,1513.09055193406
-0.292246995373556,1513.10055193406
-0.289586447809259,1513.11055193406
-0.273905882862942,1513.12055193406
-0.236427870832721,1513.13055193406
-0.170732486168413,1513.14055193406
-0.0737758928158004,1513.15055193406
0.0509202732782958,1513.16055193406
0.190656467434723,1513.17055193406
0.326641834914183,1513.18055193406
0.440192677971973,1513.19055193406
0.518703647214469,1513.20055193406
0.559711495679017,1513.21055193406
0.568041641517645,1513.22055193406
0.551953800865875,1513.23055193406
0.520003126096673,1513.24055193406
0.479012626889497,1513.25055193406
0.433745294199894,1513.26055193406
0.387203028975282,1513.27055193406
0.340776453536886,1513.28055193406
0.29503989555359,1513.29055193406
0.251790555428745,1513.30055193406
0.212048689660126,1513.31055193406
0.175536463486824,1513.32055193406
0.143311603836013,1513.33055193406
0.114764601417537,1513.34055193406
0.0898524564664885,1513.35055193406
0.0680858317456075,1513.36055193406
0.0482503846632299,1513.37055193406
0.0302992745129048,1513.38055193406
0.0131817278034599,1513.39055193406
-0.00266913480636991,1513.40055193406
-0.0180279965249068,1513.41055193406
-0.0328183849541667,1513.42055193406
-0.0464641301618829,1513.43055193406
-0.0586696105322544,1513.44055193406
-0.0693950426393451,1513.45055193406
-0.0780898810351426,1513.46055193406
-0.0846916656059286,1513.47055193406
-0.0884106598304022,1513.48055193406
-0.089459722912835,1513.49055193406
-0.0868614928824159,1513.50055193406
-0.0806197551246979,1513.51055193406
-0.0710699173665808,1513.52055193406
-0.060030222388851,1513.53055193406
-0.0481932191738748,1513.54055193406
-0.0367944761712641,1513.55055193406
-0.027927683388696,1513.56055193406
-0.0220476688008898,1513.57055193406
-0.0191429334560268,1513.58055193406
-0.0206129560655098,1513.59055193406
-0.0252788860850516,1513.60055193406
-0.032789300288399,1513.61055193406
-0.042452495241837,1513.62055193406
-0.0535825110688593,1513.63055193406
-0.065725294805179,1513.64055193406
-0.0784993330887807,1513.65055193406
-0.0912142427766029,1513.66055193406
-0.103338753432255,1513.67055193406
-0.114539148692615,1513.68055193406
-0.125130079769411,1513.69055193406
-0.135004851678136,1513.70055193406
-0.144623675261176,1513.71055193406
-0.153825549775134,1513.72055193406
-0.163105785231121,1513.73055193406
-0.171896541063188,1513.74055193406
-0.18041846508637,1513.75055193406
-0.188474574275395,1513.76055193406
-0.195800950486363,1513.77055193406
-0.202990098581983,1513.78055193406
-0.209877434124718,1513.79055193406
-0.216530009075065,1513.80055193406
-0.222791737433109,1513.81055193406
-0.228555602873651,1513.82055193406
-0.233819821999861,1513.83055193406
-0.239498378475376,1513.84055193406
-0.245829025635195,1513.85055193406
-0.252550083936043,1513.86055193406
-0.25927756154899,1513.87055193406
-0.266149067996157,1513.88055193406
-0.272807678527321,1513.89055193406
-0.277679022780205,1513.90055193406
-0.276713799920525,1513.91055193406
-0.262244514005539,1513.92055193406
-0.22558316510575,1513.93055193406
-0.158857223205344,1513.94055193406
-0.0582616331972215,1513.95055193406
0.0717615676804561,1513.96055193406
0.218042892686899,1513.97055193406
0.359325479412224,1513.98055193406
0.47548739327838,1513.99055193406
0.554188518234419,1514.00055193406
0.594663136736025,1514.01055193406
0.601963972214638,1514.02055193406
0.58570230106187,1514.03055193406
0.554802499937336,1514.04055193406
0.516032272054987,1514.05055193406
0.473208075912249,1514.06055193406
0.428363524981342,1514.07055193406
0.383561049676759,1514.08055193406
0.339200205904283,1514.09055193406
0.296438613393353,1514.10055193406
0.255828551604376,1514.11055193406
0.218508882829598,1514.12055193406
0.184957267471804,1514.13055193406
0.156096875467007,1514.14055193406
0.132061922159758,1514.15055193406
0.111816664119865,1514.16055193406
0.0939996749234694,1514.17055193406
0.0774752938741107,1514.18055193406
0.0610373171991095,1514.19055193406
0.0447016362384354,1514.20055193406
0.0282684988135166,1514.21055193406
0.0114680402426366,1514.22055193406
-0.00450108163130119,1514.23055193406
-0.0189145526200328,1514.24055193406
-0.0315538605992121,1514.25055193406
-0.0423839834060028,1514.26055193406
-0.0502807096552851,1514.27055193406
-0.0555583034327629,1514.28055193406
-0.057669487175989,1514.29055193406
-0.0567777695280528,1514.30055193406
-0.0527983808185142,1514.31055193406
-0.0453813237426231,1514.32055193406
-0.0364508944782045,1514.33055193406
-0.0260132070351836,1514.34055193406
-0.01566018038691,1514.35055193406
-0.00696796228304667,1514.36055193406
-0.000116243247782356,1514.37055193406
0.00330395818636182,1514.38055193406
0.00312628040865801,1514.39055193406
-0.000206753059829647,1514.40055193406
-0.00634403114472161,1514.41055193406
-0.0146783110075884,1514.42055193406
-0.0247581729315841,1514.43055193406
-0.0356146186562122,1514.44055193406
-0.0474814242547322,1514.45055193406
-0.0595954436960255,1514.46055193406
-0.0718655232385809,1514.47055193406
-0.084471662370708,1514.48055193406
-0.0961171770602678,1514.49055193406
-0.10767535733471,1514.50055193406
-0.118555004547348,1514.51055193406
-0.128759184049356,1514.52055193406
-0.138533351590946,1514.53055193406
-0.147457348641508,1514.54055193406
-0.156086875978002,1514.55055193406
-0.164388298882853,1514.56055193406
-0.173092370297674,1514.57055193406
-0.181321668101685,1514.58055193406
-0.189367829645026,1514.59055193406
-0.197261436047482,1514.60055193406
-0.204046466114234,1514.61055193406
-0.2112929912672,1514.62055193406
-0.218006484615169,1514.63055193406
-0.224444016944128,1514.64055193406
-0.230872240662018,1514.65055193406
-0.236908437540009,1514.66055193406
-0.242706624954576,1514.67055193406
-0.248885631559936,1514.68055193406
-0.255339785883911,1514.69055193406
-0.262002029848526,1514.70055193406
-0.267977407407021,1514.71055193406
-0.270105303592178,1514.72055193406
-0.262297353601744,1514.73055193406
-0.235496142630051,1514.74055193406
-0.180872159097805,1514.75055193406
-0.0929813963189315,1514.76055193406
0.0287488062118945,1514.77055193406
0.173686784145926,1514.78055193406
0.321924409765944,1514.79055193406
0.452483183158738,1514.80055193406
0.548186257946268,1514.81055193406
0.603417947271966,1514.82055193406
0.621849828813042,1514.83055193406
0.612785685172773,1514.84055193406
0.585520674008302,1514.85055193406
0.547989675304997,1514.86055193406
0.506175965218186,1514.87055193406
0.462550661089046,1514.88055193406
0.418649517638505,1514.89055193406
0.375378765037183,1514.90055193406
0.333802143439531,1514.91055193406
0.293608398118803,1514.92055193406
0.256665238240781,1514.93055193406
0.223231342146059,1514.94055193406
0.192799069812537,1514.95055193406
0.166141676524038,1514.96055193406
0.142778818025553,1514.97055193406
0.122230039433359,1514.98055193406
0.104102546148326,1514.99055193406
0.0865669299796065,1515.00055193406
0.0696767127348686,1515.01055193406
0.0528001898241511,1515.02055193406
0.036055020940936,1515.03055193406
0.0196745251958493,1515.04055193406
0.00424159609076752,1515.05055193406
-0.0100243078287337,1515.06055193406
-0.0220648975185891,1515.07055193406
-0.03285073425946,1515.08055193406
-0.0410166517099901,1515.09055193406
-0.046190669060905,1515.10055193406
-0.048472522420305,1515.11055193406
-0.0476241726001877,1515.12055193406
-0.0440258622412478,1515.13055193406
-0.0382575367437415,1515.14055193406
-0.030492870613182,1515.15055193406
-0.0222902225915152,1515.16055193406
-0.0145691323436725,1515.17055193406
-0.0084550254432684,1515.18055193406
-0.00515249509098976,1515.19055193406
-0.00469832508217884,1515.20055193406
-0.00696603177416872,1515.21055193406
-0.0114879164159962,1515.22055193406
-0.0181868505243076,1515.23055193406
-0.0268906447588028,1515.24055193406
-0.0365180020001448,1515.25055193406
-0.0471166361445704,1515.26055193406
-0.0580869159315181,1515.27055193406
-0.0684273353600599,1515.28055193406
-0.0787767866864481,1515.29055193406
-0.0889152464097164,1515.30055193406
-0.0985856248194883,1515.31055193406
-0.108643214064532,1515.32055193406
-0.118126324460115,1515.33055193406
-0.127745684479908,1515.34055193406
-0.136997550430762,1515.35055193406
-0.145802368342144,1515.36055193406
-0.153983561078746,1515.37055193406
-0.16146234445316,1515.38055193406
-0.169001343963497,1515.39055193406
-0.176372991647417,1515.40055193406
-0.183255451757909,1515.41055193406
-0.190069471562759,1515.42055193406
-0.19672957883876,1515.43055193406
-0.203371269004428,1515.44055193406
-0.209610700328095,1515.45055193406
-0.215792945390953,1515.46055193406
-0.221908158238195,1515.47055193406
-0.227794318545237,1515.48055193406
-0.233708053427521,1515.49055193406
-0.2394810716703,1515.50055193406
-0.245090870210391,1515.51055193406
-0.250905267620065,1515.52055193406
-0.256410724935612,1515.53055193406
-0.261528771685316,1515.54055193406
-0.262701034014146,1515.55055193406
-0.254183411127136,1515.56055193406
-0.225972345466203,1515.57055193406
-0.170561495145854,1515.58055193406
-0.0843067772683237,1515.59055193406
0.0327385564081369,1515.60055193406
0.170320443869816,1515.61055193406
0.310586976978331,1515.62055193406
0.433184776750254,1515.63055193406
0.523462790956799,1515.64055193406
0.57554961793213,1515.65055193406
0.591997137313002,1515.66055193406
0.580387838632452,1515.67055193406
0.550630689744482,1515.68055193406
0.509828995473708,1515.69055193406
0.464079794561995,1515.70055193406
0.417218463578385,1515.71055193406
0.370615731731488,1515.72055193406
0.325500863053746,1515.73055193406
0.282930461268497,1515.74055193406
0.243382945553176,1515.75055193406
0.207686989665312,1515.76055193406
0.175812689619723,1515.77055193406
0.148108689792345,1515.78055193406
0.123430041619537,1515.79055193406
0.10245528729285,1515.80055193406
0.0835295627481491,1515.81055193406
0.0660554326929416,1515.82055193406
0.0491589001025087,1515.83055193406
0.0327252548787919,1515.84055193406
0.0164515443453799,1515.85055193406
0.00100839904498948,1515.86055193406
-0.0125773697006388,1515.87055193406
-0.0250943399676591,1515.88055193406
-0.0354251355146116,1515.89055193406
-0.043988317226572,1515.90055193406
-0.0510388936623693,1515.91055193406
-0.0559826008648219,1515.92055193406
-0.0583047821654138,1515.93055193406
-0.0582979297493373,1515.94055193406
-0.055172349482592,1515.95055193406
-0.0494037875741637,1515.96055193406
-0.0421335964047792,1515.97055193406
-0.0337954506306411,1515.98055193406
-0.0254707893366335,1515.99055193406
-0.0187499371484997,1516.00055193406
-0.0144704944986008,1516.01055193406
-0.0130964703633453,1516.02055193406
-0.0155601107127215,1516.03055193406
-0.0211242432023533,1516.04055193406
-0.029395974036324,1516.05055193406
-0.0392257292664022,1516.06055193406
-0.0503175495406928,1516.07055193406
-0.0616243353178022,1516.08055193406
-0.0728206374599649,1516.09055193406
-0.0842485320949558,1516.10055193406
-0.0955203916583478,1516.11055193406
-0.106160017466102,1516.12055193406
-0.116397036786989,1516.13055193406
-0.12604914234995,1516.14055193406
-0.135226016605466,1516.15055193406
-0.144137368282566,1516.16055193406
-0.153209370021455,1516.17055193406
-0.16207867620683,1516.18055193406
-0.170447626773985,1516.19055193406
-0.178683263322334,1516.20055193406
-0.186628013521986,1516.21055193406
-0.193764982483472,1516.22055193406
-0.200935114024186,1516.23055193406
-0.207665263120297,1516.24055193406
-0.214534709902092,1516.25055193406
-0.221237891040213,1516.26055193406
-0.227795894412379,1516.27055193406
-0.233785110760511,1516.28055193406
-0.239358440654807,1516.29055193406
-0.24456983235396,1516.30055193406
-0.249810884228263,1516.31055193406
-0.255219782395237,1516.32055193406
-0.260752002577674,1516.33055193406
-0.265938018192522,1516.34055193406
-0.268428580819219,1516.35055193406
-0.264280719551505,1516.36055193406
-0.244805794278959,1516.37055193406
-0.201778922985868,1516.38055193406
-0.130323469754559,1516.39055193406
-0.0288642949635647,1516.40055193406
0.096761213702127,1516.41055193406
0.234820047574956,1516.42055193406
0.36595994801401,1516.43055193406
0.472260404151693,1516.44055193406
0.543548785607066,1516.45055193406
0.578239837720221,1516.46055193406
0.58043556579238,1516.47055193406
0.559816729346273,1516.48055193406
0.524882060243932,1516.49055193406
0.482466923049833,1516.50055193406
0.436486940029753,1516.51055193406
0.390487548564035,1516.52055193406
0.34470766500954,1516.53055193406
0.300878036828357,1516.54055193406
0.259880916663113,1516.55055193406
0.221998231651831,1516.56055193406
0.188305268244116,1516.57055193406
0.158711190162627,1516.58055193406
0.133037177463613,1516.59055193406
0.109991726227126,1516.60055193406
0.0893298411631368,1516.61055193406
0.0704878488811737,1516.62055193406
0.0525245833344409,1516.63055193406
0.0349358268846264,1516.64055193406
0.0184661505368624,1516.65055193406
0.00285300216376585,1516.66055193406
-0.0109524020745266,1516.67055193406
-0.023728874028782,1516.68055193406
-0.0353329675388055,1516.69055193406
-0.0453296404796933,1516.70055193406
-0.0531792461936064,1516.71055193406
-0.0580815719846707,1516.72055193406
-0.0599006376161764,1516.73055193406
-0.0585584735245739,1516.74055193406
-0.0539935941532065,1516.75055193406
-0.0467050200021084,1516.76055193406
-0.0370348522237742,1516.77055193406
-0.0263435835241752,1516.78055193406
-0.0158945644807897,1516.79055193406
-0.00681430614319451,1516.80055193406
-0.0006975469157703,1516.81055193406
0.00223042609901371,1516.82055193406
0.00185230570231619,1516.83055193406
-0.00207007586522019,1516.84055193406
-0.00871719951107124,1516.85055193406
-0.0174750971675503,1516.86055193406
-0.0282297064553912,1516.87055193406
-0.0398807172601787,1516.88055193406
-0.0518758618942843,1516.89055193406
-0.0639441438535351,1516.90055193406
-0.0757236304061895,1516.91055193406
-0.0873712855806878,1516.92055193406
-0.0989806373935829,1516.93055193406
-0.109745532333689,1516.94055193406
-0.12033327333111,1516.95055193406
-0.129797791659651,1516.96055193406
-0.138879160535338,1516.97055193406
-0.147774934418366,1516.98055193406
-0.15591088251987,1516.99055193406
-0.163781064384252,1517.00055193406
-0.171330520680872,1517.01055193406
-0.178906289091634,1517.02055193406
-0.185949249081896,1517.03055193406
-0.193534526076745,1517.04055193406
-0.201219955470454,1517.05055193406
-0.208702600798294,1517.06055193406
-0.216156414646336,1517.07055193406
-0.223292799057054,1517.08055193406
-0.230337207903316,1517.09055193406
-0.237338524075571,1517.10055193406
-0.244333684998585,1517.11055193406
-0.250646994603799,1517.12055193406
-0.257333285161446,1517.13055193406
-0.263162357264459,1517.14055193406
-0.265241841623133,1517.15055193406
-0.25705030350611,1517.16055193406
-0.229229608277208,1517.17055193406
-0.173901820340178,1517.18055193406
-0.0858352591166644,1517.19055193406
0.0343894067871739,1517.20055193406
0.17697311594853,1517.21055193406
0.324273013823906,1517.22055193406
0.454294851543924,1517.23055193406
0.55131082619355,1517.24055193406
0.609012349621874,1517.25055193406
0.630194227866773,1517.26055193406
0.622367041413661,1517.27055193406
0.595925278743415,1517.28055193406
0.558563693253474,1517.29055193406
0.516227858429233,1517.30055193406
0.471566893181606,1517.31055193406
0.42698520547491,1517.32055193406
0.383421926375639,1517.33055193406
0.342520560132727,1517.34055193406
0.304180964746634,1517.35055193406
0.268922733203013,1517.36055193406
0.237415215971607,1517.37055193406
0.209415054468174,1517.38055193406
0.1854128870367,1517.39055193406
0.164332556300071,1517.40055193406
0.145852416987178,1517.41055193406
0.128523870642441,1517.42055193406
0.111572358345272,1517.43055193406
0.0946335521485554,1517.44055193406
0.0781197813066487,1517.45055193406
0.0615075416422546,1517.46055193406
0.0454482215963182,1517.47055193406
0.0308543649918682,1517.48055193406
0.017605564811259,1517.49055193406
0.00603426122339705,1517.50055193406
-0.00333734844920416,1517.51055193406
-0.00949511224115501,1517.52055193406
-0.0119430055295532,1517.53055193406
-0.0105186525071918,1517.54055193406
-0.0052373399154287,1517.55055193406
0.00278575020130645,1517.56055193406
0.0133976045638959,1517.57055193406
0.0248390575455269,1517.58055193406
0.036388291747809,1517.59055193406
0.0460676788507677,1517.60055193406
0.0527104814880801,1517.61055193406
0.05611120249082,1517.62055193406
0.0554249791156231,1517.63055193406
0.0512939532385749,1517.64055193406
0.0443282624411496,1517.65055193406
0.0354027178426803,1517.66055193406
0.0248546869274498,1517.67055193406
0.0131225347365196,1517.68055193406
0.00132899163450504,1517.69055193406
-0.0111014407532713,1517.70055193406
-0.0236719519485389,1517.71055193406
-0.0361975158311144,1517.72055193406
-0.0486402693667105,1517.73055193406
-0.0610496724101516,1517.74055193406
-0.0729529251003262,1517.75055193406
-0.0841678052334251,1517.76055193406
-0.0944001394760994,1517.77055193406
-0.10408810283708,1517.78055193406
-0.113315827606089,1517.79055193406
-0.1221392716196,1517.80055193406
-0.130995421813546,1517.81055193406
-0.139898672366802,1517.82055193406
-0.148564992737358,1517.83055193406
-0.156900219888027,1517.84055193406
-0.164727796674801,1517.85055193406
-0.172276529387679,1517.86055193406
-0.179699941517201,1517.87055193406
-0.1871379083973,1517.88055193406
-0.194118076444676,1517.89055193406
-0.201043695139866,1517.90055193406
-0.207654268003471,1517.91055193406
-0.214726675238907,1517.92055193406
-0.221830720972773,1517.93055193406
-0.229296905816359,1517.94055193406
-0.236315248239122,1517.95055193406
-0.240617433028667,1517.96055193406
-0.236982340397135,1517.97055193406
-0.216562494231265,1517.98055193406
-0.170458197175246,1517.99055193406
-0.090007976525136,1518.00055193406
0.0263497296360316,1518.01055193406
0.171912168065329,1518.02055193406
0.32804988983511,1518.03055193406
0.470596617816584,1518.04055193406
0.580064334881177,1518.05055193406
0.648783858503218,1518.06055193406
0.678258833383481,1518.07055193406
0.676748102468711,1518.08055193406
0.654377952565248,1518.09055193406
0.620097913171329,1518.10055193406
0.579859547335397,1518.11055193406
0.537704503436864,1518.12055193406
0.495544184785864,1518.13055193406
0.453818298900701,1518.14055193406
0.412990498498122,1518.15055193406
0.373773880103668,1518.16055193406
0.336992257292778,1518.17055193406
0.303645891570657,1518.18055193406
0.273949632245956,1518.19055193406
0.248237980105408,1518.20055193406
0.226330628901731,1518.21055193406
0.207679295622662,1518.22055193406
0.190749107830936,1518.23055193406
0.174866364669744,1518.24055193406
0.159205974307227,1518.25055193406
0.142352308447589,1518.26055193406
0.124719709603313,1518.27055193406
0.106285988365528,1518.28055193406
0.0882501996838934,1518.29055193406
0.0718337366395223,1518.30055193406
0.0567796850188731,1518.31055193406
0.0443209351130174,1518.32055193406
0.0356571987936837,1518.33055193406
0.030138605860578,1518.34055193406
0.0276064550877012,1518.35055193406
0.0295002667256601,1518.36055193406
0.0347125091958793,1518.37055193406
0.0431776103813882,1518.38055193406
0.0541604174372199,1518.39055193406
0.0655148308943647,1518.40055193406
0.0762947398875871,1518.41055193406
0.0842709426073105,1518.42055193406
0.0894232023257788,1518.43055193406
0.0904951083933374,1518.44055193406
0.0880247470302328,1518.45055193406
0.0831135215034809,1518.46055193406
0.0756930957176785,1518.47055193406
0.0666420553014274,1518.48055193406
0.0556865233939792,1518.49055193406
0.0433980451851777,1518.50055193406
0.0303334110774233,1518.51055193406
0.0169049104782274,1518.52055193406
0.00377333513650185,1518.53055193406
-0.00904159655026395,1518.54055193406
-0.0217516799408006,1518.55055193406
-0.0334021841244407,1518.56055193406
-0.0440552940565598,1518.57055193406
-0.0541504212994659,1518.58055193406
-0.0635584971894176,1518.59055193406
-0.0727595380409683,1518.60055193406
-0.0813610643254573,1518.61055193406
-0.0900710647729457,1518.62055193406
-0.0988852497801782,1518.63055193406
-0.107133781257049,1518.64055193406
-0.114883115129716,1518.65055193406
-0.122374037803076,1518.66055193406
-0.129844722338289,1518.67055193406
-0.137240729826844,1518.68055193406
-0.144740160581842,1518.69055193406
-0.151287420321017,1518.70055193406
-0.15740318048181,1518.71055193406
-0.163322716441547,1518.72055193406
-0.169266078173806,1518.73055193406
-0.17575701828427,1518.74055193406
-0.182386399574764,1518.75055193406
-0.189192741500754,1518.76055193406
-0.196084606712397,1518.77055193406
-0.202795417616313,1518.78055193406
-0.209336432270031,1518.79055193406
-0.214288357327536,1518.80055193406
-0.214616579685089,1518.81055193406
-0.204101069915886,1518.82055193406
-0.173576632027684,1518.83055193406
-0.114070794339117,1518.84055193406
-0.0199764110564985,1518.85055193406
0.107952063138235,1518.86055193406
0.256981857273058,1518.87055193406
0.405607468925917,1518.88055193406
0.531600463310147,1518.89055193406
0.620847144616024,1518.90055193406
0.669122690183502,1518.91055193406
0.681797171255681,1518.92055193406
0.667812252992538,1518.93055193406
0.637140752082847,1518.94055193406
0.59678466967247,1518.95055193406
0.551890026198585,1518.96055193406
0.505508937346935,1518.97055193406
0.458630083897019,1518.98055193406
0.412442953952385,1518.99055193406
0.36768307687813,1519.00055193406
0.325460948038058,1519.01055193406
0.286947237794058,1519.02055193406
0.253121466093615,1519.03055193406
0.222985487326507,1519.04055193406
0.197299416220318,1519.05055193406
0.174961550529586,1519.06055193406
0.154766583792286,1519.07055193406
0.13622721491456,1519.08055193406
0.117937517669464,1519.09055193406
0.10022585077196,1519.10055193406
0.0828397430641481,1519.11055193406
0.0665062725594222,1519.12055193406
0.0510938069443677,1519.13055193406
0.0380008381749893,1519.14055193406
0.0272350245363694,1519.15055193406
0.0195529275697963,1519.16055193406
0.0154293794905056,1519.17055193406
0.0144801630914735,1519.18055193406
0.0167422642061753,1519.19055193406
0.022984917773468,1519.20055193406
0.0327468474838636,1519.21055193406
0.0458435167169531,1519.22055193406
0.061048825586754,1519.23055193406
0.0764977521006943,1519.24055193406
0.0902018725870097,1519.25055193406
0.101609834319505,1519.26055193406
0.108639738279736,1519.27055193406
0.110881919099827,1519.28055193406
0.108803226802226,1519.29055193406
0.102561723983922,1519.30055193406
0.0928254015341721,1519.31055193406
0.0814181319338794,1519.32055193406
0.0685639036884761,1519.33055193406
0.0550933442803948,1519.34055193406
0.0417282977836955,1519.35055193406
0.0284789329622874,1519.36055193406
0.0156768089693686,1519.37055193406
0.00270162568359782,1519.38055193406
-0.00983652174122568,1519.39055193406
-0.0222445765749463,1519.40055193406
-0.0339349697979732,1519.41055193406
-0.0451457146583484,1519.42055193406
-0.0554507387459845,1519.43055193406
-0.0647834141623327,1519.44055193406
-0.0732087699639437,1519.45055193406
-0.0810534705756936,1519.46055193406
-0.0886495902786043,1519.47055193406
-0.095880050773323,1519.48055193406
-0.103268363136507,1519.49055193406
-0.110118194595117,1519.50055193406
-0.116776705892353,1519.51055193406
-0.123728121243836,1519.52055193406
-0.130627666697032,1519.53055193406
-0.137389557746662,1519.54055193406
-0.144123579971655,1519.55055193406
-0.150938202978698,1519.56055193406
-0.157402781318693,1519.57055193406
-0.164023391243856,1519.58055193406
-0.171147696537234,1519.59055193406
-0.178408821007654,1519.60055193406
-0.185231302444252,1519.61055193406
-0.189423426724872,1519.62055193406
-0.186392129734226,1519.63055193406
-0.167732958175726,1519.64055193406
-0.124626790687997,1519.65055193406
-0.0488530184899403,1519.66055193406
0.062775721686798,1519.67055193406
0.202751663600319,1519.68055193406
0.352200019365965,1519.69055193406
0.488084370032434,1519.70055193406
0.591887634453226,1519.71055193406
0.656241757227679,1519.72055193406
0.683159862455093,1519.73055193406
0.680554383796172,1519.74055193406
0.658172284008926,1519.75055193406
0.624095581952126,1519.76055193406
0.583166895658703,1519.77055193406
0.538657126184455,1519.78055193406
0.493289387145532,1519.79055193406
0.446781797402379,1519.80055193406
0.401209829462799,1519.81055193406
0.357379244888706,1519.82055193406
0.316281452878989,1519.83055193406
0.27953755818152,1519.84055193406
0.246662094985731,1519.85055193406
0.218448702782039,1519.86055193406
0.193870743732843,1519.87055193406
0.17207898404188,1519.88055193406
0.152093111746501,1519.89055193406
0.132903003923858,1519.90055193406
0.114095041184733,1519.91055193406
0.0958346864800237,1519.92055193406
0.0787048613339395,1519.93055193406
0.0630336180941184,1519.94055193406
0.0486464778573243,1519.95055193406
0.0366023950038551,1519.96055193406
0.0276048908695934,1519.97055193406
0.0217567726874933,1519.98055193406
0.0196820608178045,1519.99055193406
0.0220568052934298,1520.00055193406
0.0285262710516822,1520.01055193406
0.0400278357660124,1520.02055193406
0.055029268146548,1520.03055193406
0.07253597995759,1520.04055193406
0.0907864391603943,1520.05055193406
0.107666369949718,1520.06055193406
0.121688924476887,1520.07055193406
0.131237188517952,1520.08055193406
0.135532744351693,1520.09055193406
0.134580475041339,1520.10055193406
0.128853132044227,1520.11055193406
0.118975717823722,1520.12055193406
0.106750249011439,1520.13055193406
0.09211918594403,1520.14055193406
0.0762141261082239,1520.15055193406
0.0599180770318462,1520.16055193406
0.0432097678172885,1520.17055193406
0.0279203154909052,1520.18055193406
0.013545166106593,1520.19055193406
0.000434998027049934,1520.20055193406
-0.0120332627931568,1520.21055193406
-0.0240274935443088,1520.22055193406
-0.0348937259913788,1520.23055193406
-0.0453113533160179,1520.24055193406
-0.0546605870112501,1520.25055193406
-0.0635743612577132,1520.26055193406
-0.0719950022805182,1520.27055193406
-0.0799044725212515,1520.28055193406
-0.088102907924847,1520.29055193406
-0.0960682162729342,1520.30055193406
-0.103887244707779,1520.31055193406
-0.111275068876269,1520.32055193406
-0.119024202377325,1520.33055193406
-0.126483359842039,1520.34055193406
-0.133766378403205,1520.35055193406
-0.140253442942988,1520.36055193406
-0.14676603006575,1520.37055193406
-0.153278654094767,1520.38055193406
-0.159603810901313,1520.39055193406
-0.166845441160205,1520.40055193406
-0.173176973611216,1520.41055193406
-0.176763587742639,1520.42055193406
-0.171861411476065,1520.43055193406
-0.149331640671853,1520.44055193406
-0.0990454304481638,1520.45055193406
-0.0122212206638575,1520.46055193406
0.111928915262356,1520.47055193406
0.262070309095728,1520.48055193406
0.413941634703048,1520.49055193406
0.544432771537944,1520.50055193406
0.638887220586083,1520.51055193406
0.692243642520228,1520.52055193406
0.710525851052404,1520.53055193406
0.702669097722037,1520.54055193406
0.678209178508442,1520.55055193406
0.644950696510964,1520.56055193406
0.606799337718831,1520.57055193406
0.566114917077153,1520.58055193406
0.523595909764469,1520.59055193406
0.480321879402057,1520.60055193406
0.436891953529914,1520.61055193406
0.394891250912386,1520.62055193406
0.355692011065022,1520.63055193406
0.319804943468572,1520.64055193406
0.288317588118909,1520.65055193406
0.26166095059693,1520.66055193406
0.238956117831959,1520.67055193406
0.219667610929023,1520.68055193406
0.202640652293243,1520.69055193406
0.185879428992801,1520.70055193406
0.168977096803231,1520.71055193406
0.151120275516699,1520.72055193406
0.132893155447177,1520.73055193406
0.114231131826708,1520.74055193406
0.096644900744077,1520.75055193406
0.0813256629186081,1520.76055193406
0.0691526507876709,1520.77055193406
0.0609163929034265,1520.78055193406
0.0566895053508611,1520.79055193406
0.0569592492278985,1520.80055193406
0.0615810445695207,1520.81055193406
0.0692991881313985,1520.82055193406
0.0811858147736418,1520.83055193406
0.0955513130975572,1520.84055193406
0.111612281755605,1520.85055193406
0.126900743972437,1520.86055193406
0.140452245198108,1520.87055193406
0.150013181983255,1520.88055193406
0.154841704479452,1520.89055193406
0.154617947053574,1520.90055193406
0.149732607981428,1520.91055193406
0.140588106252675,1520.92055193406
0.128329756476329,1520.93055193406
0.113988259660398,1520.94055193406
0.099156401099071,1520.95055193406
0.0833499762524215,1520.96055193406
0.0678769434468479,1520.97055193406
0.0526094917155046,1520.98055193406
0.037116249486241,1520.99055193406
0.0224349854965858,1521.00055193406
0.00834684388897483,1521.01055193406
-0.00487586764174454,1521.02055193406
-0.0178272294372265,1521.03055193406
-0.0297401930864559,1521.04055193406
-0.0410822274460849,1521.05055193406
-0.0520881097794179,1521.06055193406
-0.061876564498364,1521.07055193406
-0.0710825814520245,1521.08055193406
-0.0798115868085588,1521.09055193406
-0.0874803182682735,1521.10055193406
-0.0948851365470911,1521.11055193406
-0.101927477765348,1521.12055193406
-0.10896004102052,1521.13055193406
-0.116147309404536,1521.14055193406
-0.123522339912175,1521.15055193406
-0.130759612016129,1521.16055193406
-0.138351418227892,1521.17055193406
-0.145790622934371,1521.18055193406
-0.152785197237126,1521.19055193406
-0.159969001264155,1521.20055193406
-0.166678782043479,1521.21055193406
-0.172654521032015,1521.22055193406
-0.176759607476215,1521.23055193406
-0.175438334622729,1521.24055193406
-0.161656553806111,1521.25055193406
-0.125787155071331,1521.26055193406
-0.0574913304312472,1521.27055193406
0.0497757090881993,1521.28055193406
0.190291224003521,1521.29055193406
0.34421401642939,1521.30055193406
0.487233996880374,1521.31055193406
0.599466064023834,1521.32055193406
0.671323703377942,1521.33055193406
0.704282584709864,1521.34055193406
0.706281686081739,1521.35055193406
0.687597059763456,1521.36055193406
0.656439969242835,1521.37055193406
0.618307442589691,1521.38055193406
0.576419523307684,1521.39055193406
0.532202504738753,1521.40055193406
0.486606700219162,1521.41055193406
0.440698418128296,1521.42055193406
0.395991097803183,1521.43055193406
0.353985630099832,1521.44055193406
0.315901127183617,1521.45055193406
0.282144726876969,1521.46055193406
0.252669188962949,1521.47055193406
0.227497969740992,1521.48055193406
0.205910294178947,1521.49055193406
0.186674178276108,1521.50055193406
0.168998155224401,1521.51055193406
0.151899651720137,1521.52055193406
0.133900504286928,1521.53055193406
0.116417906429697,1521.54055193406
0.0990390976916031,1521.55055193406
0.0827983498280684,1521.56055193406
0.0680363235499902,1521.57055193406
0.0552918876693921,1521.58055193406
0.045002982102182,1521.59055193406
0.0373889105086799,1521.60055193406
0.0331184209039427,1521.61055193406
0.0326321289228167,1521.62055193406
0.0358108167424468,1521.63055193406
0.0427129829318622,1521.64055193406
0.0526179955789924,1521.65055193406
0.0650595730645971,1521.66055193406
0.0784886865033834,1521.67055193406
0.0913448082870312,1521.68055193406
0.102669299281198,1521.69055193406
0.110165192372567,1521.70055193406
0.114153276298741,1521.71055193406
0.113691587242014,1521.72055193406
0.109560114761764,1521.73055193406
0.101654502110883,1521.74055193406
0.0912942589504443,1521.75055193406
0.0792138875028753,1521.76055193406
0.0662133500171272,1521.77055193406
0.0530761645515711,1521.78055193406
0.0398197803096791,1521.79055193406
0.0269715951328063,1521.80055193406
0.0141056436356508,1521.81055193406
0.00146104145797745,1521.82055193406
-0.0111761551200926,1521.83055193406
-0.0229664281193866,1521.84055193406
-0.0342107364820408,1521.85055193406
-0.0449844017137928,1521.86055193406
-0.0550350331688845,1521.87055193406
-0.0647522332820702,1521.88055193406
-0.0738376747751191,1521.89055193406
-0.0826297204052618,1521.90055193406
-0.0906127264830162,1521.91055193406
-0.0980339432985926,1521.92055193406
-0.105525834861627,1521.93055193406
-0.11239823607489,1521.94055193406
-0.119130955639422,1521.95055193406
-0.125745415933146,1521.96055193406
-0.132403074335139,1521.97055193406
-0.138793074704173,1521.98055193406
-0.144958726053882,1521.99055193406
-0.150597852888884,1522.00055193406
-0.156149022755902,1522.01055193406
-0.161675499059671,1522.02055193406
-0.167001312021579,1522.03055193406
-0.172258661680675,1522.04055193406
-0.177696694024227,1522.05055193406
-0.181577198093544,1522.06055193406
-0.179265280319286,1522.07055193406
-0.164266440938695,1522.08055193406
-0.125967780036561,1522.09055193406
-0.0536033971930158,1522.10055193406
0.0562343947706529,1522.11055193406
0.196152276800124,1522.12055193406
0.34643116038516,1522.13055193406
0.483008573254077,1522.14055193406
0.587186500933229,1522.15055193406
0.651753997277322,1522.16055193406
0.678997070204551,1522.17055193406
0.676880208898622,1522.18055193406
0.655939543450979,1522.19055193406
0.622902342141031,1522.20055193406
0.582867524115713,1522.21055193406
0.539126336451529,1522.22055193406
0.492907290721317,1522.23055193406
0.445167223745651,1522.24055193406
0.397774206694766,1522.25055193406
0.351809586994657,1522.26055193406
0.308576316086866,1522.27055193406
0.269438710999792,1522.28055193406
0.234512500097458,1522.29055193406
0.203949886447891,1522.30055193406
0.178144152771935,1522.31055193406
0.155920865617982,1522.32055193406
0.136246676813207,1522.33055193406
0.118317804511698,1522.34055193406
0.100956514194529,1522.35055193406
0.0835502161692677,1522.36055193406
0.0667318919979871,1522.37055193406
0.0505578995748101,1522.38055193406
0.0358269975693043,1522.39055193406
0.0232900962009391,1522.40055193406
0.0138049032714998,1522.41055193406
0.00748636621856623,1522.42055193406
0.0049009478804131,1522.43055193406
0.00675937709648877,1522.44055193406
0.0133394281107653,1522.45055193406
0.0245393477552991,1522.46055193406
0.0403630239187429,1522.47055193406
0.0587643628356372,1522.48055193406
0.0785767059295153,1522.49055193406
0.098115359290487,1522.50055193406
0.115301958872521,1522.51055193406
0.127731609154648,1522.52055193406
0.134432900714229,1522.53055193406
0.135496714702025,1522.54055193406
0.131069271870568,1522.55055193406
0.122693031698995,1522.56055193406
0.111406982598881,1522.57055193406
0.0988404408430863,1522.58055193406
0.0852743514552468,1522.59055193406
0.0704923439853381,1522.60055193406
0.0552329387346237,1522.61055193406
0.0404313935840755,1522.62055193406
0.0263357609184497,1522.63055193406
0.0126926730001205,1522.64055193406
-0.000609176531759362,1522.65055193406
-0.0129681317352033,1522.66055193406
-0.0246514710724582,1522.67055193406
-0.0356251218597879,1522.68055193406
-0.0459290354332556,1522.69055193406
-0.0556951899044227,1522.70055193406
-0.0651400693562498,1522.71055193406
-0.0740313679727995,1522.72055193406
-0.082476885241126,1522.73055193406
-0.0901658224975094,1522.74055193406
-0.0969266655189028,1522.75055193406
-0.103547305451,1522.76055193406
-0.109521594989324,1522.77055193406
-0.115701572777049,1522.78055193406
-0.122343387458107,1522.79055193406
-0.128836793251371,1522.80055193406
-0.135720374421786,1522.81055193406
-0.142934031752773,1522.82055193406
-0.150329184367259,1522.83055193406
-0.157315141615647,1522.84055193406
-0.163678597565705,1522.85055193406
-0.168712775975413,1522.86055193406
-0.170617310688946,1522.87055193406
-0.164523466261829,1522.88055193406
-0.142089067385981,1522.89055193406
-0.0928932938545183,1522.90055193406
-0.00656713968109879,1522.91055193406
0.118025919098057,1522.92055193406
0.267315743939673,1522.93055193406
0.417991922268132,1522.94055193406
0.546061895650552,1522.95055193406
0.637576900128935,1522.96055193406
0.690063740690533,1522.97055193406
0.707979726263547,1522.98055193406
0.700803722813805,1522.99055193406
0.677473417503772,1523.00055193406
0.644579111012505,1523.01055193406
0.60568739070944,1523.02055193406
0.563431181091431,1523.03055193406
0.519231794586033,1523.04055193406
0.473980181594428,1523.05055193406
0.428905549359072,1523.06055193406
0.385458363848889,1523.07055193406
0.343904255993798,1523.08055193406
0.305627735434779,1523.09055193406
0.27141900006069,1523.10055193406
0.241853198096369,1523.11055193406
0.216531357245835,1523.12055193406
0.194761083898171,1523.13055193406
0.175533298232184,1523.14055193406
0.157877738366145,1523.15055193406
0.140556931660251,1523.16055193406
0.123418456751867,1523.17055193406
0.106432447661039,1523.18055193406
0.0904355442917922,1523.19055193406
0.0756205698503563,1523.20055193406
0.0639869143191201,1523.21055193406
0.0561794478502903,1523.22055193406
0.0532453771320158,1523.23055193406
0.0563655810745609,1523.24055193406
0.0649199560685967,1523.25055193406
0.0794042175443167,1523.26055193406
0.0988255153961212,1523.27055193406
0.121194640433214,1523.28055193406
0.145618507975469,1523.29055193406
0.16918617257039,1523.30055193406
0.189277794361095,1523.31055193406
0.205116977542666,1523.32055193406
0.214703037168735,1523.33055193406
0.217462201743765,1523.34055193406
0.213459367600074,1523.35055193406
0.204185282799365,1523.36055193406
0.191381203848577,1523.37055193406
0.176419202411225,1523.38055193406
0.159413759956472,1523.39055193406
0.141651917671119,1523.40055193406
0.123772909801534,1523.41055193406
0.106019713210442,1523.42055193406
0.0891086080036677,1523.43055193406
0.073201673758751,1523.44055193406
0.0580757367498381,1523.45055193406
0.0437026372209336,1523.46055193406
0.0306776513377467,1523.47055193406
0.018388575245985,1523.48055193406
0.0071304700962116,1523.49055193406
-0.00300725125123554,1523.50055193406
-0.0121674899637116,1523.51055193406
-0.0204924196198594,1523.52055193406
-0.0288797091194677,1523.53055193406
-0.0362901118744899,1523.54055193406
-0.0436085944327017,1523.55055193406
-0.0504224765595649,1523.56055193406
-0.0570775701554408,1523.57055193406
-0.06370901333638,1523.58055193406
-0.0696002086768925,1523.59055193406
-0.0749521285392608,1523.60055193406
-0.0805579210891014,1523.61055193406
-0.0857835251934005,1523.62055193406
-0.0916679651581613,1523.63055193406
-0.0981422651877862,1523.64055193406
-0.105409427352267,1523.65055193406
-0.112307937130571,1523.66055193406
-0.117623108425066,1523.67055193406
-0.117385270738282,1523.68055193406
-0.103983459632052,1523.69055193406
-0.0665548732469718,1523.70055193406
0.00674220762679927,1523.71055193406
0.119921449539413,1523.72055193406
0.263401802090589,1523.73055193406
0.415699214439128,1523.74055193406
0.551676261984303,1523.75055193406
0.655145818382497,1523.76055193406
0.719864808949167,1523.77055193406
0.749695413579305,1523.78055193406
0.752880713155703,1523.79055193406
0.738268497479751,1523.80055193406
0.713304564093659,1523.81055193406
0.6824302424901,1523.82055193406
0.646986210892725,1523.83055193406
0.609433088482227,1523.84055193406
0.57008237222746,1523.85055193406
0.529518850077899,1523.86055193406
0.488907550113285,1523.87055193406
0.44958245172434,1523.88055193406
0.413431524961274,1523.89055193406
0.380821329334503,1523.90055193406
0.353172451123513,1523.91055193406
0.330625683221168,1523.92055193406
0.312175317553518,1523.93055193406
0.297159529880759,1523.94055193406
0.284182180444054,1523.95055193406
0.270834174469925,1523.96055193406
0.256660266796327,1523.97055193406
0.240279039826263,1523.98055193406
0.222665546262331,1523.99055193406
0.204165953212907,1524.00055193406
0.1874943169468,1524.01055193406
0.173655592989983,1524.02055193406
0.164874601620073,1524.03055193406
0.161552497438885,1524.04055193406
0.163285372601583,1524.05055193406
0.170330365363161,1524.06055193406
0.182111930685665,1524.07055193406
0.196968295644373,1524.08055193406
0.214204394929954,1524.09055193406
0.231411876200715,1524.10055193406
0.247519056580377,1524.11055193406
0.260677254292123,1524.12055193406
0.269942707699378,1524.13055193406
0.275163475289526,1524.14055193406
0.275678632332163,1524.15055193406
0.271436081955068,1524.16055193406
0.263583367937884,1524.17055193406
0.252323619172588,1524.18055193406
0.238512882379566,1524.19055193406
0.222864535698572,1524.20055193406
0.206793152948866,1524.21055193406
0.190475333951056,1524.22055193406
0.17358897107184,1524.23055193406
0.156337359552571,1524.24055193406
0.13945840350114,1524.25055193406
0.123277980167511,1524.26055193406
0.108006183741079,1524.27055193406
0.093437867891372,1524.28055193406
0.0800060622453155,1524.29055193406
0.0676205102556639,1524.30055193406
0.0559328322595904,1524.31055193406
0.0449715724533343,1524.32055193406
0.0341711083228083,1524.33055193406
0.0238779230202568,1524.34055193406
0.0139591280873006,1524.35055193406
0.00512695900867361,1524.36055193406
-0.00273396712120315,1524.37055193406
-0.0105644009084119,1524.38055193406
-0.0183456659316975,1524.39055193406
-0.0254786912053067,1524.40055193406
-0.0322292674292401,1524.41055193406
-0.0387980148736393,1524.42055193406
-0.0449218834580357,1524.43055193406
-0.0507514216737907,1524.44055193406
-0.056632939079658,1524.45055193406
-0.0627097954944288,1524.46055193406
-0.0685922719182414,1524.47055193406
-0.074982728673697,1524.48055193406
-0.0819702659513245,1524.49055193406
-0.0896101672109629,1524.50055193406
-0.096881418854295,1524.51055193406
-0.102521484113576,1524.52055193406
-0.104346346317241,1524.53055193406
-0.0954770871138149,1524.54055193406
-0.0656702800612626,1524.55055193406
-0.00237552507862544,1524.56055193406
0.101453287614672,1524.57055193406
0.239659358406705,1524.58055193406
0.391606718284162,1524.59055193406
0.531895523865615,1524.60055193406
0.642745552118241,1524.61055193406
0.715768415596451,1524.62055193406
0.753122591379755,1524.63055193406
0.761919706053826,1524.64055193406
0.750743711831841,1524.65055193406
0.727432941035902,1524.66055193406
0.696627937073795,1524.67055193406
0.662307924725922,1524.68055193406
0.624343665947623,1524.69055193406
0.584057664969716,1524.70055193406
0.542286757686279,1524.71055193406
0.498940349982578,1524.72055193406
0.456439079368996,1524.73055193406
0.416472476369187,1524.74055193406
0.381130053504545,1524.75055193406
0.351059769642887,1524.76055193406
0.326533780270658,1524.77055193406
0.306262068243657,1524.78055193406
0.290186929817081,1524.79055193406
0.276219443883452,1524.80055193406
0.262902278537099,1524.81055193406
0.249087456691314,1524.82055193406
0.233713047517513,1524.83055193406
0.216931251288009,1524.84055193406
0.200271341695012,1524.85055193406
0.184560603931427,1524.86055193406
0.172130837526378,1524.87055193406
0.163666858229161,1524.88055193406
0.161094066878346,1524.89055193406
0.163953343018788,1524.90055193406
0.172798141590522,1524.91055193406
0.186641929898181,1524.92055193406
0.204281628957817,1524.93055193406
0.224147500146401,1524.94055193406
0.244229409562177,1524.95055193406
0.262864120375685,1524.96055193406
0.277965091460478,1524.97055193406
0.289258113894318,1524.98055193406
0.295305283366805,1524.99055193406
0.296396689727822,1525.00055193406
0.292433553846268,1525.01055193406
0.284674666141746,1525.02055193406
0.273803971538618,1525.03055193406
0.260723109697713,1525.04055193406
0.245826221936914,1525.05055193406
0.229354636081522,1525.06055193406
0.212247670299323,1525.07055193406
0.194870687002447,1525.08055193406
0.177343104837467,1525.09055193406
0.159941320589502,1525.10055193406
0.143297245498355,1525.11055193406
0.127836791012383,1525.12055193406
0.113863090476619,1525.13055193406
0.100682907146214,1525.14055193406
0.0883242741517004,1525.15055193406
0.0765970083458981,1525.16055193406
0.0655764386148718,1525.17055193406
0.055775986863018,1525.18055193406
0.0469691317059086,1525.19055193406
0.0387807051869511,1525.20055193406
0.0309670729247049,1525.21055193406
0.0237398226232019,1525.22055193406
0.01708694075009,1525.23055193406
0.010953112016582,1525.24055193406
0.00530378826483357,1525.25055193406
-9.4491371302352e-05,1525.26055193406
-0.00577680752945514,1525.27055193406
-0.0122820289656351,1525.28055193406
-0.0190991263098741,1525.29055193406
-0.0266794542503758,1525.30055193406
-0.0343390611968668,1525.31055193406
-0.0425383311733749,1525.32055193406
-0.0509124609637103,1525.33055193406
-0.0590749204724146,1525.34055193406
-0.0666662230993879,1525.35055193406
-0.0720441726364458,1525.36055193406
-0.072657759574678,1525.37055193406
-0.0623787433243935,1525.38055193406
-0.0314551581357039,1525.39055193406
0.0311167349239851,1525.40055193406
0.130803352388488,1525.41055193406
0.260296064669563,1525.42055193406
0.400422516829877,1525.43055193406
0.528156828713256,1525.44055193406
0.627498422875409,1525.45055193406
0.691706416859945,1525.46055193406
0.722841670499077,1525.47055193406
0.728507242344235,1525.48055193406
0.7162135087069,1525.49055193406
0.693519694760063,1525.50055193406
0.663454075473746,1525.51055193406
0.628577193439882,1525.52055193406
0.589441610597394,1525.53055193406
0.546761882731559,1525.54055193406
0.502245268455909,1525.55055193406
0.457472707514446,1525.56055193406
0.414157484989018,1525.57055193406
0.374120125143717,1525.58055193406
0.33861917239757,1525.59055193406
0.308328317213951,1525.60055193406
0.282824111116669,1525.61055193406
0.262594706798286,1525.62055193406
0.245598893475935,1525.63055193406
0.229889817908658,1525.64055193406
0.215039308660108,1525.65055193406
0.198946704927136,1525.66055193406
0.181476974611577,1525.67055193406
0.164033892629056,1525.68055193406
0.148043740288424,1525.69055193406
0.13533124616235,1525.70055193406
0.127617162484023,1525.71055193406
0.12658253275155,1525.72055193406
0.132217637032273,1525.73055193406
0.144453726857182,1525.74055193406
0.162980571395545,1525.75055193406
0.185819105019934,1525.76055193406
0.211151415282843,1525.77055193406
0.236784051894995,1525.78055193406
0.259960948268707,1525.79055193406
0.278869562759491,1525.80055193406
0.292663526845833,1525.81055193406
0.300725863735768,1525.82055193406
0.302648169506544,1525.83055193406
0.299429055628051,1525.84055193406
0.290951656536777,1525.85055193406
0.27820131616985,1525.86055193406
0.262463524418174,1525.87055193406
0.244672976567801,1525.88055193406
0.224970229458378,1525.89055193406
0.204887672870311,1525.90055193406
0.185040534974917,1525.91055193406
0.165703302007164,1525.92055193406
0.146983035979082,1525.93055193406
0.129830335487031,1525.94055193406
0.114167227849942,1525.95055193406
0.0994908304523991,1525.96055193406
0.0861261827985161,1525.97055193406
0.0740397678087947,1525.98055193406
0.0626590773852535,1525.99055193406
0.0527622725821286,1526.00055193406
0.0445621719830856,1526.01055193406
0.0377458697438369,1526.02055193406
0.0320492355356122,1526.03055193406
0.0274286344800301,1526.04055193406
0.0226132188419853,1526.05055193406
0.017447558155465,1526.06055193406
0.0124823245931689,1526.07055193406
0.00712361708801776,1526.08055193406
0.00178624103407905,1526.09055193406
-0.00349210991824249,1526.10055193406
-0.00953723299663108,1526.11055193406
-0.0167658211274226,1526.12055193406
-0.024978919288284,1526.13055193406
-0.0338180993706477,1526.14055193406
-0.0432872455238551,1526.15055193406
-0.0521539957433094,1526.16055193406
-0.0594956535844792,1526.17055193406
-0.0630107718949378,1526.18055193406
-0.0579522847581967,1526.19055193406
-0.0343502834816908,1526.20055193406
0.0185555579023747,1526.21055193406
0.10741273618131,1526.22055193406
0.228918672404922,1526.23055193406
0.366082326902777,1526.24055193406
0.497068817088245,1526.25055193406
0.603817617957264,1526.26055193406
0.67761733054606,1526.27055193406
0.718613459240345,1526.28055193406
0.733431304015548,1526.29055193406
0.72843865975222,1526.30055193406
0.710888906992117,1526.31055193406
0.684953007630473,1526.32055193406
0.653837787570342,1526.33055193406
0.618784888713488,1526.34055193406
0.580913019062135,1526.35055193406
0.541587508072444,1526.36055193406
0.500971612565501,1526.37055193406
0.460915290439799,1526.38055193406
0.423108981855221,1526.39055193406
0.389548637908736,1526.40055193406
0.360802004754084,1526.41055193406
0.336356098564822,1526.42055193406
0.317074921985304,1526.43055193406
0.301135019777563,1526.44055193406
0.28754376868238,1526.45055193406
0.27472439672612,1526.46055193406
0.26136253954812,1526.47055193406
0.246507143909826,1526.48055193406
0.229583746737439,1526.49055193406
0.212600639389313,1526.50055193406
0.197018586675533,1526.51055193406
0.184379487323006,1526.52055193406
0.176096776821138,1526.53055193406
0.173512333836564,1526.54055193406
0.176765725906701,1526.55055193406
0.185809896115836,1526.56055193406
0.199803971822124,1526.57055193406
0.217508348867656,1526.58055193406
0.237888651338044,1526.59055193406
0.258351507357472,1526.60055193406
0.277393144230271,1526.61055193406
0.293874398105416,1526.62055193406
0.30517138724252,1526.63055193406
0.311312933452839,1526.64055193406
0.311824367502069,1526.65055193406
0.307328565126645,1526.66055193406
0.298590041870415,1526.67055193406
0.285937119961892,1526.68055193406
0.27080785800536,1526.69055193406
0.253420692000074,1526.70055193406
0.234290305608207,1526.71055193406
0.214663318805942,1526.72055193406
0.19519224914815,1526.73055193406
0.176389318981489,1526.74055193406
0.158825844997697,1526.75055193406
0.142014777808774,1526.76055193406
0.126457976117741,1526.77055193406
0.111591530845552,1526.78055193406
0.0984260155232792,1526.79055193406
0.085711038533783,1526.80055193406
0.0741935952853805,1526.81055193406
0.0633992751533501,1526.82055193406
0.0532994938555922,1526.83055193406
0.0444022455377254,1526.84055193406
0.0364014232486795,1526.85055193406
0.0295363316097682,1526.86055193406
0.0234287886627403,1526.87055193406
0.017758952126162,1526.88055193406
0.0119101594003189,1526.89055193406
0.00639929030451527,1526.90055193406
0.000869825881520816,1526.91055193406
-0.00506286681169844,1526.92055193406
-0.0113957756694365,1526.93055193406
-0.0183297998699297,1526.94055193406
-0.0260700879728914,1526.95055193406
-0.0343786486742539,1526.96055193406
-0.0435561036882673,1526.97055193406
-0.0534178134667764,1526.98055193406
-0.0629264645825643,1526.99055193406
-0.0719593435762293,1527.00055193406
-0.0794605533606975,1527.01055193406
-0.0810591993227634,1527.02055193406
-0.070677946513703,1527.03055193406
-0.038582281920371,1527.04055193406
0.0269931671841146,1527.05055193406
0.130855770099446,1527.06055193406
0.264246440428543,1527.07055193406
0.406828878229587,1527.08055193406
0.5360742274255,1527.09055193406
0.635819726368269,1527.10055193406
0.701752593261074,1527.11055193406
0.735063002350323,1527.12055193406
0.74348398325279,1527.13055193406
0.734397889010499,1527.14055193406
0.714339124293224,1527.15055193406
0.687168010317645,1527.16055193406
0.65556442002402,1527.17055193406
0.620775764549529,1527.18055193406
0.58332854219313,1527.19055193406
0.544648445172568,1527.20055193406
0.505302030887989,1527.21055193406
0.467114254637081,1527.22055193406
0.431333455143777,1527.23055193406
0.399473615248116,1527.24055193406
0.371445202991065,1527.25055193406
0.348252306669673,1527.26055193406
0.329303549689102,1527.27055193406
0.313975075360849,1527.28055193406
0.301067837160334,1527.29055193406
0.288516286387962,1527.30055193406
0.275033238998166,1527.31055193406
0.259832354140659,1527.32055193406
0.242239087890209,1527.33055193406
0.223244327343414,1527.34055193406
0.205014303474227,1527.35055193406
0.188816052821433,1527.36055193406
0.176779034085517,1527.37055193406
0.169932007172,1527.38055193406
0.169002875295864,1527.39055193406
0.174237536443397,1527.40055193406
0.184392392807144,1527.41055193406
0.198590469000478,1527.42055193406
0.215125993374203,1527.43055193406
0.232936790362972,1527.44055193406
0.249851355224405,1527.45055193406
0.26424432534518,1527.46055193406
0.275001172038374,1527.47055193406
0.281674844731463,1527.48055193406
0.283297302579637,1527.49055193406
0.280489392075969,1527.50055193406
0.273945158865258,1527.51055193406
0.263749148375387,1527.52055193406
0.251717909361705,1527.53055193406
0.236716464184664,1527.54055193406
0.220434400599407,1527.55055193406
0.203053210656624,1527.56055193406
0.184549435654295,1527.57055193406
0.166378187746617,1527.58055193406
0.148535717915956,1527.59055193406
0.131447857441839,1527.60055193406
0.115197913375576,1527.61055193406
0.0999427563614599,1527.62055193406
0.0859211884695593,1527.63055193406
0.07284451006135,1527.64055193406
0.060207574799213,1527.65055193406
0.0484327464895838,1527.66055193406
0.0375554319176659,1527.67055193406
0.0268058397180333,1527.68055193406
0.0172848003491557,1527.69055193406
0.00895784595471809,1527.70055193406
0.000979880623593075,1527.71055193406
-0.00606223310766734,1527.72055193406
-0.0131395787719553,1527.73055193406
-0.0195479955648562,1527.74055193406
-0.0267012093762346,1527.75055193406
-0.0334166466347794,1527.76055193406
-0.0409588162700806,1527.77055193406
-0.0483617330895844,1527.78055193406
-0.0564955608892804,1527.79055193406
-0.0653125331862319,1527.80055193406
-0.0738348977257317,1527.81055193406
-0.0828177395024498,1527.82055193406
-0.0909224095408476,1527.83055193406
-0.0972459000924646,1527.84055193406
-0.0983608585100814,1527.85055193406
-0.0875261166970932,1527.86055193406
-0.0538952618585115,1527.87055193406
0.0134239361372108,1527.88055193406
0.117954279379484,1527.89055193406
0.250393904370621,1527.90055193406
0.390091769878817,1527.91055193406
0.51404745743785,1527.92055193406
0.608322024162035,1527.93055193406
0.66696930481269,1527.94055193406
0.693770235017549,1527.95055193406
0.696083980350234,1527.96055193406
0.68169920017468,1527.97055193406
0.657752679877372,1527.98055193406
0.627340263288727,1527.99055193406
0.592405701022601,1528.00055193406
0.554126143430353,1528.01055193406
0.513181831148869,1528.02055193406
0.470140712475312,1528.03055193406
0.426562737533633,1528.04055193406
0.383840250958091,1528.05055193406
0.344043058762777,1528.06055193406
0.308402809242396,1528.07055193406
0.277656001447078,1528.08055193406
0.252595906161902,1528.09055193406
0.231786754988898,1528.10055193406
0.214407600701413,1528.11055193406
0.198765884677253,1528.12055193406
0.182780842566134,1528.13055193406
0.166459317401567,1528.14055193406
0.148448796046489,1528.15055193406
0.130217927620478,1528.16055193406
0.113312747762352,1528.17055193406
0.099030138826939,1528.18055193406
0.0886524418290045,1528.19055193406
0.0834556066254614,1528.20055193406
0.0837816562153177,1528.21055193406
0.090342992349778,1528.22055193406
0.102914890378076,1528.23055193406
0.120586357360605,1528.24055193406
0.142172853909465,1528.25055193406
0.165025563898056,1528.26055193406
0.187370497729406,1528.27055193406
0.20665032276663,1528.28055193406
0.221538271208862,1528.29055193406
0.23096463891467,1528.30055193406
0.234295833239195,1528.31055193406
0.232083331599369,1528.32055193406
0.224845489801252,1528.33055193406
0.213622019126761,1528.34055193406
0.198904712581717,1528.35055193406
0.182443984570525,1528.36055193406
0.164182822527748,1528.37055193406
0.145559166428599,1528.38055193406
0.12738026044266,1528.39055193406
0.109416289447848,1528.40055193406
0.0921557602581605,1528.41055193406
0.0757194697872357,1528.42055193406
0.0599864487603511,1528.43055193406
0.0445940577193196,1528.44055193406
0.0305417445104213,1528.45055193406
0.0174889772064172,1528.46055193406
0.00466257995412897,1528.47055193406
-0.00660358410581956,1528.48055193406
-0.0177163675091939,1528.49055193406
-0.0275414563590027,1528.50055193406
-0.036517117309029,1528.51055193406
-0.0443391589547165,1528.52055193406
-0.0506675345246396,1528.53055193406
-0.0567038188788784,1528.54055193406
-0.0622332453384941,1528.55055193406
-0.0677583231623468,1528.56055193406
-0.0732822816294938,1528.57055193406
-0.0787713532675453,1528.58055193406
-0.0849078333174684,1528.59055193406
-0.0913125871238482,1528.60055193406
-0.0981320109979956,1528.61055193406
-0.105704162923735,1528.62055193406
-0.113857675598795,1528.63055193406
-0.122149651311095,1528.64055193406
-0.129892918993987,1528.65055193406
-0.136374508416194,1528.66055193406
-0.13911547233635,1528.67055193406
-0.13200011596383,1528.68055193406
-0.107607457903191,1528.69055193406
-0.0525206821556405,1528.70055193406
0.0396053910506857,1528.71055193406
0.164824044696112,1528.72055193406
0.306263734804953,1528.73055193406
0.440353236956578,1528.74055193406
0.548471394690088,1528.75055193406
0.621689683852756,1528.76055193406
0.661031682813696,1528.77055193406
0.672283448084364,1528.78055193406
0.664047394658057,1528.79055193406
0.643106959517132,1528.80055193406
0.613876705736273,1528.81055193406
0.579589078812315,1528.82055193406
0.541480542636961,1528.83055193406
0.499797412041841,1528.84055193406
0.456163495316441,1528.85055193406
0.41188101040641,1528.86055193406
0.368728446973935,1528.87055193406
0.327816006407132,1528.88055193406
0.290871172571292,1528.89055193406
0.258675508407887,1528.90055193406
0.23125726623927,1528.91055193406
0.208419720997273,1528.92055193406
0.189216088943738,1528.93055193406
0.171850878694933,1528.94055193406
0.1557640427603,1528.95055193406
0.139092450293374,1528.96055193406
0.121568831319103,1528.97055193406
0.103302029266672,1528.98055193406
0.0852977038776984,1528.99055193406
0.0695976257933222,1529.00055193406
0.057723930582295,1529.01055193406
0.0513444421420656,1529.02055193406
0.0512786811819377,1529.03055193406
0.0574477607096632,1529.04055193406
0.0695091734418942,1529.05055193406
0.0859905860571751,1529.06055193406
0.106651716331424,1529.07055193406
0.129392696003585,1529.08055193406
0.152439714881534,1529.09055193406
0.173593600386961,1529.10055193406
0.190764869575916,1529.11055193406
0.20232254318377,1529.12055193406
0.208525090462749,1529.13055193406
0.208493437007831,1529.14055193406
0.202673617867799,1529.15055193406
0.192595396886776,1529.16055193406
0.179288911846542,1529.17055193406
0.163575680341705,1529.18055193406
0.145850736088306,1529.19055193406
0.127215667850772,1529.20055193406
0.108167400992834,1529.21055193406
0.0891666531706422,1529.22055193406
0.0701839366519402,1529.23055193406
0.0519092252062526,1529.24055193406
0.0343916253119321,1529.25055193406
0.0180464399672313,1529.26055193406
0.00363174540630992,1529.27055193406
-0.00861668675471239,1529.28055193406
-0.0192043801017002,1529.29055193406
-0.0282671092079885,1529.30055193406
-0.0359900691591212,1529.31055193406
-0.0435342822830174,1529.32055193406
-0.0512508127843877,1529.33055193406
-0.0587319560235768,1529.34055193406
-0.0662889428001637,1529.35055193406
-0.0729553788146747,1529.36055193406
-0.0794456627555136,1529.37055193406
-0.085403822080038,1529.38055193406
-0.0916399936131316,1529.39055193406
-0.0978213627566466,1529.40055193406
-0.105122228848006,1529.41055193406
-0.112937424170566,1529.42055193406
-0.121262927234899,1529.43055193406
-0.129760924178641,1529.44055193406
-0.138084405135147,1529.45055193406
-0.145562848614935,1529.46055193406
-0.149945378584433,1529.47055193406
-0.147517457769745,1529.48055193406
-0.129432490101073,1529.49055193406
-0.0837446427486133,1529.50055193406
-0.000639863981459,1529.51055193406
0.119241973627175,1529.52055193406
0.262004862604289,1529.53055193406
0.404125978991224,1529.54055193406
0.524109086252374,1529.55055193406
0.610098526696409,1529.56055193406
0.660906584816517,1529.57055193406
0.681041631888041,1529.58055193406
0.679083900937064,1529.59055193406
0.662834431810485,1529.60055193406
0.63770215021174,1529.61055193406
0.606769553759897,1529.62055193406
0.572304743462712,1529.63055193406
0.534369952594276,1529.64055193406
0.493896709623726,1529.65055193406
0.452635324020455,1529.66055193406
0.412134108529024,1529.67055193406
0.373335606483181,1529.68055193406
0.337049852316858,1529.69055193406
0.304242473741645,1529.70055193406
0.275641516970605,1529.71055193406
0.252232925744731,1529.72055193406
0.232070424024833,1529.73055193406
0.215993700056308,1529.74055193406
0.201965902252686,1529.75055193406
0.18855532668274,1529.76055193406
0.174116376517774,1529.77055193406
0.158437712759462,1529.78055193406
0.141311076989066,1529.79055193406
0.123836185166404,1529.80055193406
0.107779901642381,1529.81055193406
0.0948323196082797,1529.82055193406
0.0861985737058333,1529.83055193406
0.0832245186350771,1529.84055193406
0.0853139874397324,1529.85055193406
0.0923584056275471,1529.86055193406
0.104064113833255,1529.87055193406
0.119971118306276,1529.88055193406
0.137681346113838,1529.89055193406
0.15558544400933,1529.90055193406
0.172341798846221,1529.91055193406
0.185281762117543,1529.92055193406
0.194093952346905,1529.93055193406
0.198304266473105,1529.94055193406
0.197073105955923,1529.95055193406
0.191971810259696,1529.96055193406
0.183218059996753,1529.97055193406
0.171197203816878,1529.98055193406
0.156984123803149,1529.99055193406
0.140787844361175,1530.00055193406
0.123453496962538,1530.01055193406
0.105787247277203,1530.02055193406
0.0882070986474055,1530.03055193406
0.0705450992567673,1530.04055193406
0.0533630552875494,1530.05055193406
0.0364871028753353,1530.06055193406
0.0202135597616909,1530.07055193406
0.00423844553198348,1530.08055193406
-0.0109667369063916,1530.09055193406
-0.0251541149990398,1530.10055193406
-0.0383149429336873,1530.11055193406
-0.0501001021456788,1530.12055193406
-0.0608548276606635,1530.13055193406
-0.0704979644698237,1530.14055193406
-0.0789255467889195,1530.15055193406
-0.0868356956697521,1530.16055193406
-0.09411758477896,1530.17055193406
-0.101611383842729,1530.18055193406
-0.10872283597451,1530.19055193406
-0.115824395940438,1530.20055193406
-0.123253565069341,1530.21055193406
-0.130118970616692,1530.22055193406
-0.137419971313021,1530.23055193406
-0.145007309571719,1530.24055193406
-0.152714292866818,1530.25055193406
-0.160419571850493,1530.26055193406
-0.167243790554156,1530.27055193406
-0.171807175912832,1530.28055193406
-0.169334815092425,1530.29055193406
-0.151566243369347,1530.30055193406
-0.106975155663695,1530.31055193406
-0.0248681230429889,1530.32055193406
0.0946577697597974,1530.33055193406
0.238631155874963,1530.34055193406
0.383566539979313,1530.35055193406
0.50733570591008,1530.36055193406
0.595976847276994,1530.37055193406
0.648060532972865,1530.38055193406
0.668048769813287,1530.39055193406
0.66482488442109,1530.40055193406
0.646506734642389,1530.41055193406
0.619497412970168,1530.42055193406
0.587093200037899,1530.43055193406
0.550602707846859,1530.44055193406
0.510360837092224,1530.45055193406
0.467507091619283,1530.46055193406
0.422657494574853,1530.47055193406
0.37795871531316,1530.48055193406
0.334774932015323,1530.49055193406
0.294725854035635,1530.50055193406
0.260027663921694,1530.51055193406
0.230534696889441,1530.52055193406
0.20576689704311,1530.53055193406
0.185929188289419,1530.54055193406
0.169399573772893,1530.55055193406
0.154865982495752,1530.56055193406
0.140945966809159,1530.57055193406
0.126231877897685,1530.58055193406
0.110613492766627,1530.59055193406
0.0943654377984619,1530.60055193406
0.0779713206243688,1530.61055193406
0.0638192625472454,1530.62055193406
0.0520271798369856,1530.63055193406
0.0438742766736949,1530.64055193406
0.040311395150814,1530.65055193406
0.0421148178349844,1530.66055193406
0.0489653027729773,1530.67055193406
0.0609084756748653,1530.68055193406
0.0767681390659852,1530.69055193406
0.0946747263168556,1530.70055193406
0.113482842553476,1530.71055193406
0.13134837605695,1530.72055193406
0.14548441006273,1530.73055193406
0.155701342025894,1530.74055193406
0.160518694271526,1530.75055193406
0.160115128297646,1530.76055193406
0.155074568129112,1530.77055193406
0.146045663177136,1530.78055193406
0.134907816185635,1530.79055193406
0.121310994858591,1530.80055193406
0.106648998628004,1530.81055193406
0.0905384161107764,1530.82055193406
0.0744932988117421,1530.83055193406
0.0579857822378839,1530.84055193406
0.0418648419474377,1530.85055193406
0.0260291692125677,1530.86055193406
0.0106100662748081,1530.87055193406
-0.00380157679850317,1530.88055193406
-0.0178165857848998,1530.89055193406
-0.0311355454122096,1530.90055193406
-0.0433746202365877,1530.91055193406
-0.0546658535240225,1530.92055193406
-0.0648642804080345,1530.93055193406
-0.0741937720836804,1530.94055193406
-0.0833950696853277,1530.95055193406
-0.0922498434476154,1530.96055193406
-0.101290627778207,1530.97055193406
-0.109303395131956,1530.98055193406
-0.116993935598465,1530.99055193406
-0.124459272847785,1531.00055193406
-0.131093508868119,1531.01055193406
-0.138105770954112,1531.02055193406
-0.145083983219073,1531.03055193406
-0.152529093251272,1531.04055193406
-0.159806673307999,1531.05055193406
-0.167151537374098,1531.06055193406
-0.173609456102021,1531.07055193406
-0.178199446147751,1531.08055193406
-0.176652275337509,1531.09055193406
-0.162191146628081,1531.10055193406
-0.12462803922327,1531.11055193406
-0.0524074492582708,1531.12055193406
0.0574328844975595,1531.13055193406
0.195546132255043,1531.14055193406
0.340653051208345,1531.15055193406
0.469389033582347,1531.16055193406
0.565602137917313,1531.17055193406
0.624506043832877,1531.18055193406
0.649163362636351,1531.19055193406
0.647677238359081,1531.20055193406
0.628995332800722,1531.21055193406
0.600343599614798,1531.22055193406
0.566121025051783,1531.23055193406
0.527688826796439,1531.24055193406
0.485911389167954,1531.25055193406
0.441086074616791,1531.26055193406
0.39493758572362,1531.27055193406
0.348758204685585,1531.28055193406
0.304425138352627,1531.29055193406
0.263319410780265,1531.30055193406
0.226538772444608,1531.31055193406
0.194076984016798,1531.32055193406
0.166497208132759,1531.33055193406
0.142976296838594,1531.34055193406
0.122167322037805,1531.35055193406
0.103261215767519,1531.36055193406
0.0845153276776608,1531.37055193406
0.0655591928015839,1531.38055193406
0.0466359516404522,1531.39055193406
0.0284689907151251,1531.40055193406
0.012533830495129,1531.41055193406
-4.47792097756933e-05,1531.42055193406
-0.00860533160595113,1531.43055193406
-0.0121748939472993,1531.44055193406
-0.0100755159197642,1531.45055193406
-0.00188700297609978,1531.46055193406
0.012034600795997,1531.47055193406
0.0313792069322595,1531.48055193406
0.0550379535985265,1531.49055193406
0.0806280719901918,1531.50055193406
0.105270844243681,1531.51055193406
0.127011728756538,1531.52055193406
0.143296284070016,1531.53055193406
0.153113286906804,1531.54055193406
0.15670817094941,1531.55055193406
0.154487040008986,1531.56055193406
0.147060083998365,1531.57055193406
0.135316551324163,1531.58055193406
0.120411156304465,1531.59055193406
0.10339185330864,1531.60055193406
0.0851288493125291,1531.61055193406
0.0666127741003368,1531.62055193406
0.047596660339254,1531.63055193406
0.0290876864091836,1531.64055193406
0.011218136928546,1531.65055193406
-0.00592661879223311,1531.66055193406
-0.0216431316909724,1531.67055193406
-0.0361622025103591,1531.68055193406
-0.0493484767354075,1531.69055193406
-0.0611721122538013,1531.70055193406
-0.0713747484817662,1531.71055193406
-0.0808208716483247,1531.72055193406
-0.0891817958087515,1531.73055193406
-0.0970420468891728,1531.74055193406
-0.104434550852562,1531.75055193406
-0.111607938139155,1531.76055193406
-0.118679122276117,1531.77055193406
-0.125658909236784,1531.78055193406
-0.13321386850368,1531.79055193406
-0.141118770044468,1531.80055193406
-0.149067000643226,1531.81055193406
-0.157478315783636,1531.82055193406
-0.165486413825838,1531.83055193406
-0.172790362183337,1531.84055193406
-0.1780279760121,1531.85055193406
-0.176811346651934,1531.86055193406
-0.161709919315193,1531.87055193406
-0.120983707264446,1531.88055193406
-0.043838920513693,1531.89055193406
0.0703229827199637,1531.90055193406
0.211624129444643,1531.91055193406
0.357315243152502,1531.92055193406
0.484332606843817,1531.93055193406
0.578188148785906,1531.94055193406
0.635146014992193,1531.95055193406
0.659234427752062,1531.96055193406
0.658751853829703,1531.97055193406
0.642214531314412,1531.98055193406
0.615720275840722,1531.99055193406
0.583612686443679,1532.00055193406
0.546946661165768,1532.01055193406
0.507609503323699,1532.02055193406
0.465605418360447,1532.03055193406
0.422337724526344,1532.04055193406
0.379605833738831,1532.05055193406
0.338565656546865,1532.06055193406
0.300010943621841,1532.07055193406
0.265320641037551,1532.08055193406
0.235520592406995,1532.09055193406
0.210603964881721,1532.10055193406
0.189744906019362,1532.11055193406
0.171556826607,1532.12055193406
0.155141822205432,1532.13055193406
0.138650717606766,1532.14055193406
0.121507749993674,1532.15055193406
0.103196842219415,1532.16055193406
0.0849749211442422,1532.17055193406
0.0673089829704105,1532.18055193406
0.0517426839608266,1532.19055193406
0.0399150363333586,1532.20055193406
0.032685795608867,1532.21055193406
0.0311463842424706,1532.22055193406
0.0350127196513261,1532.23055193406
0.0444569525846954,1532.24055193406
0.058941070463974,1532.25055193406
0.0767795342049661,1532.26055193406
0.0966438579539729,1532.27055193406
0.116245731506665,1532.28055193406
0.133703717736687,1532.29055193406
0.147388018740752,1532.30055193406
0.15624545324882,1532.31055193406
0.159197661829008,1532.32055193406
0.15693519787925,1532.33055193406
0.149890519740691,1532.34055193406
0.139308796118254,1532.35055193406
0.125922709864497,1532.36055193406
0.110908205401715,1532.37055193406
0.0946002550545082,1532.38055193406
0.0772548647455439,1532.39055193406
0.0597569515716171,1532.40055193406
0.0419251510398945,1532.41055193406
0.0247365889231716,1532.42055193406
0.00856507799650228,1532.43055193406
-0.00706185043060516,1532.44055193406
-0.0216228894247087,1532.45055193406
-0.0352466019958013,1532.46055193406
-0.0477750527927191,1532.47055193406
-0.0589613175557979,1532.48055193406
-0.0694647586756391,1532.49055193406
-0.0793060859139168,1532.50055193406
-0.0879927391413293,1532.51055193406
-0.0967679209271041,1532.52055193406
-0.104782182685123,1532.53055193406
-0.112341184848429,1532.54055193406
-0.119809405785495,1532.55055193406
-0.127158922957429,1532.56055193406
-0.134707487187468,1532.57055193406
-0.14231508059606,1532.58055193406
-0.15028395333443,1532.59055193406
-0.158310663127925,1532.60055193406
-0.165920475768194,1532.61055193406
-0.173643893737012,1532.62055193406
-0.178971320037802,1532.63055193406
-0.176946996354438,1532.64055193406
-0.159577053329103,1532.65055193406
-0.115233406272743,1532.66055193406
-0.0324630073789629,1532.67055193406
0.0888893259118473,1532.68055193406
0.235171714693538,1532.69055193406
0.383837200397324,1532.70055193406
0.511205001341703,1532.71055193406
0.60372639536921,1532.72055193406
0.65877929736368,1532.73055193406
0.680494514030011,1532.74055193406
0.677847892251573,1532.75055193406
0.659306868667581,1532.76055193406
0.631130333546516,1532.77055193406
0.597650848238264,1532.78055193406
0.559901382386345,1532.79055193406
0.519036407539103,1532.80055193406
0.475651952521343,1532.81055193406
0.431002875281755,1532.82055193406
0.386477056449629,1532.83055193406
0.343951806272834,1532.84055193406
0.304483393470729,1532.85055193406
0.269288702593397,1532.86055193406
0.239280247428401,1532.87055193406
0.213217451339955,1532.88055193406
0.191962556779349,1532.89055193406
0.173501515354118,1532.90055193406
0.156471409178544,1532.91055193406
0.139698320565928,1532.92055193406
0.12209281609495,1532.93055193406
0.104044091977454,1532.94055193406
0.0852451714487475,1532.95055193406
0.0669327187442017,1532.96055193406
0.0504612139404278,1532.97055193406
0.0378088155710996,1532.98055193406
0.0295546046362127,1532.99055193406
0.0265567322069017,1533.00055193406
0.0292118478142919,1533.01055193406
0.036869836082946,1533.02055193406
0.0492754648487429,1533.03055193406
0.065394917798286,1533.04055193406
0.0831233934380939,1533.05055193406
0.100972778377416,1533.06055193406
0.117456410799963,1533.07055193406
0.130996209854663,1533.08055193406
0.140479017778574,1533.09055193406
0.144865687581939,1533.10055193406
0.143967918050601,1533.11055193406
0.137767487719177,1533.12055193406
0.127747753231869,1533.13055193406
0.115300979558197,1533.14055193406
0.101320222584593,1533.15055193406
0.0860947210460177,1533.16055193406
0.0697233354663611,1533.17055193406
0.052885317439457,1533.18055193406
0.036429291410793,1533.19055193406
0.0201826794223957,1533.20055193406
0.00433205191853684,1533.21055193406
-0.0104141920823127,1533.22055193406
-0.0245994941220228,1533.23055193406
-0.0378059149801256,1533.24055193406
-0.0503818742776371,1533.25055193406
-0.0625287478553044,1533.26055193406
-0.0742379062095285,1533.27055193406
-0.0853422973871253,1533.28055193406
-0.0954747115412276,1533.29055193406
-0.104436859784862,1533.30055193406
-0.112685265676851,1533.31055193406
-0.120407662390782,1533.32055193406
-0.127516526536205,1533.33055193406
-0.13463464114338,1533.34055193406
-0.142055710697746,1533.35055193406
-0.149202065759374,1533.36055193406
-0.156907363837373,1533.37055193406
-0.164329055990397,1533.38055193406
-0.17158998885227,1533.39055193406
-0.178679495831233,1533.40055193406
-0.184994001298333,1533.41055193406
-0.188837297977959,1533.42055193406
-0.184831802249948,1533.43055193406
-0.164496307949047,1533.44055193406
-0.116102538937952,1533.45055193406
-0.0302361441828702,1533.46055193406
0.0928836923052621,1533.47055193406
0.238770222927237,1533.48055193406
0.384501967554453,1533.49055193406
0.506925346633417,1533.50055193406
0.593537903587492,1533.51055193406
0.641842895032935,1533.52055193406
0.657258125430213,1533.53055193406
0.64908251371726,1533.54055193406
0.625277972780131,1533.55055193406
0.592371511182628,1533.56055193406
0.553245346003468,1533.57055193406
0.510407104924159,1533.58055193406
0.464306242212283,1533.59055193406
0.417273513174075,1533.60055193406
0.36975045397904,1533.61055193406
0.32394635622124,1533.62055193406
0.280667558314302,1533.63055193406
0.241870742389149,1533.64055193406
0.20757125330789,1533.65055193406
0.178109376905134,1533.66055193406
0.153198994764624,1533.67055193406
0.131444462504763,1533.68055193406
0.112704330611986,1533.69055193406
0.095251487409335,1533.70055193406
0.0785537142966533,1533.71055193406
0.0608956437321128,1533.72055193406
0.0431415258356368,1533.73055193406
0.026246706323503,1533.74055193406
0.0110464585248571,1533.75055193406
-0.00135818803511364,1533.76055193406
-0.00985099459756504,1533.77055193406
-0.0131222191914145,1533.78055193406
-0.0117588539896069,1533.79055193406
-0.00471352406549333,1533.80055193406
0.00751576094272899,1533.81055193406
0.0248001392493477,1533.82055193406
0.0455904732330796,1533.83055193406
0.0681661898842888,1533.84055193406
0.0900353596197954,1533.85055193406
0.109001039060707,1533.86055193406
0.122806714492898,1533.87055193406
0.130469732288837,1533.88055193406
0.13222380072585,1533.89055193406
0.128170321166793,1533.90055193406
0.119162039127752,1533.91055193406
0.10703227016756,1533.92055193406
0.0919555791533205,1533.93055193406
0.0759206302404095,1533.94055193406
0.0586355624606546,1533.95055193406
0.0417649080518898,1533.96055193406
0.024926373915649,1533.97055193406
0.00855248043150239,1533.98055193406
-0.00739617376223272,1533.99055193406
-0.0228573879280547,1534.00055193406
-0.0375213529624159,1534.01055193406
-0.050913086770398,1534.02055193406
-0.0636691322975817,1534.03055193406
-0.0751967966862543,1534.04055193406
-0.0863963053152551,1534.05055193406
-0.0973276909822559,1534.06055193406
-0.107104550956293,1534.07055193406
-0.11645496890068,1534.08055193406
-0.125229211477264,1534.09055193406
-0.134025574382104,1534.10055193406
-0.142405385996521,1534.11055193406
-0.150516610243581,1534.12055193406
-0.158589013588133,1534.13055193406
-0.166512771179661,1534.14055193406
-0.174190639944357,1534.15055193406
-0.181279051182878,1534.16055193406
-0.187954488004258,1534.17055193406
-0.193840212070116,1534.18055193406
-0.196961966130136,1534.19055193406
-0.193240630319613,1534.20055193406
-0.175718832049979,1534.21055193406
-0.132554119943168,1534.22055193406
-0.0530209123454789,1534.23055193406
0.0641180619962845,1534.24055193406
0.207567263576996,1534.25055193406
0.355209487090348,1534.26055193406
0.483908192751412,1534.27055193406
0.577744593956743,1534.28055193406
0.63291504850143,1534.29055193406
0.65378447689529,1534.30055193406
0.648671457289305,1534.31055193406
0.626416210826201,1534.32055193406
0.593978075809124,1534.33055193406
0.556407472734735,1534.34055193406
0.515282884036227,1534.35055193406
0.471640802234098,1534.36055193406
0.426012322900028,1534.37055193406
0.379855214721745,1534.38055193406
0.33447487143264,1534.39055193406
0.291416532227504,1534.40055193406
0.252146595028463,1534.41055193406
0.21716536074816,1534.42055193406
0.187487583723479,1534.43055193406
0.162578430405968,1534.44055193406
0.140837381387,1534.45055193406
0.121798552023546,1534.46055193406
0.103730877636851,1534.47055193406
0.0855141149551119,1534.48055193406
0.0667505105236638,1534.49055193406
0.0478405566736676,1534.50055193406
0.0302518618752021,1534.51055193406
0.0144377791552071,1534.52055193406
0.00216938222951064,1534.53055193406
-0.00552349220365811,1534.54055193406
-0.00772212005405951,1534.55055193406
-0.00442833358564521,1534.56055193406
0.00525330099970334,1534.57055193406
0.021159661135703,1534.58055193406
0.041423360676328,1534.59055193406
0.0648686490903217,1534.60055193406
0.0883573210579843,1534.61055193406
0.110296375344976,1534.62055193406
0.128939688056802,1534.63055193406
0.141867190801616,1534.64055193406
0.14904223904236,1534.65055193406
0.149700653722019,1534.66055193406
0.144807899443432,1534.67055193406
0.134568761200692,1534.68055193406
0.121146390754986,1534.69055193406
0.105440444305825,1534.70055193406
0.0876368569257138,1534.71055193406
0.0685257644232776,1534.72055193406
0.049147050830108,1534.73055193406
0.0296012848696694,1534.74055193406
0.0104961069304123,1534.75055193406
-0.00742367544128689,1534.76055193406
-0.0242374609579326,1534.77055193406
-0.0398622054023828,1534.78055193406
-0.054031188513369,1534.79055193406
-0.0665646128632258,1534.80055193406
-0.0780789384996909,1534.81055193406
-0.0885188616572828,1534.82055193406
-0.0976931797404069,1534.83055193406
-0.106182104660788,1534.84055193406
-0.113798937331052,1534.85055193406
-0.121161998550304,1534.86055193406
-0.127913645319163,1534.87055193406
-0.134539850668732,1534.88055193406
-0.141956831131764,1534.89055193406
-0.1498093507777,1534.90055193406
-0.158309643829215,1534.91055193406
-0.167090681566447,1534.92055193406
-0.17547362707611,1534.93055193406
-0.183134780673331,1534.94055193406
-0.186962068792607,1534.95055193406
-0.18181212234515,1534.96055193406
-0.159484469118966,1534.97055193406
-0.107753071105614,1534.98055193406
-0.0173684544923917,1534.99055193406
0.110520315453198,1535.00055193406
0.26044424833493,1535.01055193406
0.408082625484684,1535.02055193406
0.531111295131903,1535.03055193406
0.617887880886129,1535.04055193406
0.666025599854199,1535.05055193406
0.68128208006441,1535.06055193406
0.67280520392212,1535.07055193406
0.649965759427013,1535.08055193406
0.618466778260504,1535.09055193406
0.582100478564747,1535.10055193406
0.543121115214317,1535.11055193406
0.50202368787195,1535.12055193406
0.45923968906904,1535.13055193406
0.416713825028744,1535.14055193406
0.375121953829592,1535.15055193406
0.336009063834386,1535.16055193406
0.300857055953869,1535.17055193406
0.270489315856546,1535.18055193406
0.244588292505968,1535.19055193406
0.222962073984666,1535.20055193406
0.205227264920609,1535.21055193406
0.189302589084224,1535.22055193406
0.174311502762974,1535.23055193406
0.159804354370256,1535.24055193406
0.14384795917725,1535.25055193406
0.126633392574596,1535.26055193406
0.109314033706388,1535.27055193406
0.0930313740019733,1535.28055193406
0.0791555363660743,1535.29055193406
0.0693499354095085,1535.30055193406
0.0637344588354696,1535.31055193406
0.063395770390124,1535.32055193406
0.0682489482471929,1535.33055193406
0.077052944591324,1535.34055193406
0.0900756562276397,1535.35055193406
0.106530137544431,1535.36055193406
0.124382758744809,1535.37055193406
0.141806101758645,1535.38055193406
0.156974948143308,1535.39055193406
0.167925803817957,1535.40055193406
0.173525436195155,1535.41055193406
0.173444396016447,1535.42055193406
0.16839340059487,1535.43055193406
0.158888103484874,1535.44055193406
0.146753699275602,1535.45055193406
0.132543998105749,1535.46055193406
0.116752405248347,1535.47055193406
0.100523117796465,1535.48055193406
0.0837300691324808,1535.49055193406
0.0670910901366421,1535.50055193406
0.0497255348140795,1535.51055193406
0.0333446976596577,1535.52055193406
0.0178124827931416,1535.53055193406
0.00285259408252874,1535.54055193406
-0.0107404058302554,1535.55055193406
-0.0236082434382058,1535.56055193406
-0.0355608309912898,1535.57055193406
-0.0467941250122676,1535.58055193406
-0.0573695388393956,1535.59055193406
-0.0670244662104873,1535.60055193406
-0.0764441557773478,1535.61055193406
-0.0851993482229085,1535.62055193406
-0.0933271851196327,1535.63055193406
-0.101431902308452,1535.64055193406
-0.109553768520876,1535.65055193406
-0.117659975742489,1535.66055193406
-0.126063854734003,1535.67055193406
-0.134895167718894,1535.68055193406
-0.143880167751714,1535.69055193406
-0.152451990221115,1535.70055193406
-0.160677316013427,1535.71055193406
-0.166709352897974,1535.72055193406
-0.166586906958587,1535.73055193406
-0.153214443574369,1535.74055193406
-0.114850503067328,1535.75055193406
-0.0398004214149951,1535.76055193406
0.0756191696772887,1535.77055193406
0.221338642660609,1535.78055193406
0.374265905712622,1535.79055193406
0.509782570304216,1535.80055193406
0.611757459480866,1535.81055193406
0.67458562911595,1535.82055193406
0.701688412294424,1535.83055193406
0.701715483697574,1535.84055193406
0.683610956902835,1535.85055193406
0.654904165610415,1535.86055193406
0.619877714439382,1535.87055193406
0.581071699406591,1535.88055193406
0.539981714126421,1535.89055193406
0.496639597832929,1535.90055193406
0.452695563765321,1535.91055193406
0.409842954825161,1535.92055193406
0.368844721246467,1535.93055193406
0.332262483243709,1535.94055193406
0.300437648276307,1535.95055193406
0.273564561429443,1535.96055193406
0.251976909874769,1535.97055193406
0.233896874378556,1535.98055193406
0.217832585592282,1535.99055193406
0.202640786941536,1536.00055193406
0.186587489066512,1536.01055193406
0.169502934916199,1536.02055193406
0.150839061338738,1536.03055193406
0.131327267635881,1536.04055193406
0.111627702485107,1536.05055193406
0.0940837739847719,1536.06055193406
0.0804223115482632,1536.07055193406
0.0710513173677094,1536.08055193406
0.0674211411207984,1536.09055193406
0.0701496654856437,1536.10055193406
0.0778617684984888,1536.11055193406
0.0899556044518529,1536.12055193406
0.105487182035105,1536.13055193406
0.122341863657022,1536.14055193406
0.139425877489863,1536.15055193406
0.154487215410856,1536.16055193406
0.166349364804151,1536.17055193406
0.173349159190437,1536.18055193406
0.175416508624726,1536.19055193406
0.173162795476753,1536.20055193406
0.166264361936859,1536.21055193406
0.156053462005027,1536.22055193406
0.143105717581802,1536.23055193406
0.128185818002764,1536.24055193406
0.111669274609413,1536.25055193406
0.0948599165523774,1536.26055193406
0.0782954841357866,1536.27055193406
0.0612529706442057,1536.28055193406
0.0447823086155952,1536.29055193406
0.02916946812368,1536.30055193406
0.0138195976811373,1536.31055193406
-0.000224057588751779,1536.32055193406
-0.0136281967562771,1536.33055193406
-0.025904186139694,1536.34055193406
-0.0376552905478498,1536.35055193406
-0.0485061232007575,1536.36055193406
-0.0587844926081788,1536.37055193406
-0.0682482729192457,1536.38055193406
-0.0776206695277335,1536.39055193406
-0.0865583238795845,1536.40055193406
-0.0947037832207734,1536.41055193406
-0.102579564405023,1536.42055193406
-0.110092484768769,1536.43055193406
-0.117483762511027,1536.44055193406
-0.125172154754119,1536.45055193406
-0.132861834033581,1536.46055193406
-0.140702619016326,1536.47055193406
-0.148746645559376,1536.48055193406
-0.156883748874622,1536.49055193406
-0.16471889439551,1536.50055193406
-0.171396667486581,1536.51055193406
-0.175546614463875,1536.52055193406
-0.172165593772656,1536.53055193406
-0.153242318588729,1536.54055193406
-0.107831332590558,1536.55055193406
-0.0242843697846122,1536.56055193406
0.0969086088299088,1536.57055193406
0.243721603406514,1536.58055193406
0.39224333471009,1536.59055193406
0.519819562279946,1536.60055193406
0.612276046461924,1536.61055193406
0.665239168716234,1536.62055193406
0.684035701724277,1536.63055193406
0.677428682368405,1536.64055193406
