PPG,time
1198.07487595993,1828.37998618212
2363.69281530969,1828.38998618212
2080.80393320047,1828.39998618212
2232.19549503327,1828.40998618212
2132.08070352207,1828.41998618212
2191.22866632977,1828.42998618212
2145.18200231184,1828.43998618212
2160.79680847306,1828.44998618212
2141.90329932037,1828.45998618212
2138.16836343978,1828.46998618212
2116.75343811566,1828.47998618212
2093.41918308688,1828.48998618212
2067.15366717365,1828.49998618212
2035.45886287059,1828.50998618212
1990.12279359894,1828.51998618212
1960.56903148842,1828.52998618212
1930.43000856413,1828.53998618212
1893.38878176459,1828.54998618212
1863.50086622198,1828.55998618212
1845.2830587845,1828.56998618212
1825.99212272153,1828.57998618212
1803.67026509572,1828.58998618212
1782.56615149487,1828.59998618212
1771.70641247421,1828.60998618212
1754.70570156424,1828.61998618212
1728.88331801835,1828.62998618212
1707.45389811332,1828.63998618212
1685.02087940354,1828.64998618212
1677.95524515435,1828.65998618212
1669.85776611398,1828.66998618212
1662.78550041865,1828.67998618212
1654.97191397809,1828.68998618212
1647.6684765093,1828.69998618212
1627.91218889884,1828.70998618212
1604.51547128494,1828.71998618212
1588.42018141174,1828.72998618212
1575.62589520971,1828.73998618212
1569.50081251928,1828.74998618212
1559.16289390555,1828.75998618212
1549.57744297645,1828.76998618212
1543.01158834812,1828.77998618212
1534.4789356719,1828.78998618212
1530.21595993509,1828.79998618212
1539.50663604442,1828.80998618212
1540.61296467216,1828.81998618212
1545.4095724406,1828.82998618212
1545.02663724054,1828.83998618212
1544.80872643141,1828.84998618212
1545.822398756,1828.85998618212
1540.41904280097,1828.86998618212
1526.3912328677,1828.87998618212
1515.19876484598,1828.88998618212
1489.7844411892,1828.89998618212
1460.7009737662,1828.90998618212
1426.79782889527,1828.91998618212
1391.68026344513,1828.92998618212
1361.22080733452,1828.93998618212
1348.22796510952,1828.94998618212
1350.31554587753,1828.95998618212
1350.93027833992,1828.96998618212
1375.50185944128,1828.97998618212
1410.71360621037,1828.98998618212
1459.17355354651,1828.99998618212
1531.22408536138,1829.00998618212
1626.23934634573,1829.01998618212
1744.3018698663,1829.02998618212
1878.77511769569,1829.03998618212
2026.60361201937,1829.04998618212
2194.40410178377,1829.05998618212
2364.78686171906,1829.06998618212
2521.79359626957,1829.07998618212
2651.65045406443,1829.08998618212
2760.13694349266,1829.09998618212
2845.14150444172,1829.10998618212
2901.38634230744,1829.11998618212
2929.24082442242,1829.12998618212
2935.44424697225,1829.13998618212
2917.63565843098,1829.14998618212
2879.29630937661,1829.15998618212
2838.73863014141,1829.16998618212
2787.4867814558,1829.17998618212
2732.78022300229,1829.18998618212
2677.20451782004,1829.19998618212
2622.11635786705,1829.20998618212
2569.35076195209,1829.21998618212
2523.35111472246,1829.22998618212
2476.26971938157,1829.23998618212
2424.42342493937,1829.24998618212
2376.58686799552,1829.25998618212
2321.51492150945,1829.26998618212
2270.6377216841,1829.27998618212
2229.15353581064,1829.28998618212
2175.10379262754,1829.29998618212
2123.00392489319,1829.30998618212
2072.32637568526,1829.31998618212
2028.6430074891,1829.32998618212
1988.36449491231,1829.33998618212
1955.00611068243,1829.34998618212
1929.84245227125,1829.35998618212
1913.09535183729,1829.36998618212
1912.95572920924,1829.37998618212
1919.98962889147,1829.38998618212
1934.6212286623,1829.39998618212
1954.74776682599,1829.40998618212
1975.68632457658,1829.41998618212
1997.66659488284,1829.42998618212
2017.62062439543,1829.43998618212
2034.90873149125,1829.44998618212
2041.29084158567,1829.45998618212
2035.21777010708,1829.46998618212
2021.72265924133,1829.47998618212
2009.97079453267,1829.48998618212
1990.99530357057,1829.49998618212
1968.94275110364,1829.50998618212
1940.28941670515,1829.51998618212
1915.48582975079,1829.52998618212
1895.64362604022,1829.53998618212
1875.8265113242,1829.54998618212
1849.68655811388,1829.55998618212
1828.15277407076,1829.56998618212
1813.79177317874,1829.57998618212
1806.85457675482,1829.58998618212
1802.67736655433,1829.59998618212
1794.72354002209,1829.60998618212
1779.92093719856,1829.61998618212
1758.70038859733,1829.62998618212
1736.37167004593,1829.63998618212
1718.37228963151,1829.64998618212
1709.8697152394,1829.65998618212
1701.97749207102,1829.66998618212
1691.91815402197,1829.67998618212
1685.29812391893,1829.68998618212
1673.51655802614,1829.69998618212
1672.82079297066,1829.70998618212
1674.73805396744,1829.71998618212
1689.49964162297,1829.72998618212
1695.7351244993,1829.73998618212
1694.37434067703,1829.74998618212
1695.72417871602,1829.75998618212
1692.25040661351,1829.76998618212
1687.63724167145,1829.77998618212
1687.74040097577,1829.78998618212
1695.47386240317,1829.79998618212
1708.43207977787,1829.80998618212
1720.84026078134,1829.81998618212
1726.55785522139,1829.82998618212
1744.20789635339,1829.83998618212
1775.64729275621,1829.84998618212
1813.22577338819,1829.85998618212
1869.49339955806,1829.86998618212
1945.28562758938,1829.87998618212
2051.39713759373,1829.88998618212
2185.23156290824,1829.89998618212
2337.51001958599,1829.90998618212
2505.9304733776,1829.91998618212
2662.22185716057,1829.92998618212
2787.5057560903,1829.93998618212
2893.73927544562,1829.94998618212
2978.88590336355,1829.95998618212
3039.21967459486,1829.96998618212
3083.71723540805,1829.97998618212
3097.76987577573,1829.98998618212
3090.54909259295,1829.99998618212
3070.89832287815,1830.00998618212
3043.62767833352,1830.01998618212
3006.98378236701,1830.02998618212
2965.81710414054,1830.03998618212
2934.1000340416,1830.04998618212
2909.25701760842,1830.05998618212
2894.26150271495,1830.06998618212
2876.66137346561,1830.07998618212
2845.2798968186,1830.08998618212
2800.69086990812,1830.09998618212
2756.19437504535,1830.10998618212
2703.00205058625,1830.11998618212
2645.37314941554,1830.12998618212
2579.71434435171,1830.13998618212
2505.15405489669,1830.14998618212
2436.10883596526,1830.15998618212
2371.13464875084,1830.16998618212
2314.38810284544,1830.17998618212
2265.78168938992,1830.18998618212
2220.64229183317,1830.19998618212
2187.21610921509,1830.20998618212
2162.29990059424,1830.21998618212
2145.90629138296,1830.22998618212
2143.86869522222,1830.23998618212
2156.11844483331,1830.24998618212
2179.28879831189,1830.25998618212
2202.41814109326,1830.26998618212
2214.39101853451,1830.27998618212
2212.1680296447,1830.28998618212
2213.82170693546,1830.29998618212
2204.30994725804,1830.30998618212
2194.47741016874,1830.31998618212
2177.91374415334,1830.32998618212
2166.3905053284,1830.33998618212
2149.91426290087,1830.34998618212
2129.30681218761,1830.35998618212
2104.10204928508,1830.36998618212
2074.47970639183,1830.37998618212
2055.1037979414,1830.38998618212
2055.00479660898,1830.39998618212
2043.39406998229,1830.40998618212
2028.90196483034,1830.41998618212
2014.15169739643,1830.42998618212
2009.59505087167,1830.43998618212
2010.71169749919,1830.44998618212
2005.36797354592,1830.45998618212
1985.22856532983,1830.46998618212
1967.48628789087,1830.47998618212
1944.71053842526,1830.48998618212
1922.53023498923,1830.49998618212
1912.17429172748,1830.50998618212
1920.49578718344,1830.51998618212
1940.06303479883,1830.52998618212
1962.58299884063,1830.53998618212
1980.37908490987,1830.54998618212
1989.16807922533,1830.55998618212
1987.41679731747,1830.56998618212
1981.85329707177,1830.57998618212
1973.64519828053,1830.58998618212
1966.60690828755,1830.59998618212
1964.43198509383,1830.60998618212
1972.03859755479,1830.61998618212
1978.55540676199,1830.62998618212
1989.01375067592,1830.63998618212
1996.34621143852,1830.64998618212
1986.38106215032,1830.65998618212
1971.34165710367,1830.66998618212
1955.98537201249,1830.67998618212
1941.55413425552,1830.68998618212
1925.44368782511,1830.69998618212
1919.54372543362,1830.70998618212
1919.36862488244,1830.71998618212
1922.51358216189,1830.72998618212
1933.59907218484,1830.73998618212
1937.07972551923,1830.74998618212
1946.7346759563,1830.75998618212
1973.50082685428,1830.76998618212
2029.44426829139,1830.77998618212
2119.57694972669,1830.78998618212
2237.22260722855,1830.79998618212
2382.86605315166,1830.80998618212
2543.28042884358,1830.81998618212
2712.93434843497,1830.82998618212
2877.68807676707,1830.83998618212
3014.91096538201,1830.84998618212
3136.93175121516,1830.85998618212
3225.19076506625,1830.86998618212
3279.02353897044,1830.87998618212
3306.81139332157,1830.88998618212
3314.29699841079,1830.89998618212
3316.19020628384,1830.90998618212
3306.93117337075,1830.91998618212
3285.68231839293,1830.92998618212
3252.69573951237,1830.93998618212
3209.19001489815,1830.94998618212
3167.34583903236,1830.95998618212
3129.45696474913,1830.96998618212
3092.66438622894,1830.97998618212
3041.94686081965,1830.98998618212
2995.88905925083,1830.99998618212
2943.05204093653,1831.00998618212
2893.28450839913,1831.01998618212
2846.47737289068,1831.02998618212
2799.85357474274,1831.03998618212
2757.17487748838,1831.04998618212
2705.06809192318,1831.05998618212
2644.19482422654,1831.06998618212
2583.68791479808,1831.07998618212
2527.15974274916,1831.08998618212
2475.46096144883,1831.09998618212
2426.89117971236,1831.10998618212
2397.22941633091,1831.11998618212
2366.49377062996,1831.12998618212
2351.05833130153,1831.13998618212
2360.27651700833,1831.14998618212
2363.38411057046,1831.15998618212
2364.33907556031,1831.16998618212
2373.67500048543,1831.17998618212
2377.95735463701,1831.18998618212
2384.08180176232,1831.19998618212
2383.38091287948,1831.20998618212
2374.94863840967,1831.21998618212
2367.66433146327,1831.22998618212
2354.40457317904,1831.23998618212
2342.79643235111,1831.24998618212
2321.64903626856,1831.25998618212
2296.30869064729,1831.26998618212
2265.94480692872,1831.27998618212
2229.74023506855,1831.28998618212
2193.9252514901,1831.29998618212
2155.76959123516,1831.30998618212
2120.42014788352,1831.31998618212
2104.3310740059,1831.32998618212
2097.5829465199,1831.33998618212
2086.05528701921,1831.34998618212
2077.39959255042,1831.35998618212
2058.38810936693,1831.36998618212
2015.26726497756,1831.37998618212
1968.47829828502,1831.38998618212
1922.73970229256,1831.39998618212
1880.79504199917,1831.40998618212
1849.32387218811,1831.41998618212
1816.33772885063,1831.42998618212
1795.22853182727,1831.43998618212
1764.26381452756,1831.44998618212
1742.38540976638,1831.45998618212
1726.12890484607,1831.46998618212
1716.19302728481,1831.47998618212
1709.14754555685,1831.48998618212
1709.97450917288,1831.49998618212
1724.02374630856,1831.50998618212
1750.90648027623,1831.51998618212
1774.8077427681,1831.52998618212
1794.27020334371,1831.53998618212
1809.59216877413,1831.54998618212
1815.44855604463,1831.55998618212
1815.02885973747,1831.56998618212
1814.32389447247,1831.57998618212
1819.65038995928,1831.58998618212
1845.78399382228,1831.59998618212
1862.06630634961,1831.60998618212
1876.15542825669,1831.61998618212
1888.74916841801,1831.62998618212
1906.22509346966,1831.63998618212
1926.19498172203,1831.64998618212
1955.86244292917,1831.65998618212
1972.06666667881,1831.66998618212
1973.5016462844,1831.67998618212
1976.48358991768,1831.68998618212
1977.83884951977,1831.69998618212
1983.26486540333,1831.70998618212
1993.5403979351,1831.71998618212
1995.68906837313,1831.72998618212
1985.99187784302,1831.73998618212
1978.79762898676,1831.74998618212
1981.52483042123,1831.75998618212
2002.26787137352,1831.76998618212
2062.55721441386,1831.77998618212
2154.55431898751,1831.78998618212
2284.95328165509,1831.79998618212
2437.24732836072,1831.80998618212
2596.44498667945,1831.81998618212
2747.74635360087,1831.82998618212
2886.66416873816,1831.83998618212
3017.91465697531,1831.84998618212
3133.35802211282,1831.85998618212
3233.65884175894,1831.86998618212
3300.74246556217,1831.87998618212
3347.11955444044,1831.88998618212
3362.31856205951,1831.89998618212
3352.53214543372,1831.90998618212
3318.50210849447,1831.91998618212
3254.27574448055,1831.92998618212
3182.75983138607,1831.93998618212
3118.38033107933,1831.94998618212
3062.10149279071,1831.95998618212
2998.08875980677,1831.96998618212
2936.13934020628,1831.97998618212
2872.94293614428,1831.98998618212
2817.12706089172,1831.99998618212
2768.10637983876,1832.00998618212
2709.45176092625,1832.01998618212
2646.88962296535,1832.02998618212
2572.90614244133,1832.03998618212
2497.47913341627,1832.04998618212
2424.44381548896,1832.05998618212
2360.25964928204,1832.06998618212
2304.60761973548,1832.07998618212
2235.62981743503,1832.08998618212
2159.83510318453,1832.09998618212
2092.43037811356,1832.10998618212
2038.75521006697,1832.11998618212
2005.97948934203,1832.12998618212
1985.83788654773,1832.13998618212
1970.76965390124,1832.14998618212
1964.31754175035,1832.15998618212
1963.41933738511,1832.16998618212
1954.32669853857,1832.17998618212
1949.78915260582,1832.18998618212
1956.22643419652,1832.19998618212
1960.53029491123,1832.20998618212
1965.86790521596,1832.21998618212
1962.62250258207,1832.22998618212
1955.49994367216,1832.23998618212
1941.23942024853,1832.24998618212
1932.47864256788,1832.25998618212
1918.87322463841,1832.26998618212
1905.59011158889,1832.27998618212
1893.1195898713,1832.28998618212
1875.2184315003,1832.29998618212
1856.28556610186,1832.30998618212
1827.1106949103,1832.31998618212
1797.01976522399,1832.32998618212
1767.12904162532,1832.33998618212
1748.77524129123,1832.34998618212
1725.42604322053,1832.35998618212
1701.93868309734,1832.36998618212
1686.69545882102,1832.37998618212
1662.33368960614,1832.38998618212
1632.32950102563,1832.39998618212
1605.53737417938,1832.40998618212
1573.89997143151,1832.41998618212
1553.14688725809,1832.42998618212
1533.53212834417,1832.43998618212
1505.3314418115,1832.44998618212
1476.06764503494,1832.45998618212
1464.09564332143,1832.46998618212
1461.7597558254,1832.47998618212
1468.07730776003,1832.48998618212
1486.62158451039,1832.49998618212
1503.95262183921,1832.50998618212
1518.885642689,1832.51998618212
1523.34942016385,1832.52998618212
1516.0887785832,1832.53998618212
1515.55956179302,1832.54998618212
1510.44383313338,1832.55998618212
1490.73545086194,1832.56998618212
1476.45980778665,1832.57998618212
1455.2849118888,1832.58998618212
1436.06128088306,1832.59998618212
1413.73686283455,1832.60998618212
1386.58164764123,1832.61998618212
1367.71979293104,1832.62998618212
1359.50390785872,1832.63998618212
1342.96524744172,1832.64998618212
1343.09303537754,1832.65998618212
1342.42950240721,1832.66998618212
1342.99280245277,1832.67998618212
1342.21710755879,1832.68998618212
1343.13071394751,1832.69998618212
1341.590317333,1832.70998618212
1359.17863414428,1832.71998618212
1399.91711932304,1832.72998618212
1481.0236947419,1832.73998618212
1606.34418836666,1832.74998618212
1762.58056899682,1832.75998618212
1943.82357100287,1832.76998618212
2128.8377439933,1832.77998618212
2319.96773369193,1832.78998618212
2505.82677879428,1832.79998618212
2669.80527473087,1832.80998618212
2812.2326094189,1832.81998618212
2908.61226879288,1832.82998618212
2976.04489313731,1832.83998618212
3018.94022578542,1832.84998618212
3033.51374515059,1832.85998618212
3014.80276339138,1832.86998618212
2971.68602876687,1832.87998618212
2917.93566318093,1832.88998618212
2861.96662350327,1832.89998618212
2803.62405695882,1832.90998618212
2749.27640333765,1832.91998618212
2703.19681053862,1832.92998618212
2658.42494800322,1832.93998618212
2606.9272142122,1832.94998618212
2546.82041440615,1832.95998618212
2474.17920701182,1832.96998618212
2411.14249466792,1832.97998618212
2359.16102886123,1832.98998618212
2309.23207751518,1832.99998618212
2266.59457543704,1833.00998618212
2224.53504669102,1833.01998618212
2188.99218463996,1833.02998618212
2144.18169948386,1833.03998618212
2089.92705495004,1833.04998618212
2045.13474074535,1833.05998618212
2013.0607419864,1833.06998618212
1995.85767478872,1833.07998618212
2000.26125955457,1833.08998618212
2020.43015815223,1833.09998618212
2044.2123042807,1833.10998618212
2079.7206413863,1833.11998618212
2114.41305213807,1833.12998618212
2135.05192674087,1833.13998618212
2145.58972412165,1833.14998618212
2147.38540805988,1833.15998618212
2153.89251086639,1833.16998618212
2152.90508662018,1833.17998618212
2145.05890322103,1833.18998618212
2126.25240452056,1833.19998618212
2103.39167856408,1833.20998618212
2083.57285519668,1833.21998618212
2062.78863337743,1833.22998618212
2039.84948203362,1833.23998618212
2021.39897784799,1833.24998618212
1998.2200460032,1833.25998618212
1972.48194825645,1833.26998618212
1955.72324284406,1833.27998618212
1941.63516441414,1833.28998618212
1925.52168379941,1833.29998618212
1919.47342999917,1833.30998618212
1914.41415939385,1833.31998618212
1912.38034095311,1833.32998618212
1914.94218085691,1833.33998618212
1929.6193497346,1833.34998618212
1941.75695735189,1833.35998618212
1945.53554099288,1833.36998618212
1950.53183143474,1833.37998618212
1949.79214834955,1833.38998618212
1944.49865603395,1833.39998618212
1942.60167562308,1833.40998618212
1941.53080399324,1833.41998618212
1917.26234184419,1833.42998618212
1893.62658722022,1833.43998618212
1865.17339424472,1833.44998618212
1848.63830985696,1833.45998618212
1839.49646324788,1833.46998618212
1830.72950045339,1833.47998618212
1838.06556726932,1833.48998618212
1855.2962923066,1833.49998618212
1866.22504140429,1833.50998618212
1869.57268135102,1833.51998618212
1855.80045140467,1833.52998618212
1843.82287219891,1833.53998618212
1845.12998557827,1833.54998618212
1853.25980064839,1833.55998618212
1869.37532846593,1833.56998618212
1878.03062222449,1833.57998618212
1883.06631764062,1833.58998618212
1882.83043304517,1833.59998618212
1874.07465834356,1833.60998618212
1859.65582639746,1833.61998618212
1873.82593833135,1833.62998618212
1923.19508846496,1833.63998618212
2009.02227311764,1833.64998618212
2127.95685940425,1833.65998618212
2258.73453405317,1833.66998618212
2424.57051526395,1833.67998618212
2591.03044403578,1833.68998618212
2769.80413537753,1833.69998618212
2937.08914954766,1833.70998618212
3100.40311065682,1833.71998618212
3240.26660610719,1833.72998618212
3344.57900592942,1833.73998618212
3417.29304337015,1833.74998618212
3452.46307753351,1833.75998618212
3459.29653760649,1833.76998618212
3450.11521974984,1833.77998618212
3426.16247674676,1833.78998618212
3393.34715144362,1833.79998618212
3352.10573097928,1833.80998618212
3303.34605161863,1833.81998618212
3250.59302583131,1833.82998618212
3174.40157808356,1833.83998618212
3095.8945163689,1833.84998618212
3009.6729451729,1833.85998618212
2924.30905290438,1833.86998618212
2850.58629140539,1833.87998618212
2770.42311220986,1833.88998618212
2703.52809283001,1833.89998618212
2632.72378849172,1833.90998618212
2565.73875952123,1833.91998618212
2509.28715150043,1833.92998618212
2456.47045686687,1833.93998618212
2410.37429482648,1833.94998618212
2365.66458152922,1833.95998618212
2320.2885282385,1833.96998618212
2277.28697413547,1833.97998618212
2243.09040371967,1833.98998618212
2225.23515471639,1833.99998618212
2220.90860714426,1834.00998618212
2239.52864752984,1834.01998618212
2259.19194473194,1834.02998618212
2286.46171194356,1834.03998618212
2304.7921499297,1834.04998618212
2324.97019598675,1834.05998618212
2354.29206145976,1834.06998618212
2386.3798835212,1834.07998618212
2413.33783243492,1834.08998618212
2437.71049285494,1834.09998618212
2457.46844470726,1834.10998618212
2482.0066251501,1834.11998618212
2474.68309811829,1834.12998618212
2458.4704706215,1834.13998618212
2438.41021692123,1834.14998618212
2412.24902928383,1834.15998618212
2388.33999531115,1834.16998618212
2362.51588856296,1834.17998618212
2345.86147460805,1834.18998618212
2325.52613888541,1834.19998618212
2300.35690618939,1834.20998618212
2275.29546291928,1834.21998618212
2255.9208409159,1834.22998618212
2241.35932202042,1834.23998618212
2219.90066866826,1834.24998618212
2203.39506912388,1834.25998618212
2188.972516281,1834.26998618212
2173.35913464732,1834.27998618212
2160.90593879378,1834.28998618212
2158.2050960449,1834.29998618212
2143.11800891724,1834.30998618212
2125.97304292216,1834.31998618212
2111.25609742456,1834.32998618212
2090.50234229459,1834.33998618212
2082.50072503052,1834.34998618212
2069.26213526865,1834.35998618212
2053.1028050197,1834.36998618212
2039.85315820712,1834.37998618212
2032.7033558905,1834.38998618212
2013.29804267046,1834.39998618212
1999.65090209884,1834.40998618212
1986.79928017714,1834.41998618212
1970.77588228934,1834.42998618212
1962.51176476931,1834.43998618212
1948.86176921605,1834.44998618212
1933.75090633352,1834.45998618212
1918.37056114673,1834.46998618212
1905.73346421504,1834.47998618212
1899.15355144941,1834.48998618212
1897.31732744318,1834.49998618212
1899.98496993233,1834.50998618212
1919.7949644725,1834.51998618212
1937.20520217838,1834.52998618212
1945.00510695281,1834.53998618212
1958.84003204372,1834.54998618212
1967.54015270833,1834.55998618212
1981.20956614454,1834.56998618212
2003.92481165206,1834.57998618212
2048.54868054319,1834.58998618212
2135.5219896529,1834.59998618212
2248.63817738179,1834.60998618212
2391.11792404879,1834.61998618212
2555.97209787817,1834.62998618212
2735.47034139239,1834.63998618212
2904.70371331507,1834.64998618212
3059.52743611251,1834.65998618212
3184.11248550964,1834.66998618212
3282.61399108787,1834.67998618212
3342.37076843142,1834.68998618212
3379.92425405183,1834.69998618212
3398.10086224932,1834.70998618212
3404.02524105283,1834.71998618212
3406.36422475015,1834.72998618212
3401.19367209662,1834.73998618212
3370.46416128532,1834.74998618212
3326.23283252776,1834.75998618212
3273.36768055806,1834.76998618212
3203.20386444752,1834.77998618212
3133.85436495706,1834.78998618212
3062.8512874842,1834.79998618212
3007.71080824082,1834.80998618212
2949.31084036201,1834.81998618212
2888.98240088082,1834.82998618212
2828.68559358663,1834.83998618212
2771.32000166514,1834.84998618212
2725.63480033527,1834.85998618212
2687.06522130595,1834.86998618212
2649.15365278463,1834.87998618212
2606.77645663883,1834.88998618212
2557.34091536783,1834.89998618212
2502.31655312793,1834.90998618212
2446.6213549359,1834.91998618212
2389.60859488026,1834.92998618212
2333.72647392918,1834.93998618212
2296.56302838497,1834.94998618212
2273.1569730629,1834.95998618212
2255.35617175988,1834.96998618212
2233.81719805893,1834.97998618212
2198.40695694838,1834.98998618212
2179.02071311997,1834.99998618212
2168.69561291766,1835.00998618212
2163.73810119546,1835.01998618212
2162.20457489877,1835.02998618212
2157.2424099089,1835.03998618212
2144.46381893656,1835.04998618212
2126.39795996503,1835.05998618212
2103.40380326625,1835.06998618212
2080.35015997402,1835.07998618212
2037.28353780831,1835.08998618212
2006.69325993957,1835.09998618212
1976.29317125566,1835.10998618212
1963.93587296289,1835.11998618212
1957.83048681669,1835.12998618212
1944.07145096882,1835.13998618212
1919.81906316167,1835.14998618212
1898.07756699973,1835.15998618212
1878.02033029007,1835.16998618212
1867.05261139577,1835.17998618212
1861.7254692479,1835.18998618212
1853.97110130347,1835.19998618212
1838.46309889141,1835.20998618212
1813.79685074187,1835.21998618212
1788.93482442475,1835.22998618212
1769.75464207486,1835.23998618212
1753.25362684808,1835.24998618212
1735.14068244085,1835.25998618212
1732.39629467682,1835.26998618212
1739.05640131257,1835.27998618212
1746.42496176122,1835.28998618212
1762.29010171089,1835.29998618212
1774.28498585362,1835.30998618212
1775.65077578616,1835.31998618212
1767.21623751573,1835.32998618212
1754.34859093026,1835.33998618212
1738.08222962072,1835.34998618212
1726.0934913656,1835.35998618212
1718.95610844275,1835.36998618212
1723.57504329913,1835.37998618212
1731.67332155803,1835.38998618212
1735.36708653902,1835.39998618212
1747.26235611,1835.40998618212
1747.87248681888,1835.41998618212
1748.35916967422,1835.42998618212
1747.33615882311,1835.43998618212
1750.67658118061,1835.44998618212
1755.18589481594,1835.45998618212
1755.29294397983,1835.46998618212
1746.56512117683,1835.47998618212
1726.56543015665,1835.48998618212
1712.34971556754,1835.49998618212
1703.28501833557,1835.50998618212
1696.32839517253,1835.51998618212
1693.67881303242,1835.52998618212
1698.91326131773,1835.53998618212
1723.69159674636,1835.54998618212
1781.62870742398,1835.55998618212
1880.43153874837,1835.56998618212
1992.14269950444,1835.57998618212
2124.464522403,1835.58998618212
2276.03928771107,1835.59998618212
2412.72132969258,1835.60998618212
2552.13420963146,1835.61998618212
2689.52836690328,1835.62998618212
2804.65749502474,1835.63998618212
2909.84013382278,1835.64998618212
2971.81438254453,1835.65998618212
3006.36023712968,1835.66998618212
3016.33199795913,1835.67998618212
3007.58877262803,1835.68998618212
2987.63330927634,1835.69998618212
2947.09723903753,1835.70998618212
2904.08159006166,1835.71998618212
2857.88138364148,1835.72998618212
2812.41754506049,1835.73998618212
2771.61850083615,1835.74998618212
2723.34281169635,1835.75998618212
2664.20748603282,1835.76998618212
2592.11428426035,1835.77998618212
2520.2215654823,1835.78998618212
2439.22876929665,1835.79998618212
2362.03427923815,1835.80998618212
2296.52570882375,1835.81998618212
2237.19218802122,1835.82998618212
2176.69696917784,1835.83998618212
2110.86772990784,1835.84998618212
2046.06823037819,1835.85998618212
1981.37505090396,1835.86998618212
1915.77138314252,1835.87998618212
1852.64590568304,1835.88998618212
1803.15011229812,1835.89998618212
1757.2440641896,1835.90998618212
1723.67407793202,1835.91998618212
1714.71165219162,1835.92998618212
1715.75060916972,1835.93998618212
1724.48356280129,1835.94998618212
1736.38169091123,1835.95998618212
1751.79628205192,1835.96998618212
1772.66892723978,1835.97998618212
1778.43425551959,1835.98998618212
1783.2941822626,1835.99998618212
1780.49433279657,1836.00998618212
1774.29875349046,1836.01998618212
1770.48027031148,1836.02998618212
1767.35083137002,1836.03998618212
1763.01730728819,1836.04998618212
1754.50990033446,1836.05998618212
1744.79976791379,1836.06998618212
1731.51391376085,1836.07998618212
1723.80905128294,1836.08998618212
1720.46621223546,1836.09998618212
1714.4768798272,1836.10998618212
1710.01551660581,1836.11998618212
1709.8765779022,1836.12998618212
1716.96977671372,1836.13998618212
1716.33190982449,1836.14998618212
1704.808028831,1836.15998618212
1672.02674942025,1836.16998618212
1632.61350694386,1836.17998618212
1596.66434534698,1836.18998618212
1557.22983314498,1836.19998618212
1517.96153148963,1836.20998618212
1486.83896892097,1836.21998618212
1459.72796643822,1836.22998618212
1447.10417383216,1836.23998618212
1430.19836182125,1836.24998618212
1424.57726493374,1836.25998618212
1426.56280028466,1836.26998618212
1439.02550439364,1836.27998618212
1453.96573104796,1836.28998618212
1464.00807711883,1836.29998618212
1477.37145166151,1836.30998618212
1483.98638936736,1836.31998618212
1483.50544666037,1836.32998618212
1474.65253692761,1836.33998618212
1463.81184334897,1836.34998618212
1451.15078820022,1836.35998618212
1432.24096306686,1836.36998618212
1411.91173267659,1836.37998618212
1395.51262388308,1836.38998618212
1371.86799401786,1836.39998618212
1355.95542056366,1836.40998618212
1342.58269993279,1836.41998618212
1345.38470567703,1836.42998618212
1355.946793597,1836.43998618212
1374.03417419027,1836.44998618212
1402.07310583251,1836.45998618212
1443.09481012443,1836.46998618212
1505.7011242748,1836.47998618212
1607.06493134058,1836.48998618212
1749.05735972984,1836.49998618212
1920.2029227088,1836.50998618212
2095.08165721304,1836.51998618212
2277.25276671986,1836.52998618212
2444.71831191473,1836.53998618212
2595.74616071204,1836.54998618212
2729.40328808433,1836.55998618212
2840.9389039645,1836.56998618212
2916.15850361045,1836.57998618212
2969.63697132442,1836.58998618212
2999.00044929424,1836.59998618212
3001.42510471928,1836.60998618212
2991.40515255716,1836.61998618212
2979.87457890152,1836.62998618212
2966.83962933638,1836.63998618212
2951.91760705816,1836.64998618212
2932.13417695941,1836.65998618212
2891.02126940463,1836.66998618212
2843.85331269552,1836.67998618212
2778.20838707087,1836.68998618212
2710.53513395645,1836.69998618212
2646.68513026284,1836.70998618212
2574.41618199451,1836.71998618212
2510.77654189074,1836.72998618212
2460.03732891714,1836.73998618212
2412.28292330242,1836.74998618212
2376.58164192843,1836.75998618212
2342.1898422401,1836.76998618212
2298.34544915142,1836.77998618212
2258.80852304697,1836.78998618212
2224.44918086438,1836.79998618212
2195.4302394506,1836.80998618212
2168.12986478886,1836.81998618212
2146.52850606246,1836.82998618212
2116.77426446699,1836.83998618212
2091.19469268121,1836.84998618212
2078.8492396144,1836.85998618212
2082.6819435515,1836.86998618212
2096.35118136293,1836.87998618212
2119.44449648958,1836.88998618212
2147.44380183706,1836.89998618212
2172.91081328946,1836.90998618212
2198.02334972063,1836.91998618212
2208.82604637211,1836.92998618212
2218.8008447178,1836.93998618212
2227.28937715095,1836.94998618212
2226.08242633117,1836.95998618212
2211.05243059862,1836.96998618212
2184.8322883745,1836.97998618212
2156.27139261519,1836.98998618212
2130.17630912651,1836.99998618212
2110.84904901579,1837.00998618212
2091.08576882444,1837.01998618212
2079.94723378283,1837.02998618212
2054.79711733921,1837.03998618212
2035.00847333217,1837.04998618212
2007.77930918084,1837.05998618212
1974.52320052233,1837.06998618212
1944.76092515976,1837.07998618212
1920.04422539898,1837.08998618212
1897.2111432391,1837.09998618212
1881.17002323272,1837.10998618212
1871.79688500284,1837.11998618212
1867.81119959581,1837.12998618212
1855.83020423412,1837.13998618212
1851.99419465765,1837.14998618212
1853.60220314641,1837.15998618212
1840.29782274095,1837.16998618212
1837.49952969251,1837.17998618212
1838.07872359435,1837.18998618212
1831.66996983396,1837.19998618212
1821.62485460809,1837.20998618212
1805.7831970449,1837.21998618212
1787.04579897978,1837.22998618212
1784.48782123953,1837.23998618212
1785.25403670812,1837.24998618212
1791.01952104268,1837.25998618212
1801.41763710715,1837.26998618212
1816.87811507275,1837.27998618212
1831.4156009133,1837.28998618212
1841.30599879261,1837.29998618212
1850.97926717041,1837.30998618212
1861.71110154136,1837.31998618212
1868.49639633788,1837.32998618212
1868.98021582874,1837.33998618212
1878.85161581287,1837.34998618212
1899.40575795944,1837.35998618212
1925.28187021121,1837.36998618212
1962.6484926912,1837.37998618212
2022.76770335165,1837.38998618212
2104.76170471579,1837.39998618212
2215.32976360413,1837.40998618212
2345.62113489535,1837.41998618212
2483.57292420174,1837.42998618212
2632.70495909677,1837.43998618212
2785.22639942988,1837.44998618212
2941.43585162185,1837.45998618212
3080.11946950881,1837.46998618212
3192.16030654611,1837.47998618212
3286.22922754002,1837.48998618212
3344.30148988655,1837.49998618212
3377.13993311871,1837.50998618212
3389.87568025041,1837.51998618212
3389.13216481425,1837.52998618212
3359.45819545045,1837.53998618212
3321.34862800872,1837.54998618212
3281.84646686072,1837.55998618212
3235.63416020664,1837.56998618212
3184.00130428109,1837.57998618212
3112.20974335051,1837.58998618212
3041.06259074387,1837.59998618212
2973.75428455086,1837.60998618212
2889.34512285342,1837.61998618212
2797.48811251664,1837.62998618212
2707.8865695972,1837.63998618212
2632.49725190953,1837.64998618212
2567.72263988683,1837.65998618212
2517.91744617602,1837.66998618212
2461.58328167239,1837.67998618212
2408.01745954895,1837.68998618212
2348.41902841298,1837.69998618212
2291.63248549986,1837.70998618212
2242.88304245409,1837.71998618212
2198.04276739276,1837.72998618212
2166.1776025213,1837.73998618212
2149.27561018571,1837.74998618212
2153.3474991229,1837.75998618212
2152.3615177459,1837.76998618212
2153.45001769886,1837.77998618212
2151.87371704716,1837.78998618212
2157.76279493006,1837.79998618212
2171.34965343885,1837.80998618212
2183.28056241549,1837.81998618212
2212.12789932363,1837.82998618212
2229.46170747613,1837.83998618212
2238.35057444266,1837.84998618212
2243.2833852708,1837.85998618212
2236.83416382238,1837.86998618212
2232.25984780488,1837.87998618212
2227.91420459804,1837.88998618212
2226.06192625983,1837.89998618212
2211.05947151263,1837.90998618212
2202.3992753968,1837.91998618212
2197.23846154076,1837.92998618212
2199.12867557938,1837.93998618212
2194.60632974422,1837.94998618212
2184.83844530311,1837.95998618212
2165.98208111039,1837.96998618212
2146.9490488563,1837.97998618212
2126.42136374083,1837.98998618212
2099.17395604178,1837.99998618212
2077.94287019595,1838.00998618212
2054.64426558657,1838.01998618212
2035.0132400926,1838.02998618212
2009.51115087536,1838.03998618212
1993.8786029387,1838.04998618212
1976.63532088069,1838.05998618212
1953.12552723588,1838.06998618212
1931.804005579,1838.07998618212
1912.93536084611,1838.08998618212
1905.59104954101,1838.09998618212
1899.78699791958,1838.10998618212
1883.3153345482,1838.11998618212
1874.58835893005,1838.12998618212
1852.52931233418,1838.13998618212
1833.85135639928,1838.14998618212
1818.86438365632,1838.15998618212
1809.40804629927,1838.16998618212
1807.07324371535,1838.17998618212
1816.39383384415,1838.18998618212
1837.88498690337,1838.19998618212
1855.02377923483,1838.20998618212
1866.51696207503,1838.21998618212
1876.4913028149,1838.22998618212
1889.713561052,1838.23998618212
1889.61811846137,1838.24998618212
1890.1644141505,1838.25998618212
1883.84294255408,1838.26998618212
1882.65740866392,1838.27998618212
1882.48380824112,1838.28998618212
1884.73724668479,1838.29998618212
1904.40995751089,1838.30998618212
1937.67227484175,1838.31998618212
1983.64726490975,1838.32998618212
2058.91315390935,1838.33998618212
2165.06366054081,1838.34998618212
2305.57714037986,1838.35998618212
2470.88271463886,1838.36998618212
2639.68399090159,1838.37998618212
2798.62668697851,1838.38998618212
2940.13318162927,1838.39998618212
3057.6706165322,1838.40998618212
3156.7018210499,1838.41998618212
3229.86295288317,1838.42998618212
3278.7637726166,1838.43998618212
3313.15986480465,1838.44998618212
3324.08621280504,1838.45998618212
3315.84272371806,1838.46998618212
3287.57743716246,1838.47998618212
3252.4837321381,1838.48998618212
3205.72131494689,1838.49998618212
3151.63340282988,1838.50998618212
3103.7152438516,1838.51998618212
3052.00102792564,1838.52998618212
3003.77330363738,1838.53998618212
2949.35639954968,1838.54998618212
2885.129516966,1838.55998618212
2831.74163612948,1838.56998618212
2791.7591397451,1838.57998618212
2748.9436016682,1838.58998618212
2701.11975551797,1838.59998618212
2641.9684262637,1838.60998618212
2583.76243832738,1838.61998618212
2526.47180419175,1838.62998618212
2462.92185595213,1838.63998618212
2401.97617455965,1838.64998618212
2341.59352801458,1838.65998618212
2282.63995624013,1838.66998618212
2218.928808547,1838.67998618212
2165.44030816127,1838.68998618212
2111.62210850264,1838.69998618212
2063.30828264345,1838.70998618212
2039.69863253684,1838.71998618212
2017.23768207589,1838.72998618212
2002.46489967911,1838.73998618212
2005.7617256938,1838.74998618212
2009.71677328972,1838.75998618212
2018.70581214951,1838.76998618212
2026.07114998875,1838.77998618212
2024.25899912091,1838.78998618212
2025.74455450352,1838.79998618212
2022.72781399562,1838.80998618212
2015.24619535378,1838.81998618212
2003.32362284243,1838.82998618212
2005.4494165523,1838.83998618212
2010.6333299002,1838.84998618212
2004.31023431436,1838.85998618212
1994.61279330468,1838.86998618212
1970.82390678917,1838.87998618212
1931.39249654744,1838.88998618212
1885.42453537326,1838.89998618212
1841.24490582456,1838.90998618212
1801.26736305954,1838.91998618212
1767.18059999429,1838.92998618212
1728.83759566665,1838.93998618212
1684.64215296751,1838.94998618212
1657.548778851,1838.95998618212
1638.83691663856,1838.96998618212
1622.07925431445,1838.97998618212
1603.53685001419,1838.98998618212
1594.92968643471,1838.99998618212
1581.4390500264,1839.00998618212
1573.27926332126,1839.01998618212
1578.5020577209,1839.02998618212
1582.73949524725,1839.03998618212
1597.23172221289,1839.04998618212
1608.7063665472,1839.05998618212
1614.99935994587,1839.06998618212
1623.13454970505,1839.07998618212
1634.49053843847,1839.08998618212
1633.10084065516,1839.09998618212
1625.18363663722,1839.10998618212
1617.15318531144,1839.11998618212
1606.53073381044,1839.12998618212
1602.42567202456,1839.13998618212
1597.52417987074,1839.14998618212
1598.28380311201,1839.15998618212
1597.74682385357,1839.16998618212
1591.92089638889,1839.17998618212
1581.49628103104,1839.18998618212
1566.12247677834,1839.19998618212
1557.06040313169,1839.20998618212
1552.50278775949,1839.21998618212
1558.8901698602,1839.22998618212
1559.98319631024,1839.23998618212
1559.82195836195,1839.24998618212
1554.00629709185,1839.25998618212
1552.37664672498,1839.26998618212
1552.72100478246,1839.27998618212
1553.97908543754,1839.28998618212
1566.72925333911,1839.29998618212
1605.16334216856,1839.30998618212
1670.67132715076,1839.31998618212
1765.91367995291,1839.32998618212
1891.56097862294,1839.33998618212
2045.78049509213,1839.34998618212
2212.77017482525,1839.35998618212
2378.43312319941,1839.36998618212
2517.20098303421,1839.37998618212
2635.50074812289,1839.38998618212
2738.97852653953,1839.39998618212
2827.98234082097,1839.40998618212
2893.32203705954,1839.41998618212
2935.14219127037,1839.42998618212
2960.8775523118,1839.43998618212
2971.60040745736,1839.44998618212
2962.10259461824,1839.45998618212
2932.97819287165,1839.46998618212
2888.66553897321,1839.47998618212
2829.59288082819,1839.48998618212
2768.68531362375,1839.49998618212
2711.70519141828,1839.50998618212
2653.61991293595,1839.51998618212
2597.48752874945,1839.52998618212
2529.99674512483,1839.53998618212
2469.5171454482,1839.54998618212
2400.32019894105,1839.55998618212
2327.79744466266,1839.56998618212
2258.10977322019,1839.57998618212
2190.85519069162,1839.58998618212
2138.09984463532,1839.59998618212
2085.51875029629,1839.60998618212
2032.59182053028,1839.61998618212
1976.3443592894,1839.62998618212
1924.33683209055,1839.63998618212
1872.84081340842,1839.64998618212
1840.03103645502,1839.65998618212
1825.62818984527,1839.66998618212
1821.09587993603,1839.67998618212
1828.31082465297,1839.68998618212
1846.17785259464,1839.69998618212
1872.20497481465,1839.70998618212
1903.97391205814,1839.71998618212
1926.89355305395,1839.72998618212
1953.66961628247,1839.73998618212
1974.44828330083,1839.74998618212
1989.8378055809,1839.75998618212
1995.46210043813,1839.76998618212
2000.32364270345,1839.77998618212
1987.2009857671,1839.78998618212
1965.38717464286,1839.79998618212
1957.36349188346,1839.80998618212
1940.97088704752,1839.81998618212
1926.10485909783,1839.82998618212
1907.56212525656,1839.83998618212
1894.80131128464,1839.84998618212
1868.80352611911,1839.85998618212
1832.20987445954,1839.86998618212
1794.68275969317,1839.87998618212
1750.55622551309,1839.88998618212
1714.23681600037,1839.89998618212
1692.56011999042,1839.90998618212
1688.25830520204,1839.91998618212
1685.01357135836,1839.92998618212
1679.85288327575,1839.93998618212
1671.81266988412,1839.94998618212
1658.01268472696,1839.95998618212
1651.78191197437,1839.96998618212
1643.49519141285,1839.97998618212
1636.86189451425,1839.98998618212
1632.13128183268,1839.99998618212
1621.35007442132,1840.00998618212
1617.82229173709,1840.01998618212
1609.93216089747,1840.02998618212
1604.29003307439,1840.03998618212
1605.600145026,1840.04998618212
1598.57298849846,1840.05998618212
1598.63078187719,1840.06998618212
1588.57482482595,1840.07998618212
1584.34835538937,1840.08998618212
1591.19704849355,1840.09998618212
1583.51858335952,1840.10998618212
1583.14345606784,1840.11998618212
1576.30374059589,1840.12998618212
1574.60953848158,1840.13998618212
1575.12410682427,1840.14998618212
1574.66276655544,1840.15998618212
1575.25708424484,1840.16998618212
1578.71553620781,1840.17998618212
1574.17487985614,1840.18998618212
1575.23565823295,1840.19998618212
1573.66878276771,1840.20998618212
1591.19606319995,1840.21998618212
1625.02231289476,1840.22998618212
1679.21481561553,1840.23998618212
1775.35418145921,1840.24998618212
1891.62489389448,1840.25998618212
2034.03835991102,1840.26998618212
2213.3464856265,1840.27998618212
2411.19172180722,1840.28998618212
2593.96752492062,1840.29998618212
2766.29837786416,1840.30998618212
2915.49276669527,1840.31998618212
3024.11547362842,1840.32998618212
3113.36285449468,1840.33998618212
3177.89484344134,1840.34998618212
3221.08023239414,1840.35998618212
3237.20350046942,1840.36998618212
3239.50836151477,1840.37998618212
3219.14456900743,1840.38998618212
3177.86675829645,1840.39998618212
3117.46628388136,1840.40998618212
3039.96090771428,1840.41998618212
2982.87699129948,1840.42998618212
2927.34294668701,1840.43998618212
2877.55917119709,1840.44998618212
2830.22922533828,1840.45998618212
2780.22074795486,1840.46998618212
2738.19192076589,1840.47998618212
2697.49975349865,1840.48998618212
2639.40678991596,1840.49998618212
2573.21073798733,1840.50998618212
2508.69293124663,1840.51998618212
2439.57565938203,1840.52998618212
2387.07634242455,1840.53998618212
2344.0111584856,1840.54998618212
2296.72289352966,1840.55998618212
2264.27626818527,1840.56998618212
2240.26940360443,1840.57998618212
2211.50256240022,1840.58998618212
2195.98235457268,1840.59998618212
2183.00100449464,1840.60998618212
2184.77358686815,1840.61998618212
2200.96626980748,1840.62998618212
2225.17098262661,1840.63998618212
2249.61028813784,1840.64998618212
2276.42259164823,1840.65998618212
2296.85378937347,1840.66998618212
2313.98417359456,1840.67998618212
2328.73221320632,1840.68998618212
2335.41225447336,1840.69998618212
2340.81757337365,1840.70998618212
2339.73368369028,1840.71998618212
2346.77894024903,1840.72998618212
2348.71906041128,1840.73998618212
2345.60758656145,1840.74998618212
2331.61396395319,1840.75998618212
2314.58687704691,1840.76998618212
2288.79747090841,1840.77998618212
2252.5374744242,1840.78998618212
2208.26682990313,1840.79998618212
2170.60059104655,1840.80998618212
2146.77315044544,1840.81998618212
2144.6714686386,1840.82998618212
2143.73013882021,1840.83998618212
2125.78029881038,1840.84998618212
2099.78176267786,1840.85998618212
2075.6797158462,1840.86998618212
2057.48368240075,1840.87998618212
2038.82524089792,1840.88998618212
2021.04626188821,1840.89998618212
2006.10315001403,1840.90998618212
1997.00400642143,1840.91998618212
1986.09262126783,1840.92998618212
1978.9118386754,1840.93998618212
1982.5766541119,1840.94998618212
1990.82842302176,1840.95998618212
1995.38179389187,1840.96998618212
1994.82799428797,1840.97998618212
2001.53758496621,1840.98998618212
2003.72863066966,1840.99998618212
2000.49028845679,1841.00998618212
1992.25279473118,1841.01998618212
1979.50686438308,1841.02998618212
1961.24217048471,1841.03998618212
1944.11256578653,1841.04998618212
1931.87516779294,1841.05998618212
1921.21365623601,1841.06998618212
1913.81455863345,1841.07998618212
1912.81187023395,1841.08998618212
1912.67055918321,1841.09998618212
1920.37805144792,1841.10998618212
1933.58468014414,1841.11998618212
1951.43229793344,1841.12998618212
1972.7445384987,1841.13998618212
1989.1319057565,1841.14998618212
2010.99982622705,1841.15998618212
2039.64654593027,1841.16998618212
2085.85751788831,1841.17998618212
2161.10513397341,1841.18998618212
2279.11540515076,1841.19998618212
2414.93909792734,1841.20998618212
2567.50175718882,1841.21998618212
2731.3963939214,1841.22998618212
2897.55750538265,1841.23998618212
3059.34014521226,1841.24998618212
3209.67324288041,1841.25998618212
3331.58405177454,1841.26998618212
3414.87058441962,1841.27998618212
3463.75280758426,1841.28998618212
3480.41711692601,1841.29998618212
3472.42738071431,1841.30998618212
3448.86022787571,1841.31998618212
3400.31904032571,1841.32998618212
3345.89420081289,1841.33998618212
3285.58381727289,1841.34998618212
3216.0735004964,1841.35998618212
3143.86259344957,1841.36998618212
3073.13645684762,1841.37998618212
3009.29956013825,1841.38998618212
2934.86734737565,1841.39998618212
2850.92133136281,1841.40998618212
2781.28327021997,1841.41998618212
2714.15402698338,1841.42998618212
2647.83545630449,1841.43998618212
2591.90696430258,1841.44998618212
2537.44051125068,1841.45998618212
2482.17419052379,1841.46998618212
2431.12164116074,1841.47998618212
2371.50965763798,1841.48998618212
2319.89301217836,1841.49998618212
2281.98675653918,1841.50998618212
2245.733485935,1841.51998618212
2225.85419091322,1841.52998618212
2210.75086766327,1841.53998618212
2198.3716369088,1841.54998618212
2197.65529501854,1841.55998618212
2199.57831497872,1841.56998618212
2221.83975231587,1841.57998618212
2261.70799881351,1841.58998618212
2301.33363958729,1841.59998618212
2338.10817898569,1841.60998618212
2382.48361794481,1841.61998618212
2419.12746715681,1841.62998618212
2444.02724116929,1841.63998618212
2442.93369093306,1841.64998618212
2429.64650731996,1841.65998618212
2405.32633859255,1841.66998618212
2389.14890820259,1841.67998618212
2377.40893878922,1841.68998618212
2358.94004372959,1841.69998618212
2330.31843132412,1841.70998618212
2300.0944408292,1841.71998618212
2275.28171029502,1841.72998618212
2250.11328506089,1841.73998618212
2225.34805995312,1841.74998618212
2202.24579340089,1841.75998618212
2191.7053829556,1841.76998618212
2175.41188755462,1841.77998618212
2156.25935976863,1841.78998618212
2126.65264892468,1841.79998618212
2099.56753249756,1841.80998618212
2075.92672486952,1841.81998618212
2057.15226069501,1841.82998618212
2040.89172181783,1841.83998618212
2031.67462679907,1841.84998618212
2015.95341497632,1841.85998618212
1995.28884566477,1841.86998618212
1983.89082561284,1841.87998618212
1968.38583605947,1841.88998618212
1953.76844232425,1841.89998618212
1932.91752126916,1841.90998618212
1920.8659867061,1841.91998618212
1914.31555262307,1841.92998618212
1912.09663410058,1841.93998618212
1921.44667042416,1841.94998618212
1930.61676942785,1841.95998618212
1938.00615717802,1841.96998618212
1948.98634379174,1841.97998618212
1950.68235835496,1841.98998618212
1947.29995952907,1841.99998618212
1942.89191067951,1842.00998618212
1934.46859579102,1842.01998618212
1920.12585492367,1842.02998618212
1926.92033447884,1842.03998618212
1933.66667460938,1842.04998618212
1947.70813817376,1842.05998618212
1956.57963218209,1842.06998618212
1960.21305338949,1842.07998618212
1967.37183518719,1842.08998618212
1975.93991433517,1842.09998618212
1979.47158055069,1842.10998618212
1988.50402548769,1842.11998618212
2003.53341908858,1842.12998618212
2023.05477878213,1842.13998618212
2062.0847588793,1842.14998618212
2124.22320820719,1842.15998618212
2212.10822174539,1842.16998618212
2337.0070400263,1842.17998618212
2477.97714251087,1842.18998618212
2638.22720199826,1842.19998618212
2801.12973210391,1842.20998618212
2950.48976903242,1842.21998618212
3081.0380663836,1842.22998618212
3186.85974751867,1842.23998618212
3267.15256460237,1842.24998618212
3311.10051612271,1842.25998618212
3331.08345926417,1842.26998618212
3328.29153714468,1842.27998618212
3318.84287482805,1842.28998618212
3290.58222622339,1842.29998618212
3253.94497486168,1842.30998618212
3208.30134659647,1842.31998618212
3156.08761917007,1842.32998618212
3091.38276025301,1842.33998618212
3034.77858095756,1842.34998618212
2979.68394117086,1842.35998618212
2917.16788559404,1842.36998618212
2842.34348712103,1842.37998618212
2764.79850111907,1842.38998618212
2684.94993863978,1842.39998618212
2593.50769609255,1842.40998618212
2509.80356767389,1842.41998618212
2429.33106935828,1842.42998618212
2369.62157200709,1842.43998618212
2314.83930045331,1842.44998618212
2265.4188676868,1842.45998618212
2209.15285004965,1842.46998618212
2162.84151917026,1842.47998618212
2118.28495148513,1842.48998618212
2072.78142180529,1842.49998618212
2030.22182191652,1842.50998618212
2001.87663267989,1842.51998618212
1991.8100370228,1842.52998618212
1981.20947207325,1842.53998618212
1979.44108043552,1842.54998618212
1974.89842838862,1842.55998618212
1963.64819229251,1842.56998618212
1949.24840287688,1842.57998618212
1930.97726999358,1842.58998618212
1904.38472891831,1842.59998618212
1876.5158673297,1842.60998618212
1845.69927876269,1842.61998618212
1822.49501330569,1842.62998618212
1805.62558880595,1842.63998618212
1793.59125143472,1842.64998618212
1786.70724983003,1842.65998618212
1776.60277761225,1842.66998618212
1760.86133626029,1842.67998618212
1748.43750160758,1842.68998618212
1748.22658682527,1842.69998618212
1747.4843393363,1842.70998618212
1748.94537237471,1842.71998618212
1736.79484256077,1842.72998618212
1713.45648688453,1842.73998618212
1685.39558608113,1842.74998618212
1660.49787524042,1842.75998618212
1646.08399078033,1842.76998618212
1645.50286272901,1842.77998618212
1650.0713932028,1842.78998618212
1652.40724570538,1842.79998618212
1658.9372376846,1842.80998618212
1657.36804540863,1842.81998618212
1658.64264556312,1842.82998618212
1649.30453927527,1842.83998618212
1633.36697621432,1842.84998618212
1613.45995715718,1842.85998618212
1586.62739281993,1842.86998618212
1559.5819231252,1842.87998618212
1543.17964664712,1842.88998618212
1537.58831218229,1842.89998618212
1543.39215148032,1842.90998618212
1540.74166029748,1842.91998618212
1531.85666146094,1842.92998618212
1522.65170778766,1842.93998618212
1515.7774853948,1842.94998618212
1517.74607716214,1842.95998618212
1522.65216120866,1842.96998618212
1527.81196341438,1842.97998618212
1539.29305133238,1842.98998618212
1542.8768365727,1842.99998618212
1547.54105734519,1843.00998618212
1563.45795703042,1843.01998618212
1580.83256406402,1843.02998618212
1605.22411066998,1843.03998618212
1615.95164396108,1843.04998618212
1628.52344145163,1843.05998618212
1642.62685104597,1843.06998618212
1647.59541333628,1843.07998618212
1659.14231653548,1843.08998618212
1674.87303515409,1843.09998618212
1724.62845639142,1843.10998618212
1795.181302945,1843.11998618212
1889.53933426736,1843.12998618212
2020.28372752382,1843.13998618212
2178.90171479683,1843.14998618212
2350.68566652123,1843.15998618212
2523.71556764566,1843.16998618212
2674.25757579057,1843.17998618212
2793.77393041213,1843.18998618212
2886.34120934373,1843.19998618212
2943.70435959427,1843.20998618212
2985.74668629888,1843.21998618212
3008.17460810032,1843.22998618212
3002.56848552172,1843.23998618212
2988.26758869717,1843.24998618212
2946.72478957672,1843.25998618212
2898.81744361704,1843.26998618212
2857.15769591495,1843.27998618212
2806.2669210404,1843.28998618212
2752.75071530067,1843.29998618212
2696.76783986478,1843.30998618212
2643.31693194759,1843.31998618212
2578.80794766747,1843.32998618212
2513.89004858684,1843.33998618212
2459.97934791503,1843.34998618212
2405.21775225465,1843.35998618212
2346.88974398352,1843.36998618212
2281.21613347186,1843.37998618212
2222.11028043595,1843.38998618212
2163.46125302783,1843.39998618212
2118.47925390796,1843.40998618212
2072.41241778932,1843.41998618212
2030.77722914145,1843.42998618212
1999.15031406063,1843.43998618212
1972.42073571024,1843.44998618212
1953.46437539727,1843.45998618212
1946.50033353878,1843.46998618212
1954.13494703731,1843.47998618212
1962.48220444566,1843.48998618212
1977.04626730674,1843.49998618212
1996.66162509273,1843.50998618212
2020.49887146365,1843.51998618212
2042.36544266684,1843.52998618212
2057.84917405636,1843.53998618212
2080.81975401814,1843.54998618212
2095.84805178802,1843.55998618212
2102.0573303566,1843.56998618212
2090.34227758858,1843.57998618212
2075.71591631912,1843.58998618212
2072.18065631961,1843.59998618212
2078.83460302946,1843.60998618212
2078.2451047634,1843.61998618212
2074.14724425972,1843.62998618212
2055.08535014496,1843.63998618212
2013.83574065088,1843.64998618212
1969.97340947906,1843.65998618212
1934.31255346288,1843.66998618212
1904.90738090317,1843.67998618212
1886.22379408422,1843.68998618212
1876.7909518431,1843.69998618212
1872.18466926793,1843.70998618212
1861.00852286986,1843.71998618212
1854.03892245882,1843.72998618212
1846.08325195239,1843.73998618212
1839.04685757661,1843.74998618212
1831.10294903243,1843.75998618212
1829.70809744746,1843.76998618212
1824.483138024,1843.77998618212
1822.22998309258,1843.78998618212
1825.39969061548,1843.79998618212
1831.01093707334,1843.80998618212
1833.52165546464,1843.81998618212
1836.44635200658,1843.82998618212
1838.48896779012,1843.83998618212
1837.67529571306,1843.84998618212
1838.42078488586,1843.85998618212
1835.80652301073,1843.86998618212
1819.38586402196,1843.87998618212
1789.74936580932,1843.88998618212
1767.63502203046,1843.89998618212
1762.35667746193,1843.90998618212
1764.7856849795,1843.91998618212
1779.11543499548,1843.92998618212
1793.43682544233,1843.93998618212
1805.20147420056,1843.94998618212
1815.92858406584,1843.95998618212
1821.18186693457,1843.96998618212
1852.36701203927,1843.97998618212
1907.22394952287,1843.98998618212
2005.58210735482,1843.99998618212
2129.50205781665,1844.00998618212
2257.38034644654,1844.01998618212
2428.39684297929,1844.02998618212
2602.3112419201,1844.03998618212
2776.86427370529,1844.04998618212
2931.77164049332,1844.05998618212
3062.80704373447,1844.06998618212
3159.59330712881,1844.07998618212
3237.0575525074,1844.08998618212
3291.6163120904,1844.09998618212
3326.10884956036,1844.10998618212
3337.54983131421,1844.11998618212
3321.89162176618,1844.12998618212
3302.05405944891,1844.13998618212
3267.08219297162,1844.14998618212
3229.43398507484,1844.15998618212
3189.16884145027,1844.16998618212
3139.07520407627,1844.17998618212
3073.80582425952,1844.18998618212
3008.50853680905,1844.19998618212
2951.55418394962,1844.20998618212
2905.59628664512,1844.21998618212
2861.02545356065,1844.22998618212
2815.31576513028,1844.23998618212
2765.77727029718,1844.24998618212
2706.51583067983,1844.25998618212
2641.61023983122,1844.26998618212
2575.36040916212,1844.27998618212
2513.71916465492,1844.28998618212
2447.72488025627,1844.29998618212
2390.67442987795,1844.30998618212
2360.18818578584,1844.31998618212
2327.63680639695,1844.32998618212
2288.37934456454,1844.33998618212
2262.52103346944,1844.34998618212
2250.57298761844,1844.35998618212
2251.86095720434,1844.36998618212
2260.86710749931,1844.37998618212
2278.88133804318,1844.38998618212
2300.11573559963,1844.39998618212
2318.58476802184,1844.40998618212
2337.05855594304,1844.41998618212
2350.97107455556,1844.42998618212
2359.23520539821,1844.43998618212
2388.06692358065,1844.44998618212
2424.21488493766,1844.45998618212
2464.28685007652,1844.46998618212
2511.90700609676,1844.47998618212
2565.49429836179,1844.48998618212
2601.90709195946,1844.49998618212
2608.29980515993,1844.50998618212
2600.66876500682,1844.51998618212
2589.92832451417,1844.52998618212
2573.01736686474,1844.53998618212
2567.72777306955,1844.54998618212
2554.3237139312,1844.55998618212
2531.08374789156,1844.56998618212
2496.78206324724,1844.57998618212
2456.43213051041,1844.58998618212
2404.18216832052,1844.59998618212
2360.39033357687,1844.60998618212
2318.02468897877,1844.61998618212
2275.97103643564,1844.62998618212
2228.56068443782,1844.63998618212
2175.20194338253,1844.64998618212
2125.1919291615,1844.65998618212
2089.11630943935,1844.66998618212
2061.75216434492,1844.67998618212
2033.92859467303,1844.68998618212
2010.9780489546,1844.69998618212
1988.11842298429,1844.70998618212
1960.90376034075,1844.71998618212
1931.29265651505,1844.72998618212
1906.70862865069,1844.73998618212
1898.04054614728,1844.74998618212
1902.79054863525,1844.75998618212
1914.27279006944,1844.76998618212
1912.13526266374,1844.77998618212
1906.99518272776,1844.78998618212
1896.47644141423,1844.79998618212
1884.47078833759,1844.80998618212
1871.29813771795,1844.81998618212
1861.24521299749,1844.82998618212
1858.78566238626,1844.83998618212
1868.48551499158,1844.84998618212
1891.25933835197,1844.85998618212
1946.04937009448,1844.86998618212
2029.01923375988,1844.87998618212
2138.38668322368,1844.88998618212
2279.31172317965,1844.89998618212
2438.30112446446,1844.90998618212
2610.90106878036,1844.91998618212
2769.34602897625,1844.92998618212
2909.35640367483,1844.93998618212
3028.75498886679,1844.94998618212
3117.49649424501,1844.95998618212
3180.81229640742,1844.96998618212
3226.30649161887,1844.97998618212
3248.47079152729,1844.98998618212
3265.09164221507,1844.99998618212
3271.86655054695,1845.00998618212
3259.53028315645,1845.01998618212
3226.71623662278,1845.02998618212
3192.26344697321,1845.03998618212
3139.41580327197,1845.04998618212
3087.12637719264,1845.05998618212
3023.05746608618,1845.06998618212
2967.80766862443,1845.07998618212
2896.55422354479,1845.08998618212
2811.10908076789,1845.09998618212
2721.44153185019,1845.10998618212
2624.56540953022,1845.11998618212
2536.3780334843,1845.12998618212
2451.19585785578,1845.13998618212
2374.89414515256,1845.14998618212
2305.60227673065,1845.15998618212
2243.07818674931,1845.16998618212
2184.46936340545,1845.17998618212
2121.33322333599,1845.18998618212
2049.42227917617,1845.19998618212
1990.68547420589,1845.20998618212
1947.38943958437,1845.21998618212
1924.66823627599,1845.22998618212
1921.31946635951,1845.23998618212
1938.92823058966,1845.24998618212
1967.30998045079,1845.25998618212
2005.04512121963,1845.26998618212
2033.74445049248,1845.27998618212
2055.01667145903,1845.28998618212
2073.96176357713,1845.29998618212
2097.55293397609,1845.30998618212
2111.10968706613,1845.31998618212
2123.9682923732,1845.32998618212
2137.76678370032,1845.33998618212
2137.7863622897,1845.34998618212
2138.57122406301,1845.35998618212
2129.48761873301,1845.36998618212
2113.4118963603,1845.37998618212
2099.31101195449,1845.38998618212
2089.27277209182,1845.39998618212
2085.38052282887,1845.40998618212
2075.31559040842,1845.41998618212
2049.7712159236,1845.42998618212
2031.78270338901,1845.43998618212
2013.81464325676,1845.44998618212
1997.79146016298,1845.45998618212
1975.62893463685,1845.46998618212
1963.54312277912,1845.47998618212
1965.97989153106,1845.48998618212
1956.65125275487,1845.49998618212
1940.91576659108,1845.50998618212
1926.69112625523,1845.51998618212
1910.46136940724,1845.52998618212
1904.77719635411,1845.53998618212
1899.03302958815,1845.54998618212
1898.28858145646,1845.55998618212
1888.98162592933,1845.56998618212
1875.91523534897,1845.57998618212
1866.920964037,1845.58998618212
1851.01993226724,1845.59998618212
1836.06610227231,1845.60998618212
1829.07143470454,1845.61998618212
1824.95294211537,1845.62998618212
1813.95847315913,1845.63998618212
1804.52957863148,1845.64998618212
1794.01098241033,1845.65998618212
1786.03990693281,1845.66998618212
1779.29553602587,1845.67998618212
1777.06736281382,1845.68998618212
1786.47649467358,1845.69998618212
1795.55806487989,1845.70998618212
1809.09322896884,1845.71998618212
1815.67610459336,1845.72998618212
1814.47368253515,1845.73998618212
1821.22707207433,1845.74998618212
1823.67042835186,1845.75998618212
1819.39381992402,1845.76998618212
1816.39461875458,1845.77998618212
1839.39846939554,1845.78998618212
1888.78451732118,1845.79998618212
1969.75280988394,1845.80998618212
2074.1134017484,1845.81998618212
2205.27305993013,1845.82998618212
2366.71288625878,1845.83998618212
2529.7849692546,1845.84998618212
2697.60455775287,1845.85998618212
2858.04600058575,1845.86998618212
2997.57580480517,1845.87998618212
3109.92915546064,1845.88998618212
3195.45699104959,1845.89998618212
3243.53762193892,1845.90998618212
3265.55738250252,1845.91998618212
3271.46298304163,1845.92998618212
3262.08778554726,1845.93998618212
3238.94172833698,1845.94998618212
3190.08363904748,1845.95998618212
3124.02404874226,1845.96998618212
3050.93721538202,1845.97998618212
2969.25010293936,1845.98998618212
2898.08264893772,1845.99998618212
2837.09217562216,1846.00998618212
2780.82181898062,1846.01998618212
2714.48637720008,1846.02998618212
2640.26149056543,1846.03998618212
2571.31560178604,1846.04998618212
2504.07188358032,1846.05998618212
2432.59359899808,1846.06998618212
2371.97563060896,1846.07998618212
2317.50539898071,1846.08998618212
2271.68964296568,1846.09998618212
2226.42056097321,1846.10998618212
2176.47668613421,1846.11998618212
2114.3665202183,1846.12998618212
2047.92945422449,1846.13998618212
1997.46913462331,1846.14998618212
1955.47647533582,1846.15998618212
1918.46684209322,1846.16998618212
1892.48168841287,1846.17998618212
1879.98230763481,1846.18998618212
1866.13161925864,1846.19998618212
1858.83162881209,1846.20998618212
1860.76858096202,1846.21998618212
1858.82503547195,1846.22998618212
1863.35427113462,1846.23998618212
1867.73502810747,1846.24998618212
1870.72079824571,1846.25998618212
1873.5110633051,1846.26998618212
1865.09847830644,1846.27998618212
1857.17410454936,1846.28998618212
1846.6700443652,1846.29998618212
1824.49495736219,1846.30998618212
1805.32433294897,1846.31998618212
1785.73457760409,1846.32998618212
1754.12763923632,1846.33998618212
1713.15466531073,1846.34998618212
1670.46745494751,1846.35998618212
1633.50522654148,1846.36998618212
1595.710221356,1846.37998618212
1558.42974226322,1846.38998618212
1520.48176654747,1846.39998618212
1485.5206393896,1846.40998618212
1469.53931271055,1846.41998618212
1469.00757016292,1846.42998618212
1486.68573543081,1846.43998618212
1501.86836715544,1846.44998618212
1514.45918537119,1846.45998618212
1509.10602556818,1846.46998618212
1495.75980574121,1846.47998618212
1483.56915716557,1846.48998618212
1470.65091214517,1846.49998618212
1476.34586636983,1846.50998618212
1480.06138913434,1846.51998618212
1496.25456131946,1846.52998618212
1518.26083204429,1846.53998618212
1522.68264185373,1846.54998618212
1529.47279906053,1846.55998618212
1527.33973606074,1846.56998618212
1524.63703241171,1846.57998618212
1531.07704249098,1846.58998618212
1535.58380717893,1846.59998618212
1553.10249169827,1846.60998618212
1575.15345603462,1846.61998618212
1594.27435952587,1846.62998618212
1620.81348067773,1846.63998618212
1636.63102691386,1846.64998618212
1651.96392870685,1846.65998618212
1664.17642608169,1846.66998618212
1664.86035454571,1846.67998618212
1664.58332156767,1846.68998618212
1664.76372705287,1846.69998618212
1666.15760909962,1846.70998618212
1697.8887600792,1846.71998618212
1754.84924002867,1846.72998618212
1852.20759133367,1846.73998618212
1977.40912492144,1846.74998618212
2126.32991338717,1846.75998618212
2306.828206715,1846.76998618212
2483.0436894871,1846.77998618212
2644.34383077017,1846.78998618212
2775.98191321181,1846.79998618212
2874.91429846839,1846.80998618212
2955.12115329732,1846.81998618212
2997.77831152588,1846.82998618212
3023.94238478936,1846.83998618212
3031.93060259058,1846.84998618212
3027.60086713844,1846.85998618212
3015.40955642196,1846.86998618212
2988.53482717829,1846.87998618212
2947.62667728758,1846.88998618212
2899.43405032658,1846.89998618212
2837.54461034796,1846.90998618212
2768.50458958372,1846.91998618212
2692.69921553822,1846.92998618212
2623.79306474764,1846.93998618212
2552.98488108952,1846.94998618212
2485.26145240949,1846.95998618212
2429.94468616075,1846.96998618212
2368.30368777129,1846.97998618212
2319.89684419017,1846.98998618212
2282.40382752936,1846.99998618212
2238.05399383556,1847.00998618212
2193.40212472739,1847.01998618212
2139.83092191567,1847.02998618212
2082.53264665987,1847.03998618212
2018.38847197196,1847.04998618212
1967.31393699135,1847.05998618212
1937.22289592709,1847.06998618212
1926.93206979984,1847.07998618212
1928.38979101248,1847.08998618212
1932.84636185104,1847.09998618212
1950.13689831171,1847.10998618212
1978.89794806157,1847.11998618212
2006.10458701776,1847.12998618212
2034.20362720327,1847.13998618212
2062.53072540558,1847.14998618212
2090.21404794466,1847.15998618212
2113.55076783572,1847.16998618212
2113.47966124054,1847.17998618212
2104.8879044442,1847.18998618212
2092.08413709491,1847.19998618212
2067.59726519428,1847.20998618212
2036.84949636914,1847.21998618212
2019.2200184996,1847.22998618212
2001.18113794049,1847.23998618212
1992.15465383276,1847.24998618212
1980.90778345269,1847.25998618212
1968.19523363333,1847.26998618212
1955.61957743017,1847.27998618212
1944.15691498787,1847.28998618212
1933.96927352286,1847.29998618212
1920.63102610803,1847.30998618212
1912.61930001527,1847.31998618212
1898.83733725748,1847.32998618212
1881.88436600734,1847.33998618212
1863.52916107566,1847.34998618212
1837.69748831019,1847.35998618212
1818.59258905278,1847.36998618212
1804.39867400952,1847.37998618212
1791.84773839428,1847.38998618212
1782.9098924321,1847.39998618212
1790.60578133999,1847.40998618212
1800.9736762654,1847.41998618212
1799.3420716392,1847.42998618212
1806.96512539068,1847.43998618212
1807.97619693048,1847.44998618212
1813.75320440267,1847.45998618212
1815.10666098441,1847.46998618212
1815.01873128827,1847.47998618212
1812.95685972715,1847.48998618212
1804.59037113858,1847.49998618212
1798.93921766656,1847.50998618212
1802.45931727926,1847.51998618212
1814.00823264319,1847.52998618212
1828.14803459793,1847.53998618212
1865.83704253126,1847.54998618212
1933.49176445616,1847.55998618212
2028.47968461803,1847.56998618212
2154.72219996257,1847.57998618212
2302.34733531725,1847.58998618212
2459.02734475372,1847.59998618212
2610.10232699924,1847.60998618212
2762.18269760046,1847.61998618212
2921.91372453156,1847.62998618212
3059.84688264207,1847.63998618212
3164.70416448785,1847.64998618212
3225.25813043056,1847.65998618212
3242.38144693239,1847.66998618212
3235.66560384167,1847.67998618212
3202.18828627616,1847.68998618212
3156.12246024487,1847.69998618212
3103.41751393425,1847.70998618212
3037.30500165917,1847.71998618212
2968.66938744882,1847.72998618212
2910.58253627619,1847.73998618212
2852.09053759708,1847.74998618212
2806.07391735215,1847.75998618212
2777.75595205287,1847.76998618212
2753.41224754687,1847.77998618212
2718.6926103532,1847.78998618212
2675.40788515422,1847.79998618212
2644.57331695561,1847.80998618212
2623.27262005111,1847.81998618212
2601.19558538315,1847.82998618212
2561.26987397408,1847.83998618212
2513.2956238746,1847.84998618212
2465.97421691961,1847.85998618212
2411.93975487711,1847.86998618212
2371.37953309209,1847.87998618212
2336.20171028396,1847.88998618212
2315.67455993451,1847.89998618212
2301.15989415802,1847.90998618212
2286.2314126534,1847.91998618212
2277.97774797058,1847.92998618212
2292.13369158524,1847.93998618212
2317.56143512035,1847.94998618212
2351.4407968574,1847.95998618212
2387.67171084147,1847.96998618212
2398.72086512231,1847.97998618212
2400.66950588645,1847.98998618212
2399.532486181,1847.99998618212
2400.7817472726,1848.00998618212
2397.65464012149,1848.01998618212
2390.71498850628,1848.02998618212
2367.82212854719,1848.03998618212
2338.59025085685,1848.04998618212
2324.78570607368,1848.05998618212
2305.62776104327,1848.06998618212
2286.1487338408,1848.07998618212
2271.01751030044,1848.08998618212
2262.86585231727,1848.09998618212
2246.45248106211,1848.10998618212
2225.47688014106,1848.11998618212
2211.67506303635,1848.12998618212
2196.07638578059,1848.13998618212
2181.21408140623,1848.14998618212
2160.32800963691,1848.15998618212
2128.84235549137,1848.16998618212
2084.34679813597,1848.17998618212
2050.97425708508,1848.18998618212
2019.13001085893,1848.19998618212
1991.57941948134,1848.20998618212
1976.41604829933,1848.21998618212
1966.3225203436,1848.22998618212
1964.6012698139,1848.23998618212
1959.49662494022,1848.24998618212
1949.33894360452,1848.25998618212
1926.87413563827,1848.26998618212
1907.2742168564,1848.27998618212
1889.86157675758,1848.28998618212
1869.82270339491,1848.29998618212
1859.05125022136,1848.30998618212
1844.94575037276,1848.31998618212
1847.29850584542,1848.32998618212
1855.6782257037,1848.33998618212
1866.68057466909,1848.34998618212
1879.86877884614,1848.35998618212
1891.37013244109,1848.36998618212
1906.30944085558,1848.37998618212
1923.02498735903,1848.38998618212
1954.80620122818,1848.39998618212
2008.82143320853,1848.40998618212
2097.78308352536,1848.41998618212
2210.95302957523,1848.42998618212
2336.94790027736,1848.43998618212
2483.11732198523,1848.44998618212
2626.18998602601,1848.45998618212
2775.19201217332,1848.46998618212
2917.47538919348,1848.47998618212
3042.9525770443,1848.48998618212
3146.64089620878,1848.49998618212
3227.61444309648,1848.50998618212
3278.68344285905,1848.51998618212
3295.76143934616,1848.52998618212
3294.15105829889,1848.53998618212
3282.51771326078,1848.54998618212
3258.67856853859,1848.55998618212
3235.05405649656,1848.56998618212
3196.76712873771,1848.57998618212
3160.77917578806,1848.58998618212
3107.25328714485,1848.59998618212
3043.33817835916,1848.60998618212
2980.62075329098,1848.61998618212
2919.0062410119,1848.62998618212
2858.49294257594,1848.63998618212
2808.27240439267,1848.64998618212
2754.3612603585,1848.65998618212
2689.02912625487,1848.66998618212
2609.33692912821,1848.67998618212
2535.02044767128,1848.68998618212
2477.96610177986,1848.69998618212
2416.0655912143,1848.70998618212
2365.00085637722,1848.71998618212
2321.26255164372,1848.72998618212
2274.41153718373,1848.73998618212
2235.79620892979,1848.74998618212
2203.3012765706,1848.75998618212
2173.64052917564,1848.76998618212
2152.90982957467,1848.77998618212
2129.17604380213,1848.78998618212
2121.59798781774,1848.79998618212
2125.88973155205,1848.80998618212
2129.92309738741,1848.81998618212
2137.01387572745,1848.82998618212
2135.77588722863,1848.83998618212
2127.52852778955,1848.84998618212
2119.87824517337,1848.85998618212
2114.89114761636,1848.86998618212
2114.66326977521,1848.87998618212
2116.26082161756,1848.88998618212
2109.49085248027,1848.89998618212
2086.51521664337,1848.90998618212
2049.77224476858,1848.91998618212
1998.03255068098,1848.92998618212
1949.20471143494,1848.93998618212
1916.55719005126,1848.94998618212
1893.04253039682,1848.95998618212
1875.25414983816,1848.96998618212
1869.37521971157,1848.97998618212
1867.30480941878,1848.98998618212
1868.42374999035,1848.99998618212
1872.90568465609,1849.00998618212
1890.13198142224,1849.01998618212
1907.10486413686,1849.02998618212
1927.75896817506,1849.03998618212
1944.8295215786,1849.04998618212
1950.94822225439,1849.05998618212
1947.4126415177,1849.06998618212
1942.6139656974,1849.07998618212
1943.25163312879,1849.08998618212
1948.54581096572,1849.09998618212
1950.62699372522,1849.10998618212
1943.92966454616,1849.11998618212
1942.99295981186,1849.12998618212
1936.41237553445,1849.13998618212
1929.24897630834,1849.14998618212
1925.55108481833,1849.15998618212
1917.11164154645,1849.16998618212
1912.53562162409,1849.17998618212
1913.47617572396,1849.18998618212
1904.3292694349,1849.19998618212
1888.34635921942,1849.20998618212
1874.04787883617,1849.21998618212
1864.40349555522,1849.22998618212
1858.0905918982,1849.23998618212
1848.88089593977,1849.24998618212
1847.21138283676,1849.25998618212
1860.76359708819,1849.26998618212
1885.71237825177,1849.27998618212
1906.86592776787,1849.28998618212
1929.4838950291,1849.29998618212
1964.5531421203,1849.30998618212
2025.30735277716,1849.31998618212
2109.21076876616,1849.32998618212
2214.28731584444,1849.33998618212
2346.55779511178,1849.34998618212
2486.83680379012,1849.35998618212
2624.66137201488,1849.36998618212
2752.40437235141,1849.37998618212
2873.13430424763,1849.38998618212
2970.89609906909,1849.39998618212
3049.24113118361,1849.40998618212
3116.57629780848,1849.41998618212
3152.90019220642,1849.42998618212
3156.53578398135,1849.43998618212
3141.33885390688,1849.44998618212
3114.95689473532,1849.45998618212
3086.87553567579,1849.46998618212
3064.15380756656,1849.47998618212
3028.88992231809,1849.48998618212
2995.18777189469,1849.49998618212
2956.35353989551,1849.50998618212
2924.66120240825,1849.51998618212
2898.81374658299,1849.52998618212
2852.47140845221,1849.53998618212
2803.28878208576,1849.54998618212
2750.53443771749,1849.55998618212
2698.93884218929,1849.56998618212
2655.45828029147,1849.57998618212
2608.88035955576,1849.58998618212
2561.49670685432,1849.59998618212
2511.28601046838,1849.60998618212
2444.19876475904,1849.61998618212
2376.28312980236,1849.62998618212
2309.60430329884,1849.63998618212
2240.37963725236,1849.64998618212
2179.07480702683,1849.65998618212
2125.97372515654,1849.66998618212
2085.06152603224,1849.67998618212
2061.67058231716,1849.68998618212
2036.34091672523,1849.69998618212
2033.28580170784,1849.70998618212
2024.37948240124,1849.71998618212
2014.36465550165,1849.72998618212
2008.07723671663,1849.73998618212
1987.51442353503,1849.74998618212
1977.06015292268,1849.75998618212
1964.13458571907,1849.76998618212
1948.88833836752,1849.77998618212
1931.6054787671,1849.78998618212
1908.44374039718,1849.79998618212
1886.25046059932,1849.80998618212
1857.25282638907,1849.81998618212
1838.67624554817,1849.82998618212
1815.78366083889,1849.83998618212
1795.32961667648,1849.84998618212
1770.42174184314,1849.85998618212
1748.97184078558,1849.86998618212
1720.03049490433,1849.87998618212
1699.45701535092,1849.88998618212
1669.48684852371,1849.89998618212
1642.38244592694,1849.90998618212
1611.90561439984,1849.91998618212
1572.60646441107,1849.92998618212
1542.1369270481,1849.93998618212
1511.46641777124,1849.94998618212
1490.7557818737,1849.95998618212
1480.25536612298,1849.96998618212
1465.71885783729,1849.97998618212
1465.72440806436,1849.98998618212
1469.81626979082,1849.99998618212
1472.56441430765,1850.00998618212
1478.71288030283,1850.01998618212
1477.76469541321,1850.02998618212
1476.30265105867,1850.03998618212
1466.27911202176,1850.04998618212
1457.44924671976,1850.05998618212
1437.51975363962,1850.06998618212
1415.16341402393,1850.07998618212
1395.78429434197,1850.08998618212
1377.55951896961,1850.09998618212
1366.65167831859,1850.10998618212
1356.51642944333,1850.11998618212
1341.09657796126,1850.12998618212
1320.09901869209,1850.13998618212
1302.9909046237,1850.14998618212
1285.44317874878,1850.15998618212
1280.0639125924,1850.16998618212
1272.15907044474,1850.17998618212
1265.45052253869,1850.18998618212
1256.22826138438,1850.19998618212
1254.90319425487,1850.20998618212
1260.16018235218,1850.21998618212
1259.40834199544,1850.22998618212
1267.28239918084,1850.23998618212
1308.18121075687,1850.24998618212
1383.45278794311,1850.25998618212
1492.25939196517,1850.26998618212
1619.20595607568,1850.27998618212
1761.84541600903,1850.28998618212
1918.82891010152,1850.29998618212
2078.49590725006,1850.30998618212
2250.84851247389,1850.31998618212
2429.03382776137,1850.32998618212
2598.76247273916,1850.33998618212
2743.32991898037,1850.34998618212
2858.13085669458,1850.35998618212
2940.66883337576,1850.36998618212
2986.56767581924,1850.37998618212
3000.11266791959,1850.38998618212
2998.98864144342,1850.39998618212
2976.04561695651,1850.40998618212
2927.0279303048,1850.41998618212
2874.77076645126,1850.42998618212
2820.53944306955,1850.43998618212
2768.75966722682,1850.44998618212
2713.54039102503,1850.45998618212
2652.62820434638,1850.46998618212
2589.00013183272,1850.47998618212
2528.98602466233,1850.48998618212
2469.15865303867,1850.49998618212
2408.6988874188,1850.50998618212
2349.44422253845,1850.51998618212
2287.96597112035,1850.52998618212
2226.59839655644,1850.53998618212
2172.20277591872,1850.54998618212
2121.50920498065,1850.55998618212
2060.4234817553,1850.56998618212
2010.32415220748,1850.57998618212
1966.20970813639,1850.58998618212
1923.05566025249,1850.59998618212
1897.17868501695,1850.60998618212
1888.80584472522,1850.61998618212
1890.09239816995,1850.62998618212
1897.96858002289,1850.63998618212
1910.23746842621,1850.64998618212
1931.97863124307,1850.65998618212
1952.25677515218,1850.66998618212
1966.66754145702,1850.67998618212
1974.34197168251,1850.68998618212
1970.12075764111,1850.69998618212
1962.66414631749,1850.70998618212
1949.02018295673,1850.71998618212
1933.67416575562,1850.72998618212
1919.06428750943,1850.73998618212
1907.94421122402,1850.74998618212
1881.96439774795,1850.75998618212
1868.43266015188,1850.76998618212
1861.4961315955,1850.77998618212
1859.46776661353,1850.78998618212
1860.28988637911,1850.79998618212
1859.68661553294,1850.80998618212
1860.16401147877,1850.81998618212
1847.83397678741,1850.82998618212
1842.39402645017,1850.83998618212
1835.20492627042,1850.84998618212
1828.97588644126,1850.85998618212
1833.01234957211,1850.86998618212
1844.10832940607,1850.87998618212
1847.08212997322,1850.88998618212
1856.77623009666,1850.89998618212
1855.77553905043,1850.90998618212
1835.05971521769,1850.91998618212
1816.4170046168,1850.92998618212
1788.82782301967,1850.93998618212
1765.33237776688,1850.94998618212
1747.41113144357,1850.95998618212
1733.49798384696,1850.96998618212
1732.15202252027,1850.97998618212
1737.87245890618,1850.98998618212
1751.00333391394,1850.99998618212
1763.96382479616,1851.00998618212
1770.86355794801,1851.01998618212
1769.55287652042,1851.02998618212
1764.40436849981,1851.03998618212
1762.47235665117,1851.04998618212
1762.96313120629,1851.05998618212
1762.98628594778,1851.06998618212
1760.58170977874,1851.07998618212
1751.46600357805,1851.08998618212
1749.04388935984,1851.09998618212
1766.42110675029,1851.10998618212
1800.57500618864,1851.11998618212
1845.33064154035,1851.12998618212
1929.94712162982,1851.13998618212
2045.98256185885,1851.14998618212
2195.55972276574,1851.15998618212
2349.12233235801,1851.16998618212
2502.22135361327,1851.17998618212
2659.86899746251,1851.18998618212
2806.38358336169,1851.19998618212
2926.48847597396,1851.20998618212
3018.44451171146,1851.21998618212
3078.94413391644,1851.22998618212
3120.17520044024,1851.23998618212
3151.75163749167,1851.24998618212
3159.59993932311,1851.25998618212
3143.7920866887,1851.26998618212
3117.65772244767,1851.27998618212
3085.70865509019,1851.28998618212
3038.64448674024,1851.29998618212
2979.55208972233,1851.30998618212
2917.06646887972,1851.31998618212
2837.29883108998,1851.32998618212
2764.78089345195,1851.33998618212
2698.70500431833,1851.34998618212
2641.36494070896,1851.35998618212
2596.92485363208,1851.36998618212
2551.23864237745,1851.37998618212
2499.90859911482,1851.38998618212
2449.98257953502,1851.39998618212
2390.69676906119,1851.40998618212
2340.08706980167,1851.41998618212
2292.03987472526,1851.42998618212
2256.63834618297,1851.43998618212
2215.63792571511,1851.44998618212
2172.10650489426,1851.45998618212
2144.0092357092,1851.46998618212
2124.56393490931,1851.47998618212
2122.73625277063,1851.48998618212
2122.30120320304,1851.49998618212
2127.13349037842,1851.50998618212
2149.47922771884,1851.51998618212
2177.16228857312,1851.52998618212
2216.76671314492,1851.53998618212
2262.7268526155,1851.54998618212
2310.81987095618,1851.55998618212
2343.9194673358,1851.56998618212
2357.27898250925,1851.57998618212
2342.35509269527,1851.58998618212
2310.03772877127,1851.59998618212
2279.42552356688,1851.60998618212
2258.20141443327,1851.61998618212
2238.73963391448,1851.62998618212
2222.74543585633,1851.63998618212
2201.21286555856,1851.64998618212
2178.71434481351,1851.65998618212
2150.33852984658,1851.66998618212
2125.36513260773,1851.67998618212
2105.5091723675,1851.68998618212
2087.49624753419,1851.69998618212
2076.37744026542,1851.70998618212
2061.35084059047,1851.71998618212
2045.43086666826,1851.72998618212
2036.25984902102,1851.73998618212
2033.41354022466,1851.74998618212
2024.22182020907,1851.75998618212
2014.81708890517,1851.76998618212
2001.48323480306,1851.77998618212
1987.83203853403,1851.78998618212
1978.32085390685,1851.79998618212
1967.42566621761,1851.80998618212
1964.32409687365,1851.81998618212
1971.84597481261,1851.82998618212
1973.20377262574,1851.83998618212
1972.84958563402,1851.84998618212
1966.68448839313,1851.85998618212
1958.64633424564,1851.86998618212
1963.79131364595,1851.87998618212
1965.24282876559,1851.88998618212
1971.41468209363,1851.89998618212
1973.57355820183,1851.90998618212
1964.73311079689,1851.91998618212
1945.88702863662,1851.92998618212
1931.32654982295,1851.93998618212
1915.99854940816,1851.94998618212
1905.02464478441,1851.95998618212
1907.71736933057,1851.96998618212
1913.53335672834,1851.97998618212
1912.3705474177,1851.98998618212
1914.79087650989,1851.99998618212
1923.05899043419,1852.00998618212
1927.93699007366,1852.01998618212
1929.19896785584,1852.02998618212
1946.14184247656,1852.03998618212
1969.30153562453,1852.04998618212
1997.73194877095,1852.05998618212
2059.83638624894,1852.06998618212
2141.76538311789,1852.07998618212
2246.306389322,1852.08998618212
2378.15586087457,1852.09998618212
2533.38820514461,1852.10998618212
2699.93311787623,1852.11998618212
2866.06796748484,1852.12998618212
3016.74376394509,1852.13998618212
3146.03624301017,1852.14998618212
3232.31259510559,1852.15998618212
3295.32747866987,1852.16998618212
3335.4787475189,1852.17998618212
3352.85667245885,1852.18998618212
3345.55942163384,1852.19998618212
3332.52668459585,1852.20998618212
3314.21551936007,1852.21998618212
3285.30315700963,1852.22998618212
3241.23240823301,1852.23998618212
3188.25272422128,1852.24998618212
3131.01167532875,1852.25998618212
3087.07214769929,1852.26998618212
3036.9207046081,1852.27998618212
2991.47057272141,1852.28998618212
2936.37589987596,1852.29998618212
2874.08661731435,1852.30998618212
2809.34285736605,1852.31998618212
2731.9676516815,1852.32998618212
2664.17179151068,1852.33998618212
2598.43059414573,1852.34998618212
2539.91895198173,1852.35998618212
2484.03178392987,1852.36998618212
2423.78917973983,1852.37998618212
2359.63685835383,1852.38998618212
2308.82221534644,1852.39998618212
2268.56913120986,1852.40998618212
2228.46893326917,1852.41998618212
2194.6346205821,1852.42998618212
2172.2662474426,1852.43998618212
2167.89815052005,1852.44998618212
2167.28888617994,1852.45998618212
2176.31127825866,1852.46998618212
2197.54228398363,1852.47998618212
2222.9388701186,1852.48998618212
2245.00200517379,1852.49998618212
2252.93429208125,1852.50998618212
2264.43178478597,1852.51998618212
2271.5696632627,1852.52998618212
2273.76893196435,1852.53998618212
2272.50223759816,1852.54998618212
2267.80392456866,1852.55998618212
2259.55079327887,1852.56998618212
2241.93540858879,1852.57998618212
2221.93482446818,1852.58998618212
2184.63464881933,1852.59998618212
2139.35982080627,1852.60998618212
2082.91483499176,1852.61998618212
2023.09617952181,1852.62998618212
1958.03820963084,1852.63998618212
1909.73772858199,1852.64998618212
1876.09842122344,1852.65998618212
1855.86211438964,1852.66998618212
1828.65468867976,1852.67998618212
1810.83311662206,1852.68998618212
1790.45573804515,1852.69998618212
1765.58543371188,1852.70998618212
1743.0608354382,1852.71998618212
1725.38608970757,1852.72998618212
1724.46542479237,1852.73998618212
1727.64767119625,1852.74998618212
1739.02937398856,1852.75998618212
1748.49410963528,1852.76998618212
1764.66567687265,1852.77998618212
1784.61949044779,1852.78998618212
1804.6919690414,1852.79998618212
1824.72260154437,1852.80998618212
1838.89660170239,1852.81998618212
1848.7277530608,1852.82998618212
1853.019592713,1852.83998618212
1847.23144801548,1852.84998618212
1834.48138074226,1852.85998618212
1810.84830622828,1852.86998618212
1788.367214319,1852.87998618212
1758.1084178672,1852.88998618212
1746.72005227037,1852.89998618212
1730.42032168927,1852.90998618212
1724.63652893644,1852.91998618212
1724.7916474014,1852.92998618212
1731.74834037623,1852.93998618212
1732.68412864477,1852.94998618212
1741.05457201254,1852.95998618212
1756.57179944716,1852.96998618212
1780.24238300205,1852.97998618212
1815.11368009702,1852.98998618212
1843.46806249124,1852.99998618212
1859.14410401553,1853.00998618212
1870.17612420785,1853.01998618212
1883.77038152252,1853.02998618212
1900.67552517745,1853.03998618212
1939.24250655802,1853.04998618212
1989.89487670985,1853.05998618212
2049.76556847747,1853.06998618212
2144.87684730963,1853.07998618212
2254.92012073752,1853.08998618212
2394.94492335391,1853.09998618212
2539.19734744822,1853.10998618212
2687.61789198669,1853.11998618212
2836.10089457547,1853.12998618212
2963.94707559448,1853.13998618212
3064.5136759649,1853.14998618212
3140.66594786144,1853.15998618212
3194.83323538238,1853.16998618212
3223.9547998356,1853.17998618212
3226.41059267434,1853.18998618212
3215.18200586289,1853.19998618212
3185.54081056096,1853.20998618212
3146.98226068418,1853.21998618212
3094.75133197199,1853.22998618212
3034.61811812632,1853.23998618212
2968.68765498965,1853.24998618212
2898.45036075093,1853.25998618212
2828.28934756277,1853.26998618212
2752.52771212648,1853.27998618212
2677.89851233638,1853.28998618212
2604.03042505374,1853.29998618212
2540.98960461142,1853.30998618212
2483.55435272676,1853.31998618212
2432.77092263936,1853.32998618212
2388.14039045608,1853.33998618212
2343.68042999918,1853.34998618212
2289.22007465553,1853.35998618212
2237.27707822814,1853.36998618212
2185.6846039889,1853.37998618212
2120.64248630908,1853.38998618212
2057.01351698627,1853.39998618212
1996.42372293679,1853.40998618212
1951.15009772185,1853.41998618212
1908.92144430197,1853.42998618212
1868.08792298262,1853.43998618212
1842.66361458541,1853.44998618212
1837.16213382679,1853.45998618212
1840.08912397028,1853.46998618212
1854.10667009294,1853.47998618212
1873.16095678667,1853.48998618212
1874.98054275928,1853.49998618212
1877.12480410116,1853.50998618212
1886.19758435535,1853.51998618212
1890.08702251638,1853.52998618212
1878.17577987952,1853.53998618212
1859.94935604286,1853.54998618212
1843.56225336953,1853.55998618212
1823.12029411662,1853.56998618212
1797.61454320086,1853.57998618212
1770.98845197778,1853.58998618212
1742.80365970059,1853.59998618212
1723.80575058735,1853.60998618212
1708.56983682778,1853.61998618212
1700.31072849308,1853.62998618212
1686.12798225688,1853.63998618212
1671.8661093894,1853.64998618212
1653.48302112691,1853.65998618212
1633.61091199563,1853.66998618212
1612.48257925487,1853.67998618212
1602.28483362483,1853.68998618212
1581.20147213303,1853.69998618212
1549.39326615666,1853.70998618212
1520.14692240032,1853.71998618212
1497.31083059612,1853.72998618212
1492.9233568064,1853.73998618212
1498.30340883053,1853.74998618212
1501.02590000481,1853.75998618212
1496.96077773619,1853.76998618212
1493.25053095089,1853.77998618212
1490.22932585805,1853.78998618212
1484.61685341359,1853.79998618212
1490.92886871631,1853.80998618212
1499.71601843632,1853.81998618212
1528.37116800906,1853.82998618212
1544.72527922156,1853.83998618212
1543.0851537421,1853.84998618212
1522.99924081331,1853.85998618212
1497.56615295841,1853.86998618212
1464.94507376839,1853.87998618212
1432.6387160381,1853.88998618212
1407.49971459641,1853.89998618212
1404.24567239536,1853.90998618212
1415.01604905469,1853.91998618212
1430.2856236307,1853.92998618212
1449.59174044684,1853.93998618212
1461.77710133212,1853.94998618212
1468.54738359285,1853.95998618212
1470.03160239388,1853.96998618212
1475.62134762117,1853.97998618212
1486.12127648833,1853.98998618212
1509.23801294461,1853.99998618212
1558.87205551473,1854.00998618212
1653.31251018094,1854.01998618212
1781.61770805701,1854.02998618212
1943.34977323241,1854.03998618212
2117.29378768199,1854.04998618212
2304.92521584172,1854.05998618212
2478.54000216476,1854.06998618212
2631.28080054614,1854.07998618212
2758.5605057232,1854.08998618212
2861.02068468816,1854.09998618212
2939.46373375789,1854.10998618212
2995.56724092035,1854.11998618212
3030.0944348004,1854.12998618212
3042.49798338192,1854.13998618212
3029.4861009336,1854.14998618212
2988.42471172518,1854.15998618212
2949.94237551621,1854.16998618212
2900.17514356338,1854.17998618212
2847.05728185979,1854.18998618212
2798.33218621574,1854.19998618212
2735.46937375716,1854.20998618212
2679.89540308709,1854.21998618212
2610.522038391,1854.22998618212
2537.17575557291,1854.23998618212
2477.40490887629,1854.24998618212
2416.21783487418,1854.25998618212
2359.52750585656,1854.26998618212
2312.15336381001,1854.27998618212
2277.00603093839,1854.28998618212
2238.47868255975,1854.29998618212
2195.44899758934,1854.30998618212
2161.06929545989,1854.31998618212
2106.69642686986,1854.32998618212
2065.71014310324,1854.33998618212
2033.57568730397,1854.34998618212
2022.27426984875,1854.35998618212
2025.4696970221,1854.36998618212
2037.96918608005,1854.37998618212
2057.14399258414,1854.38998618212
2082.19565544945,1854.39998618212
2104.8022921296,1854.40998618212
2122.34271334365,1854.41998618212
2137.09255624403,1854.42998618212
2155.14424883478,1854.43998618212
2162.61724278041,1854.44998618212
2169.43872353415,1854.45998618212
2164.763746708,1854.46998618212
2159.92616309372,1854.47998618212
2154.28465546894,1854.48998618212
2153.03587843598,1854.49998618212
2144.75801636953,1854.50998618212
2128.26165893079,1854.51998618212
2114.31025099694,1854.52998618212
2098.20048083026,1854.53998618212
2086.10316294256,1854.54998618212
2071.41598955933,1854.55998618212
2044.0621026251,1854.56998618212
2011.461416872,1854.57998618212
1984.85400286285,1854.58998618212
1966.17527320224,1854.59998618212
1932.95599164003,1854.60998618212
1904.04481864369,1854.61998618212
1882.89123051878,1854.62998618212
1865.42047133861,1854.63998618212
1859.2935128228,1854.64998618212
1860.74684694735,1854.65998618212
1855.67522073055,1854.66998618212
1845.15572434163,1854.67998618212
1837.79436770822,1854.68998618212
1837.9521353375,1854.69998618212
1843.74515724705,1854.70998618212
1843.81900320667,1854.71998618212
1825.9548938698,1854.72998618212
1805.45804153972,1854.73998618212
1793.56219671593,1854.74998618212
1794.6498083449,1854.75998618212
1803.47266757755,1854.76998618212
1813.69055901585,1854.77998618212
1823.72710993466,1854.78998618212
1839.61527350497,1854.79998618212
1845.81057482674,1854.80998618212
1844.22875395356,1854.81998618212
1852.29729214525,1854.82998618212
1844.24769820899,1854.83998618212
1834.88456022323,1854.84998618212
1826.52290985987,1854.85998618212
1826.53249052957,1854.86998618212
1843.94751233804,1854.87998618212
1861.07081427234,1854.88998618212
1890.22646525799,1854.89998618212
1932.30795174447,1854.90998618212
1982.40460012801,1854.91998618212
2066.4838430374,1854.92998618212
2175.26756743969,1854.93998618212
2308.84919121731,1854.94998618212
2465.57208270446,1854.95998618212
2633.77584991775,1854.96998618212
2806.70567360873,1854.97998618212
2953.30892720373,1854.98998618212
3070.30137894988,1854.99998618212
3166.63507974044,1855.00998618212
3236.60682437846,1855.01998618212
3284.46386578719,1855.02998618212
3303.57586740215,1855.03998618212
3306.46289033454,1855.04998618212
3297.82215461108,1855.05998618212
3270.73454871119,1855.06998618212
3226.44820373306,1855.07998618212
3165.71376152419,1855.08998618212
3088.1731053216,1855.09998618212
3005.36508210812,1855.10998618212
2928.04538234769,1855.11998618212
2850.96091360924,1855.12998618212
2778.23489994919,1855.13998618212
2708.10065080913,1855.14998618212
2649.48355710257,1855.15998618212
2582.93328518539,1855.16998618212
2515.40661439939,1855.17998618212
2445.95604030838,1855.18998618212
2367.59538130335,1855.19998618212
2286.74190136501,1855.20998618212
2209.30463778015,1855.21998618212
2145.63512691881,1855.22998618212
2089.87865866723,1855.23998618212
2044.44148526784,1855.24998618212
2003.76917600847,1855.25998618212
1985.27585979615,1855.26998618212
1978.95872630814,1855.27998618212
1994.09035104034,1855.28998618212
2022.60268727512,1855.29998618212
2067.21799303528,1855.30998618212
2105.72745363905,1855.31998618212
2149.60032939164,1855.32998618212
2188.70302124882,1855.33998618212
2220.09448018849,1855.34998618212
2245.72783753074,1855.35998618212
2261.98298291152,1855.36998618212
2268.74570473605,1855.37998618212
2273.11166587882,1855.38998618212
2265.82109123324,1855.39998618212
2248.96845390429,1855.40998618212
2228.51878855169,1855.41998618212
2219.60146613985,1855.42998618212
2209.71835530643,1855.43998618212
2196.56066097306,1855.44998618212
2183.13218926139,1855.45998618212
2176.95735408514,1855.46998618212
2173.8950686398,1855.47998618212
2176.40587939503,1855.48998618212
2163.98997446994,1855.49998618212
2144.67023419745,1855.50998618212
2135.76685608003,1855.51998618212
2137.652929354,1855.52998618212
2132.06093739276,1855.53998618212
2127.26939786771,1855.54998618212
2114.7264664106,1855.55998618212
2102.24036818927,1855.56998618212
2083.88179241609,1855.57998618212
2062.50359812078,1855.58998618212
2040.05701365481,1855.59998618212
2015.41228361167,1855.60998618212
1984.87683382241,1855.61998618212
1954.767303357,1855.62998618212
1932.67277483777,1855.63998618212
1920.99391599116,1855.64998618212
1914.18022500653,1855.65998618212
1912.1450676541,1855.66998618212
1915.67754118703,1855.67998618212
1926.42708652967,1855.68998618212
1930.66814891343,1855.69998618212
1935.26832293424,1855.70998618212
1934.99223792688,1855.71998618212
1929.15748632571,1855.72998618212
1933.61723840234,1855.73998618212
1933.68516247836,1855.74998618212
1924.37858431664,1855.75998618212
1919.83067331854,1855.76998618212
1920.04616238995,1855.77998618212
1919.91868523901,1855.78998618212
1920.00953302347,1855.79998618212
1919.78098717016,1855.80998618212
1920.02129904944,1855.81998618212
1919.59402134912,1855.82998618212
1926.47899940349,1855.83998618212
1927.90867046677,1855.84998618212
1927.63302032479,1855.85998618212
1928.88738575808,1855.86998618212
1948.40186431423,1855.87998618212
1992.7837305581,1855.88998618212
2068.11773394114,1855.89998618212
2186.92493635385,1855.90998618212
2314.4067276374,1855.91998618212
2461.97587597942,1855.92998618212
2614.95526335306,1855.93998618212
2760.19733517679,1855.94998618212
2895.38950216924,1855.95998618212
3010.58404982862,1855.96998618212
3112.23459248999,1855.97998618212
3181.96827607601,1855.98998618212
3240.64673138776,1855.99998618212
3266.33339536126,1856.00998618212
3275.89934608333,1856.01998618212
3276.77178499856,1856.02998618212
3255.36166836182,1856.03998618212
3224.57307284917,1856.04998618212
3189.81419735398,1856.05998618212
3144.29490668947,1856.06998618212
3089.94556291941,1856.07998618212
3035.20684221254,1856.08998618212
2979.06287346066,1856.09998618212
2921.00810287803,1856.10998618212
2864.31578266094,1856.11998618212
2806.06779494058,1856.12998618212
2757.31244023835,1856.13998618212
2721.31848915354,1856.14998618212
2677.65869564191,1856.15998618212
2635.76013900335,1856.16998618212
2590.83596152356,1856.17998618212
2545.37565888619,1856.18998618212
2501.36185714537,1856.19998618212
2452.80949183494,1856.20998618212
2401.33444166029,1856.21998618212
2344.86842648767,1856.22998618212
2284.06313766794,1856.23998618212
2231.03299495268,1856.24998618212
2201.92512058685,1856.25998618212
2197.31811788932,1856.26998618212
2200.48934068804,1856.27998618212
2204.78070498878,1856.28998618212
2209.1113857693,1856.29998618212
2224.34246244918,1856.30998618212
2233.01177869089,1856.31998618212
2238.41004334277,1856.32998618212
2241.59272382047,1856.33998618212
2229.38819239406,1856.34998618212
2211.43313209888,1856.35998618212
2196.07667094879,1856.36998618212
2181.95363845586,1856.37998618212
2169.37025718188,1856.38998618212
2151.53242648116,1856.39998618212
2122.14616373952,1856.40998618212
2089.00756026247,1856.41998618212
2054.5787752526,1856.42998618212
2012.74301638048,1856.43998618212
1974.97091380129,1856.44998618212
1936.1234376575,1856.45998618212
1910.56872629675,1856.46998618212
1895.8397052107,1856.47998618212
1889.65719980516,1856.48998618212
1887.68368558588,1856.49998618212
1882.51246537931,1856.50998618212
1874.78100562016,1856.51998618212
1864.10779741344,1856.52998618212
1854.07812798354,1856.53998618212
1852.58954661128,1856.54998618212
1854.70858162922,1856.55998618212
1875.82224835831,1856.56998618212
1895.7002544418,1856.57998618212
1906.80951425781,1856.58998618212
1913.82411932061,1856.59998618212
1912.68250506798,1856.60998618212
1913.09671152952,1856.61998618212
1913.26973256032,1856.62998618212
1910.73342241438,1856.63998618212
1902.20206637539,1856.64998618212
1895.60506311197,1856.65998618212
1886.93106577299,1856.66998618212
1882.82747768195,1856.67998618212
1882.94108299457,1856.68998618212
1883.14947742974,1856.69998618212
1882.53780363769,1856.70998618212
1885.33523859932,1856.71998618212
1890.68346984374,1856.72998618212
1889.58055017228,1856.73998618212
1896.87500531867,1856.74998618212
1903.64791263811,1856.75998618212
1907.52561997655,1856.76998618212
1915.69190946821,1856.77998618212
1922.33857564268,1856.78998618212
1929.48571392473,1856.79998618212
1916.00856975409,1856.80998618212
1893.83250835761,1856.81998618212
1863.99777358024,1856.82998618212
1851.35321030913,1856.83998618212
1854.27727249261,1856.84998618212
1880.56158797732,1856.85998618212
1951.15268623799,1856.86998618212
2065.59146275667,1856.87998618212
2217.10391395713,1856.88998618212
2397.66780110835,1856.89998618212
2578.80640486936,1856.90998618212
2744.3515073841,1856.91998618212
2888.46352693603,1856.92998618212
3008.14112335218,1856.93998618212
3098.19324457597,1856.94998618212
3156.9912381686,1856.95998618212
3189.96252506031,1856.96998618212
3195.7116671771,1856.97998618212
3196.01749783331,1856.98998618212
3180.78757268312,1856.99998618212
3164.27036521986,1857.00998618212
3132.96019398822,1857.01998618212
3077.54513572797,1857.02998618212
3008.84634390434,1857.03998618212
2938.66538897509,1857.04998618212
2872.0520765962,1857.05998618212
2804.09817379653,1857.06998618212
2736.55311603946,1857.07998618212
2657.34220950867,1857.08998618212
2572.82401021082,1857.09998618212
2506.63153301889,1857.10998618212
2440.34243189761,1857.11998618212
2378.94385734166,1857.12998618212
2324.82504904108,1857.13998618212
2282.39391561542,1857.14998618212
2235.6863849088,1857.15998618212
2179.92644019096,1857.16998618212
2121.72725107612,1857.17998618212
2056.6653048747,1857.18998618212
1994.36105240198,1857.19998618212
1928.25318613239,1857.20998618212
1874.98158667174,1857.21998618212
1835.17122365776,1857.22998618212
1824.10550082954,1857.23998618212
1815.82508984544,1857.24998618212
1814.93691562259,1857.25998618212
1826.46736786352,1857.26998618212
1841.79417502926,1857.27998618212
1868.90498913071,1857.28998618212
1887.76723579682,1857.29998618212
1891.0021422772,1857.30998618212
1885.80322422095,1857.31998618212
1861.33986066932,1857.32998618212
1826.1949057858,1857.33998618212
1799.67169576505,1857.34998618212
1779.3095353426,1857.35998618212
1780.18452519734,1857.36998618212
1780.0397622851,1857.37998618212
1777.05329660997,1857.38998618212
1772.58965357829,1857.39998618212
1759.25062400402,1857.40998618212
1735.61709257835,1857.41998618212
1709.32968380243,1857.42998618212
1689.84917995748,1857.43998618212
1675.64270764709,1857.44998618212
1671.89480300232,1857.45998618212
1674.2351055186,1857.46998618212
1663.24381498529,1857.47998618212
1651.75361749864,1857.48998618212
1632.77908010116,1857.49998618212
1603.92370223351,1857.50998618212
1588.69478141623,1857.51998618212
1575.84821219428,1857.52998618212
1573.14120064452,1857.53998618212
1564.8580445803,1857.54998618212
1552.07256231089,1857.55998618212
1539.38065651346,1857.56998618212
1521.04422711757,1857.57998618212
1494.3922232924,1857.58998618212
1461.13428266261,1857.59998618212
1429.57180154678,1857.60998618212
1407.54179251475,1857.61998618212
1396.54482559259,1857.62998618212
1392.16012693323,1857.63998618212
1387.52444933649,1857.64998618212
1381.61294503771,1857.65998618212
1379.1833123365,1857.66998618212
1374.91576812763,1857.67998618212
1371.58212317903,1857.68998618212
1388.24519201403,1857.69998618212
1407.71435418837,1857.70998618212
1431.0885528718,1857.71998618212
1455.87375348716,1857.72998618212
1479.70257943106,1857.73998618212
1499.98744763707,1857.74998618212
1513.12191595914,1857.75998618212
1517.92130506031,1857.76998618212
1522.95730922169,1857.77998618212
1536.02791276603,1857.78998618212
1566.46810553717,1857.79998618212
1636.12959447272,1857.80998618212
1728.77328482399,1857.81998618212
1843.68950960476,1857.82998618212
1989.63008176893,1857.83998618212
2149.47581049,1857.84998618212
2299.63646141815,1857.85998618212
2462.09193282093,1857.86998618212
2621.56582811091,1857.87998618212
2765.9328677179,1857.88998618212
2882.86696211428,1857.89998618212
2973.26413207392,1857.90998618212
3021.93988892656,1857.91998618212
3057.51709407432,1857.92998618212
3075.49629247302,1857.93998618212
3073.70045232143,1857.94998618212
3056.75521158934,1857.95998618212
3029.52550776659,1857.96998618212
3008.48380956805,1857.97998618212
2976.7168845756,1857.98998618212
2932.71375449087,1857.99998618212
2885.52718426524,1858.00998618212
2829.05893401953,1858.01998618212
2769.48352880599,1858.02998618212
2701.0459526816,1858.03998618212
2630.52252001475,1858.04998618212
2560.68409064624,1858.05998618212
2497.95748754827,1858.06998618212
2448.12056505852,1858.07998618212
2402.67593850048,1858.08998618212
2360.75745523031,1858.09998618212
2309.47127436391,1858.10998618212
2256.73809134121,1858.11998618212
2209.79314572184,1858.12998618212
2176.14075414014,1858.13998618212
2149.89292477436,1858.14998618212
2125.70735966004,1858.15998618212
2103.32368021612,1858.16998618212
2089.36930872069,1858.17998618212
2084.0363912379,1858.18998618212
2087.90647300334,1858.19998618212
2093.16126874696,1858.20998618212
2100.43152268564,1858.21998618212
2113.54871687649,1858.22998618212
2128.01467179295,1858.23998618212
2143.54129599188,1858.24998618212
2162.19289452607,1858.25998618212
2168.9763377939,1858.26998618212
2165.54998189228,1858.27998618212
2157.14068382936,1858.28998618212
2144.9953309267,1858.29998618212
2131.79095326414,1858.30998618212
2122.72832897434,1858.31998618212
2114.82163822381,1858.32998618212
2104.40748714323,1858.33998618212
2092.32489264653,1858.34998618212
2073.64231954977,1858.35998618212
2053.1837540217,1858.36998618212
2037.77604427564,1858.37998618212
2023.99892922158,1858.38998618212
2008.6630011147,1858.39998618212
1999.9054695699,1858.40998618212
1980.7527023866,1858.41998618212
1960.6140573933,1858.42998618212
1940.73345893944,1858.43998618212
1926.59017337273,1858.44998618212
1916.5262483753,1858.45998618212
1913.26340984638,1858.46998618212
1910.53296936564,1858.47998618212
1902.19473555492,1858.48998618212
1883.43722022348,1858.49998618212
1864.88796122244,1858.50998618212
1859.95951989001,1858.51998618212
1861.07360962459,1858.52998618212
1882.08607320806,1858.53998618212
1901.9035398631,1858.54998618212
1911.45421551474,1858.55998618212
1906.84720228343,1858.56998618212
1904.41726816447,1858.57998618212
1899.48872225577,1858.58998618212
1897.61270005858,1858.59998618212
1903.52609526443,1858.60998618212
1913.91656842233,1858.61998618212
1929.29446825988,1858.62998618212
1942.78865639194,1858.63998618212
1941.66578518328,1858.64998618212
1948.59477828588,1858.65998618212
1963.81647497134,1858.66998618212
1981.60685839548,1858.67998618212
2005.94235997389,1858.68998618212
2015.96331640902,1858.69998618212
2026.05639237922,1858.70998618212
2043.74112956176,1858.71998618212
2078.67944867685,1858.72998618212
2119.57057484162,1858.73998618212
2170.18170503173,1858.74998618212
2233.87217658692,1858.75998618212
2324.60741284009,1858.76998618212
2433.70729868912,1858.77998618212
2557.5823314124,1858.78998618212
2677.3818844178,1858.79998618212
2791.56378072137,1858.80998618212
2895.62566617087,1858.81998618212
2993.18067810677,1858.82998618212
3065.91445502754,1858.83998618212
3110.68492804322,1858.84998618212
3120.940280962,1858.85998618212
3106.80311717589,1858.86998618212
3083.42218026607,1858.87998618212
3052.22091515449,1858.88998618212
3034.77286392271,1858.89998618212
3010.32921895008,1858.90998618212
2983.71868184248,1858.91998618212
2946.45608244034,1858.92998618212
2900.65914380357,1858.93998618212
2869.47728496248,1858.94998618212
2848.49428519984,1858.95998618212
2831.62837128261,1858.96998618212
2808.62777218407,1858.97998618212
2784.25592573733,1858.98998618212
2754.35227542957,1858.99998618212
2730.97060999402,1859.00998618212
2709.88116935311,1859.01998618212
2685.90750121863,1859.02998618212
2651.21826414192,1859.03998618212
2618.20423765149,1859.04998618212
2575.57081197075,1859.05998618212
2541.40902088052,1859.06998618212
2512.09230896973,1859.07998618212
2480.65298335854,1859.08998618212
2461.10860459226,1859.09998618212
2446.23506681922,1859.10998618212
2431.21724078988,1859.11998618212
2428.93197902019,1859.12998618212
2433.11143786862,1859.13998618212
2443.58065093576,1859.14998618212
2460.02657530144,1859.15998618212
2481.70556344324,1859.16998618212
2500.68013421399,1859.17998618212
2513.24380930388,1859.18998618212
2505.59275780789,1859.19998618212
2505.98563641387,1859.20998618212
2495.873077878,1859.21998618212
2492.05141230723,1859.22998618212
2499.03315094046,1859.23998618212
2497.97823939298,1859.24998618212
2494.44721298869,1859.25998618212
2469.91354852765,1859.26998618212
2445.59657549834,1859.27998618212
2413.57314648246,1859.28998618212
2376.31946688865,1859.29998618212
2336.11236202373,1859.30998618212
2298.71418154266,1859.31998618212
2272.78756500555,1859.32998618212
2254.05352756711,1859.33998618212
2236.86364938377,1859.34998618212
2213.51141178766,1859.35998618212
2184.77738569796,1859.36998618212
2149.37081126728,1859.37998618212
2125.79366590678,1859.38998618212
2097.48931476707,1859.39998618212
2066.08336462952,1859.40998618212
2040.09692289142,1859.41998618212
2014.94485008423,1859.42998618212
1992.94544715213,1859.43998618212
1978.82436986885,1859.44998618212
1971.78455458399,1859.45998618212
1975.29312636056,1859.46998618212
1982.98581256011,1859.47998618212
1994.06441147353,1859.48998618212
1989.96044347934,1859.49998618212
1983.14761899275,1859.50998618212
1962.75157709738,1859.51998618212
1951.39611334923,1859.52998618212
1943.56235121956,1859.53998618212
1949.20585407035,1859.54998618212
1947.81025874011,1859.55998618212
1942.45501550095,1859.56998618212
1943.0570108531,1859.57998618212
1943.39031086498,1859.58998618212
1940.24616903366,1859.59998618212
1934.45113050224,1859.60998618212
1933.46360324578,1859.61998618212
1924.30679095127,1859.62998618212
1919.59060600882,1859.63998618212
1919.93179081095,1859.64998618212
1925.94659671653,1859.65998618212
1934.1941559544,1859.66998618212
1934.18098289191,1859.67998618212
1943.01847564375,1859.68998618212
1958.06341042808,1859.69998618212
2023.50804100953,1859.70998618212
2111.34234404929,1859.71998618212
2234.85067724557,1859.72998618212
2405.31506721302,1859.73998618212
2574.04439316457,1859.74998618212
2743.65397606131,1859.75998618212
2887.59902081612,1859.76998618212
3019.27021069754,1859.77998618212
3138.93978575051,1859.78998618212
3239.47764609977,1859.79998618212
3306.14234969844,1859.80998618212
3333.40081394055,1859.81998618212
3339.46508571162,1859.82998618212
3334.23698077672,1859.83998618212
3309.3378705192,1859.84998618212
3260.72154857278,1859.85998618212
3212.48769835909,1859.86998618212
3163.73293785744,1859.87998618212
3110.15142186972,1859.88998618212
3047.90758212743,1859.89998618212
2975.8381942248,1859.90998618212
2894.28236446462,1859.91998618212
2820.8860375317,1859.92998618212
2744.67118443784,1859.93998618212
2678.01742217232,1859.94998618212
2621.78588994805,1859.95998618212
2567.62020317969,1859.96998618212
2513.57749926161,1859.97998618212
2476.45766569164,1859.98998618212
2435.60997738996,1859.99998618212
2387.18167709838,1860.00998618212
2349.76353364132,1860.01998618212
2305.71286459758,1860.02998618212
2260.68132586326,1860.03998618212
2203.63889281734,1860.04998618212
2148.49506596964,1860.05998618212
2105.58763677634,1860.06998618212
2074.65642491373,1860.07998618212
2052.75725144112,1860.08998618212
2038.04444166002,1860.09998618212
2021.87026145305,1860.10998618212
1989.85784218633,1860.11998618212
1957.72910944373,1860.12998618212
1926.50639835014,1860.13998618212
1913.58034091639,1860.14998618212
1906.45426888244,1860.15998618212
1903.08302472733,1860.16998618212
1892.73399205416,1860.17998618212
1867.75156949232,1860.18998618212
1848.61765117047,1860.19998618212
1822.4418222835,1860.20998618212
1803.96398005363,1860.21998618212
1776.83239512868,1860.22998618212
1761.59498821432,1860.23998618212
1745.48733149874,1860.24998618212
1739.76789208184,1860.25998618212
1734.00809925689,1860.26998618212
1733.38973823412,1860.27998618212
1729.95872484797,1860.28998618212
1719.56042909431,1860.29998618212
1706.46537596054,1860.30998618212
1679.5471401848,1860.31998618212
1661.23928600562,1860.32998618212
1640.47229025885,1860.33998618212
1632.34017549597,1860.34998618212
1621.12807153698,1860.35998618212
1617.96633549363,1860.36998618212
1609.81288161154,1860.37998618212
1597.13638943477,1860.38998618212
1583.98251848641,1860.39998618212
1574.09748970439,1860.40998618212
1575.47176960481,1860.41998618212
1574.57946157623,1860.42998618212
1581.81301353149,1860.43998618212
1583.09637262781,1860.44998618212
1583.09424577811,1860.45998618212
1582.68914135842,1860.46998618212
1583.52964454678,1860.47998618212
1582.1314707232,1860.48998618212
1590.25871542168,1860.49998618212
1584.56180688199,1860.50998618212
1574.53533842623,1860.51998618212
1574.24532702812,1860.52998618212
1586.77390075029,1860.53998618212
1599.38644258076,1860.54998618212
1597.62120257666,1860.55998618212
1585.62051013246,1860.56998618212
1576.60871071075,1860.57998618212
1569.65115326617,1860.58998618212
1558.90091111985,1860.59998618212
1552.6667043128,1860.60998618212
1533.10586074118,1860.61998618212
1506.82827282878,1860.62998618212
1492.7592767064,1860.63998618212
1494.23826721827,1860.64998618212
1518.43347007411,1860.65998618212
1575.04443244472,1860.66998618212
1659.19633697215,1860.67998618212
1778.74664963199,1860.68998618212
1927.70620996826,1860.69998618212
2085.25738177603,1860.70998618212
2254.84525552514,1860.71998618212
2424.27244349813,1860.72998618212
2584.08660068725,1860.73998618212
2728.35048647351,1860.74998618212
2842.98659360592,1860.75998618212
2931.09505374243,1860.76998618212
2975.29891472251,1860.77998618212
2986.78666323433,1860.78998618212
2977.02017335908,1860.79998618212
2955.36242007214,1860.80998618212
2926.88272299048,1860.81998618212
2900.7694368252,1860.82998618212
2867.92125371905,1860.83998618212
2817.47903336689,1860.84998618212
2768.5510604945,1860.85998618212
2715.14095937445,1860.86998618212
2654.07513236913,1860.87998618212
2588.39855981551,1860.88998618212
2512.77017771849,1860.89998618212
2443.55199919955,1860.90998618212
2373.30574856268,1860.91998618212
2311.02512309537,1860.92998618212
2259.10019052918,1860.93998618212
2201.47106762616,1860.94998618212
2150.74189457203,1860.95998618212
2102.90181419678,1860.96998618212
2049.43805457244,1860.97998618212
1998.36405018368,1860.98998618212
1937.19821176276,1860.99998618212
1898.04064401582,1861.00998618212
1874.00471245162,1861.01998618212
1854.91177987044,1861.02998618212
1852.12687438538,1861.03998618212
1867.07500537559,1861.04998618212
1885.30955487503,1861.05998618212
1901.65593231826,1861.06998618212
1916.53352191953,1861.07998618212
1933.75863434595,1861.08998618212
1951.87951689961,1861.09998618212
1966.30631942681,1861.10998618212
1983.93153630403,1861.11998618212
2000.62887087801,1861.12998618212
2021.63210411562,1861.13998618212
2037.85990370445,1861.14998618212
2057.08312972057,1861.15998618212
2078.24623743748,1861.16998618212
2100.31168807796,1861.17998618212
2112.1999323552,1861.18998618212
2110.8474796762,1861.19998618212
2094.32660222833,1861.20998618212
2074.66254992262,1861.21998618212
2050.19486010015,1861.22998618212
2025.34710621639,1861.23998618212
2000.19623888374,1861.24998618212
1971.9604224968,1861.25998618212
1954.65036619796,1861.26998618212
1924.34318453166,1861.27998618212
1897.67655137997,1861.28998618212
1872.11389497891,1861.29998618212
1850.2164293596,1861.30998618212
1836.86817028407,1861.31998618212
1820.35499114949,1861.32998618212
1802.77380204915,1861.33998618212
1789.47557820547,1861.34998618212
1765.26628547281,1861.35998618212
1751.68705038864,1861.36998618212
1741.21746939573,1861.37998618212
1739.60989233971,1861.38998618212
1746.60328561,1861.39998618212
1753.97226770754,1861.40998618212
1755.17812748176,1861.41998618212
1754.85032256329,1861.42998618212
1761.32260881915,1861.43998618212
1765.34209747224,1861.44998618212
1770.89101193344,1861.45998618212
1763.14449240185,1861.46998618212
1765.70821677126,1861.47998618212
1775.97404577975,1861.48998618212
1788.77454877151,1861.49998618212
1809.51431065602,1861.50998618212
1826.10692834857,1861.51998618212
1847.81655249103,1861.52998618212
1860.24812595953,1861.53998618212
1879.46928575081,1861.54998618212
1906.25635272243,1861.55998618212
1947.6335474653,1861.56998618212
1989.31684367556,1861.57998618212
2057.18434666899,1861.58998618212
2147.89483779385,1861.59998618212
2258.79417703968,1861.60998618212
2404.05336464406,1861.61998618212
2559.87529587097,1861.62998618212
2724.46283968646,1861.63998618212
2889.12790913609,1861.64998618212
3047.31830700023,1861.65998618212
3182.1394828022,1861.66998618212
3289.51420044879,1861.67998618212
3377.26003767874,1861.68998618212
3434.81442697926,1861.69998618212
3464.05831506379,1861.70998618212
3466.39551129681,1861.71998618212
3448.68672201025,1861.72998618212
3411.38364558509,1861.73998618212
3366.07712945645,1861.74998618212
3309.28955588732,1861.75998618212
3241.9412752586,1861.76998618212
3167.84017236804,1861.77998618212
3098.43886543325,1861.78998618212
3040.98084751678,1861.79998618212
2992.59863332395,1861.80998618212
2944.62093528239,1861.81998618212
2892.07921785119,1861.82998618212
2837.12813074079,1861.83998618212
2779.02853721192,1861.84998618212
2731.14632525337,1861.85998618212
2679.5196447117,1861.86998618212
2637.03514576234,1861.87998618212
2593.37175786047,1861.88998618212
2548.67203319186,1861.89998618212
2506.12093768403,1861.90998618212
2455.07159156693,1861.91998618212
2408.718795154,1861.92998618212
2350.30175978683,1861.93998618212
2308.3135978569,1861.94998618212
2275.7545820766,1861.95998618212
2263.73949388768,1861.96998618212
2271.83181673975,1861.97998618212
2286.66742452285,1861.98998618212
2307.65746956824,1861.99998618212
2320.97890704224,1862.00998618212
2325.6163065555,1862.01998618212
2316.83194444772,1862.02998618212
2306.67995969644,1862.03998618212
2296.50964340151,1862.04998618212
2294.50170556484,1862.05998618212
2301.97654030091,1862.06998618212
2303.15025905737,1862.07998618212
2303.2568719167,1862.08998618212
2294.78373574663,1862.09998618212
2284.20334199945,1862.10998618212
2272.89771491791,1862.11998618212
2244.59769565275,1862.12998618212
2211.30745860115,1862.13998618212
2184.71676009626,1862.14998618212
2156.43388009524,1862.15998618212
2135.65271134137,1862.16998618212
2121.5742437206,1862.17998618212
2093.78954426639,1862.18998618212
2069.23117984046,1862.19998618212
2055.40371667938,1862.20998618212
2055.57038929061,1862.21998618212
2052.36785227158,1862.22998618212
2039.8965172007,1862.23998618212
2038.58754279647,1862.24998618212
2027.66828449929,1862.25998618212
2001.07120151657,1862.26998618212
1972.70095623757,1862.27998618212
1942.00228056231,1862.28998618212
1919.92580002394,1862.29998618212
1909.47649634922,1862.30998618212
1904.38084126819,1862.31998618212
1900.16224268215,1862.32998618212
1894.28063536215,1862.33998618212
1890.53493704442,1862.34998618212
1879.62438743077,1862.35998618212
1863.84438669681,1862.36998618212
1858.14686339029,1862.37998618212
1851.49346862374,1862.38998618212
1862.01125452526,1862.39998618212
1868.67780144039,1862.40998618212
1873.23093641336,1862.41998618212
1875.95597037749,1862.42998618212
1872.43312676336,1862.43998618212
1865.53080400409,1862.44998618212
1856.70537298156,1862.45998618212
1858.59566142562,1862.46998618212
1859.8470060269,1862.47998618212
1860.28805623449,1862.48998618212
1856.94862382198,1862.49998618212
1854.34431516641,1862.50998618212
1868.51091118526,1862.51998618212
1887.92593646731,1862.52998618212
1933.73057786851,1862.53998618212
2003.19655110957,1862.54998618212
2104.60444754599,1862.55998618212
2239.04492301903,1862.56998618212
2384.5450336103,1862.57998618212
2535.51955574136,1862.58998618212
2677.11268854386,1862.59998618212
2815.20974930061,1862.60998618212
2942.1873462248,1862.61998618212
3047.18901201138,1862.62998618212
3121.65475267231,1862.63998618212
3166.25292208708,1862.64998618212
3180.11551465748,1862.65998618212
3178.78014617224,1862.66998618212
3163.51888889315,1862.67998618212
3146.27062361404,1862.68998618212
3119.82918188372,1862.69998618212
3084.53966754224,1862.70998618212
3041.34927766561,1862.71998618212
2995.8506000953,1862.72998618212
2943.43329832471,1862.73998618212
2879.07237228405,1862.74998618212
2819.69843464151,1862.75998618212
2770.99569648011,1862.76998618212
2723.60037070187,1862.77998618212
2670.08708564924,1862.78998618212
2614.77913633985,1862.79998618212
2567.24240508881,1862.80998618212
2531.95955065659,1862.81998618212
2499.76991210234,1862.82998618212
2450.51880881318,1862.83998618212
2391.90709221317,1862.84998618212
2330.01974529033,1862.85998618212
2266.18746584146,1862.86998618212
2223.30103455059,1862.87998618212
2197.32987573433,1862.88998618212
2174.88471966037,1862.89998618212
2155.70418825648,1862.90998618212
2130.93608179985,1862.91998618212
2124.76913321843,1862.92998618212
2119.58641700756,1862.93998618212
2121.0178273404,1862.94998618212
2125.02937599148,1862.95998618212
2141.39071286182,1862.96998618212
2162.98671915102,1862.97998618212
2173.89560122808,1862.98998618212
2181.90230738415,1862.99998618212
2183.24726683033,1863.00998618212
2176.50219800284,1863.01998618212
2169.05660545248,1863.02998618212
2166.0396528449,1863.03998618212
2150.60221932604,1863.04998618212
2144.94931689938,1863.05998618212
2130.93822839864,1863.06998618212
2112.97517077605,1863.07998618212
2099.37025309167,1863.08998618212
2075.96369804427,1863.09998618212
2049.92138199079,1863.10998618212
2023.27766411051,1863.11998618212
2000.8869024926,1863.12998618212
1976.95484709511,1863.13998618212
1967.00171913429,1863.14998618212
1957.99851304287,1863.15998618212
1959.34539961148,1863.16998618212
1940.40425593367,1863.17998618212
1918.15167472048,1863.18998618212
1889.60238768363,1863.19998618212
1850.52642783347,1863.20998618212
1817.98554553364,1863.21998618212
1778.7633756207,1863.22998618212
1744.67746228921,1863.23998618212
1716.77887250638,1863.24998618212
1703.26925012063,1863.25998618212
1703.26158112339,1863.26998618212
1696.16128758189,1863.27998618212
1693.46538348721,1863.28998618212
1675.85677443162,1863.29998618212
1661.80781305145,1863.30998618212
1643.52742343377,1863.31998618212
1629.05715106171,1863.32998618212
1598.90690914943,1863.33998618212
1574.34500535437,1863.34998618212
1552.4653141009,1863.35998618212
1531.49045651606,1863.36998618212
1524.15487631532,1863.37998618212
1522.48003497237,1863.38998618212
1523.37748186157,1863.39998618212
1527.97273778837,1863.40998618212
1545.10697290642,1863.41998618212
1554.64289252867,1863.42998618212
1549.39605569877,1863.43998618212
1537.35600921286,1863.44998618212
1517.51532596398,1863.45998618212
1507.23575205533,1863.46998618212
1512.52505841119,1863.47998618212
1528.12405262555,1863.48998618212
1571.24250412367,1863.49998618212
1633.17882389844,1863.50998618212
1720.05270870171,1863.51998618212
1836.51379933167,1863.52998618212
1970.48983485568,1863.53998618212
2128.52815831806,1863.54998618212
2298.3887411299,1863.55998618212
2446.74355139979,1863.56998618212
2587.58343534323,1863.57998618212
2717.11116277473,1863.58998618212
2822.452143226,1863.59998618212
2902.03422963182,1863.60998618212
2951.74710280835,1863.61998618212
2971.01839462187,1863.62998618212
2966.38290657034,1863.63998618212
2941.72627328802,1863.64998618212
2905.19911475491,1863.65998618212
2855.16306216233,1863.66998618212
2796.29175762098,1863.67998618212
2737.64874029846,1863.68998618212
2667.11372068706,1863.69998618212
2585.08753089427,1863.70998618212
2504.34531657212,1863.71998618212
2438.55676214649,1863.72998618212
2379.04036142639,1863.73998618212
2314.9461508769,1863.74998618212
2274.08161108086,1863.75998618212
2243.01414334941,1863.76998618212
