PPG,time
0.0563389021624791,1655.85422251903
0.09753089655877,1655.86422251903
0.0662605040068935,1655.87422251903
0.0567491735462497,1655.88422251903
0.035331473659163,1655.89422251903
0.021905210126088,1655.90422251903
0.00367796640164287,1655.91422251903
-0.0112986998663549,1655.92422251903
-0.0281053294040448,1655.93422251903
-0.0437114567042772,1655.94422251903
-0.0598602021946789,1655.95422251903
-0.0761800823782769,1655.96422251903
-0.0921616192952399,1655.97422251903
-0.107488375186466,1655.98422251903
-0.12213853138583,1655.99422251903
-0.136293807302572,1656.00422251903
-0.149599361422072,1656.01422251903
-0.162767324383645,1656.02422251903
-0.175437637541763,1656.03422251903
-0.188023644174935,1656.04422251903
-0.200468803505859,1656.05422251903
-0.212498566586416,1656.06422251903
-0.224590694077568,1656.07422251903
-0.236950303276049,1656.08422251903
-0.249449233573404,1656.09422251903
-0.261533742434358,1656.10422251903
-0.273253221576096,1656.11422251903
-0.284542056955866,1656.12422251903
-0.295988391113859,1656.13422251903
-0.307072444375507,1656.14422251903
-0.317754935511211,1656.15422251903
-0.328659940647504,1656.16422251903
-0.339553729523722,1656.17422251903
-0.350683414775382,1656.18422251903
-0.362061373205238,1656.19422251903
-0.373392874323129,1656.20422251903
-0.384657083894322,1656.21422251903
-0.395643941429801,1656.22422251903
-0.404541432598616,1656.23422251903
-0.407906056945041,1656.24422251903
-0.399484173738245,1656.25422251903
-0.372602799648399,1656.26422251903
-0.322910653267662,1656.27422251903
-0.248607682336881,1656.28422251903
-0.151445469665659,1656.29422251903
-0.0376097415305605,1656.30422251903
0.0821659845341521,1656.31422251903
0.196678746426528,1656.32422251903
0.294852460873679,1656.33422251903
0.369590588749742,1656.34422251903
0.417244491945509,1656.35422251903
0.438705169216119,1656.36422251903
0.439024523513102,1656.37422251903
0.423248935705731,1656.38422251903
0.39777811641984,1656.39422251903
0.367044919607182,1656.40422251903
0.335039144664636,1656.41422251903
0.304481323996431,1656.42422251903
0.276084023068986,1656.43422251903
0.250989693650693,1656.44422251903
0.229147325778805,1656.45422251903
0.21029866771321,1656.46422251903
0.194508121403043,1656.47422251903
0.180666452999764,1656.48422251903
0.169316561075793,1656.49422251903
0.158767941179752,1656.50422251903
0.148063687496722,1656.51422251903
0.136789460416363,1656.52422251903
0.124142934918985,1656.53422251903
0.110038731654092,1656.54422251903
0.0949706873535479,1656.55422251903
0.0805428681302634,1656.56422251903
0.0669517966171521,1656.57422251903
0.0561860864647979,1656.58422251903
0.0490341180623093,1656.59422251903
0.0454202158382944,1656.60422251903
0.0446961037323094,1656.61422251903
0.0468464003416722,1656.62422251903
0.0505198703002274,1656.63422251903
0.0551579172541872,1656.64422251903
0.0607806741150927,1656.65422251903
0.0659498509329745,1656.66422251903
0.0699736849688356,1656.67422251903
0.0729193123241725,1656.68422251903
0.0734720658926215,1656.69422251903
0.0717561972256714,1656.70422251903
0.0676270105166446,1656.71422251903
0.0609367891863514,1656.72422251903
0.0517067848570947,1656.73422251903
0.0402041198555566,1656.74422251903
0.0274445640576723,1656.75422251903
0.0137554429002936,1656.76422251903
-0.000723927971235018,1656.77422251903
-0.015853472751013,1656.78422251903
-0.0311189109483829,1656.79422251903
-0.0467657661501761,1656.80422251903
-0.0624821721477402,1656.81422251903
-0.0788024931536403,1656.82422251903
-0.0950534781523041,1656.83422251903
-0.111598818037777,1656.84422251903
-0.128604711381762,1656.85422251903
-0.145672919690193,1656.86422251903
-0.162285957699504,1656.87422251903
-0.178120762017778,1656.88422251903
-0.193826700710749,1656.89422251903
-0.208732027093948,1656.90422251903
-0.223637183267621,1656.91422251903
-0.237355362425483,1656.92422251903
-0.250435555961787,1656.93422251903
-0.26244932614877,1656.94422251903
-0.274434099926804,1656.95422251903
-0.286198111081448,1656.96422251903
-0.2984690321727,1656.97422251903
-0.310955237010375,1656.98422251903
-0.323242957187365,1656.99422251903
-0.335997121579265,1657.00422251903
-0.348283365005735,1657.01422251903
-0.35996627712624,1657.02422251903
-0.371249378708666,1657.03422251903
-0.381677715766929,1657.04422251903
-0.391392381670524,1657.05422251903
-0.400190664717513,1657.06422251903
-0.408517877917478,1657.07422251903
-0.416454060749709,1657.08422251903
-0.424710889174043,1657.09422251903
-0.433813771062369,1657.10422251903
-0.443752463632536,1657.11422251903
-0.454044958230166,1657.12422251903
-0.464265270078287,1657.13422251903
-0.472946705644342,1657.14422251903
-0.476783850713442,1657.15422251903
-0.470828469431978,1657.16422251903
-0.448932195359335,1657.17422251903
-0.406607743032622,1657.18422251903
-0.342124578103076,1657.19422251903
-0.256719102727982,1657.20422251903
-0.154643320614756,1657.21422251903
-0.0441987638333653,1657.22422251903
0.0647099016193305,1657.23422251903
0.162210931479269,1657.24422251903
0.240436038339731,1657.25422251903
0.293677733972386,1657.26422251903
0.323036670465089,1657.27422251903
0.331323149002608,1657.28422251903
0.323426997912369,1657.29422251903
0.304940788589918,1657.30422251903
0.28059727746692,1657.31422251903
0.254912160967967,1657.32422251903
0.22977496147593,1657.33422251903
0.206037015483536,1657.34422251903
0.185488328536635,1657.35422251903
0.167308121841084,1657.36422251903
0.151592956785564,1657.37422251903
0.138136364694562,1657.38422251903
0.127211574172473,1657.39422251903
0.117515632896452,1657.40422251903
0.109706449178767,1657.41422251903
0.101365415581096,1657.42422251903
0.0924078161939057,1657.43422251903
0.0821794200270628,1657.44422251903
0.0694199710300579,1657.45422251903
0.0560804069849882,1657.46422251903
0.0429075715482206,1657.47422251903
0.0306325692105573,1657.48422251903
0.0199267802174791,1657.49422251903
0.0116687058118538,1657.50422251903
0.00588766636736982,1657.51422251903
0.00198590851422559,1657.52422251903
0.000178908005567994,1657.53422251903
0.000717104919952249,1657.54422251903
0.003129250931745,1657.55422251903
0.00657093184520149,1657.56422251903
0.00908383216071226,1657.57422251903
0.0109102093666877,1657.58422251903
0.0113611892401939,1657.59422251903
0.00976019116508605,1657.60422251903
0.00645556254796961,1657.61422251903
0.00128546554272259,1657.62422251903
-0.00608829505405784,1657.63422251903
-0.0153177754953662,1657.64422251903
-0.0256073313895492,1657.65422251903
-0.0370701776068051,1657.66422251903
-0.0491308729652658,1657.67422251903
-0.0612917872536056,1657.68422251903
-0.0741146742841029,1657.69422251903
-0.0873544132890022,1657.70422251903
-0.101428104211036,1657.71422251903
-0.11574958358279,1657.72422251903
-0.130555514749178,1657.73422251903
-0.14570720502463,1657.74422251903
-0.160882035686701,1657.75422251903
-0.175791256894479,1657.76422251903
-0.190943707810697,1657.77422251903
-0.205852802674827,1657.78422251903
-0.22082777846349,1657.79422251903
-0.235333760644222,1657.80422251903
-0.250129026005151,1657.81422251903
-0.264674693857172,1657.82422251903
-0.278873524715637,1657.83422251903
-0.29280874728418,1657.84422251903
-0.306200621501578,1657.85422251903
-0.31918758879165,1657.86422251903
-0.331606489708291,1657.87422251903
-0.342907479294912,1657.88422251903
-0.353964107765133,1657.89422251903
-0.364239265511402,1657.90422251903
-0.373779378351231,1657.91422251903
-0.382953929340677,1657.92422251903
-0.392911339678075,1657.93422251903
-0.402826152372497,1657.94422251903
-0.412546833567739,1657.95422251903
-0.422416585720247,1657.96422251903
-0.431980579460195,1657.97422251903
-0.441368121227187,1657.98422251903
-0.450377804355144,1657.99422251903
-0.458835162982579,1658.00422251903
-0.46682609441455,1658.01422251903
-0.474873767431604,1658.02422251903
-0.483135870135766,1658.03422251903
-0.491899705614207,1658.04422251903
-0.500114684660174,1658.05422251903
-0.506320808640117,1658.06422251903
-0.507715575482204,1658.07422251903
-0.497648071812637,1658.08422251903
-0.470223394798618,1658.09422251903
-0.421253359093304,1658.10422251903
-0.349519757415606,1658.11422251903
-0.257788405100732,1658.12422251903
-0.151976376205324,1658.13422251903
-0.0413574522782424,1658.14422251903
0.0637799507668012,1658.15422251903
0.15497630155558,1658.16422251903
0.225494571095912,1658.17422251903
0.272169689336769,1658.18422251903
0.296441275317044,1658.19422251903
0.301477229251588,1658.20422251903
0.292698298685441,1658.21422251903
0.275079067568308,1658.22422251903
0.253973858662132,1658.23422251903
0.231467606735033,1658.24422251903
0.210402608842909,1658.25422251903
0.191614452242891,1658.26422251903
0.17545867479002,1658.27422251903
0.163142485714633,1658.28422251903
0.154099049939005,1658.29422251903
0.147920184877737,1658.30422251903
0.143512234733741,1658.31422251903
0.140188512416226,1658.32422251903
0.137907276548374,1658.33422251903
0.135050668784565,1658.34422251903
0.131035663662091,1658.35422251903
0.12477947745692,1658.36422251903
0.115888256731746,1658.37422251903
0.105552339430253,1658.38422251903
0.0929339153586328,1658.39422251903
0.0805210845831206,1658.40422251903
0.0686292810665929,1658.41422251903
0.0591714634195298,1658.42422251903
0.0527589096102394,1658.43422251903
0.0483256120591464,1658.44422251903
0.0468736193238944,1658.45422251903
0.046923056668198,1658.46422251903
0.0477450076283238,1658.47422251903
0.0491293665906275,1658.48422251903
0.0504992164996553,1658.49422251903
0.0520218183598738,1658.50422251903
0.0528298457740285,1658.51422251903
0.0521750600162375,1658.52422251903
0.0490273919135901,1658.53422251903
0.043703492862383,1658.54422251903
0.0360401268384663,1658.55422251903
0.0272847246572137,1658.56422251903
0.0163976917299078,1658.57422251903
0.0042191476659984,1658.58422251903
-0.00869977837009048,1658.59422251903
-0.0228658891789939,1658.60422251903
-0.0374511651945071,1658.61422251903
-0.0523223230140857,1658.62422251903
-0.0676304584828233,1658.63422251903
-0.0837095191826348,1658.64422251903
-0.100033739317845,1658.65422251903
-0.115935247565672,1658.66422251903
-0.132231605891179,1658.67422251903
-0.148624462418282,1658.68422251903
-0.164604214860784,1658.69422251903
-0.18107260827555,1658.70422251903
-0.197750294917371,1658.71422251903
-0.214500701959692,1658.72422251903
-0.23208714295714,1658.73422251903
-0.249300013070635,1658.74422251903
-0.266294906936067,1658.75422251903
-0.282496466831005,1658.76422251903
-0.297730926525832,1658.77422251903
-0.311750266717742,1658.78422251903
-0.324684357065873,1658.79422251903
-0.337635871170452,1658.80422251903
-0.350373611850773,1658.81422251903
-0.363306604956923,1658.82422251903
-0.376539496859114,1658.83422251903
-0.390204948112367,1658.84422251903
-0.403740575480852,1658.85422251903
-0.417092230908632,1658.86422251903
-0.42983596500687,1658.87422251903
-0.442457842665371,1658.88422251903
-0.454950312646459,1658.89422251903
-0.466970011352245,1658.90422251903
-0.47860557397365,1658.91422251903
-0.489486541655037,1658.92422251903
-0.500542870785637,1658.93422251903
-0.511739695919755,1658.94422251903
-0.523199605974681,1658.95422251903
-0.534839767279135,1658.96422251903
-0.546938338622766,1658.97422251903
-0.559164243074804,1658.98422251903
-0.571502862799332,1658.99422251903
-0.582757372376026,1659.00422251903
-0.591782470013348,1659.01422251903
-0.596227034935375,1659.02422251903
-0.592622936563314,1659.03422251903
-0.576515474359955,1659.04422251903
-0.544342333130829,1659.05422251903
-0.495197283147839,1659.06422251903
-0.430560429724413,1659.07422251903
-0.354488806536489,1659.08422251903
-0.273451085605034,1659.09422251903
-0.194743771456656,1659.10422251903
-0.125710176470575,1659.11422251903
-0.0716489808928448,1659.12422251903
-0.0352383130382483,1659.13422251903
-0.0157711271243049,1659.14422251903
-0.0103517072875262,1659.15422251903
-0.0153171922510859,1659.16422251903
-0.0261302215859805,1659.17422251903
-0.0406413252928099,1659.18422251903
-0.0560804441712629,1659.19422251903
-0.0706374811328681,1659.20422251903
-0.084107715169561,1659.21422251903
-0.0955464687920077,1659.22422251903
-0.104810505442554,1659.23422251903
-0.112426913172592,1659.24422251903
-0.118025291494019,1659.25422251903
-0.122688308179735,1659.26422251903
-0.126088565814793,1659.27422251903
-0.129621976183262,1659.28422251903
-0.133641999451663,1659.29422251903
-0.139313343677912,1659.30422251903
-0.146719421136852,1659.31422251903
-0.156288238261439,1659.32422251903
-0.167633244596183,1659.33422251903
-0.179679877946712,1659.34422251903
-0.191968038199632,1659.35422251903
-0.203861182971828,1659.36422251903
-0.214490643318684,1659.37422251903
-0.223770579916995,1659.38422251903
-0.231819987342457,1659.39422251903
-0.238752764021673,1659.40422251903
-0.244766566624498,1659.41422251903
-0.249020358142729,1659.42422251903
-0.252903637591572,1659.43422251903
-0.256819816313961,1659.44422251903
-0.260850309006332,1659.45422251903
-0.265291241771788,1659.46422251903
-0.269992042559132,1659.47422251903
-0.275028706476566,1659.48422251903
-0.28012050302364,1659.49422251903
-0.286078940929384,1659.50422251903
-0.293033753621294,1659.51422251903
-0.300664102770288,1659.52422251903
-0.309796122891717,1659.53422251903
-0.319049829734967,1659.54422251903
-0.329472424742516,1659.55422251903
-0.339788264496735,1659.56422251903
-0.350344956357626,1659.57422251903
-0.361119670106735,1659.58422251903
-0.371979160030831,1659.59422251903
-0.38328847553526,1659.60422251903
-0.39552946205195,1659.61422251903
-0.408142957155544,1659.62422251903
-0.42092127407673,1659.63422251903
-0.434409683484401,1659.64422251903
-0.44787403861371,1659.65422251903
-0.461593468760864,1659.66422251903
-0.474581615330017,1659.67422251903
-0.487053948374675,1659.68422251903
-0.498425312838824,1659.69422251903
-0.509546164378613,1659.70422251903
-0.520430991370992,1659.71422251903
-0.531018714670767,1659.72422251903
-0.542207443430566,1659.73422251903
-0.553042051961819,1659.74422251903
-0.563587368014929,1659.75422251903
-0.574311309221932,1659.76422251903
-0.584981999533277,1659.77422251903
-0.595900616259684,1659.78422251903
-0.606569127680795,1659.79422251903
-0.617578424094223,1659.80422251903
-0.628665621265932,1659.81422251903
-0.639600386003406,1659.82422251903
-0.650233902628126,1659.83422251903
-0.660126876415946,1659.84422251903
-0.669394318778056,1659.85422251903
-0.677944706352911,1659.86422251903
-0.685534572014358,1659.87422251903
-0.693356779118746,1659.88422251903
-0.700882106579219,1659.89422251903
-0.709163231667837,1659.90422251903
-0.717246754756376,1659.91422251903
-0.725381844038534,1659.92422251903
-0.734452902529303,1659.93422251903
-0.743521246053758,1659.94422251903
-0.752911525265474,1659.95422251903
-0.761707742637989,1659.96422251903
-0.769713013945494,1659.97422251903
-0.775880700927493,1659.98422251903
-0.777999234982561,1659.99422251903
-0.772931954623221,1660.00422251903
-0.757232099806063,1660.01422251903
-0.729687393214277,1660.02422251903
-0.691383418522814,1660.03422251903
-0.64472497034733,1660.04422251903
-0.594120072109811,1660.05422251903
-0.543908185919852,1660.06422251903
-0.497228419125693,1660.07422251903
-0.45741160359915,1660.08422251903
-0.425637570578544,1660.09422251903
-0.402835770418991,1660.10422251903
-0.38768520420593,1660.11422251903
-0.379527687669267,1660.12422251903
-0.377498223335698,1660.13422251903
-0.37962707052794,1660.14422251903
-0.384414449641769,1660.15422251903
-0.391691185650578,1660.16422251903
-0.399676774996414,1660.17422251903
-0.407601047680171,1660.18422251903
-0.415130566187764,1660.19422251903
-0.422021771123263,1660.20422251903
-0.428321760999916,1660.21422251903
-0.434417347280337,1660.22422251903
-0.439924842768932,1660.23422251903
-0.445794765936032,1660.24422251903
-0.451627618442439,1660.25422251903
-0.458072304515833,1660.26422251903
-0.464909889569377,1660.27422251903
-0.472395069992388,1660.28422251903
-0.480462083673247,1660.29422251903
-0.488306201248169,1660.30422251903
-0.496115760170733,1660.31422251903
-0.502456112063813,1660.32422251903
-0.507808649204363,1660.33422251903
-0.512608379419357,1660.34422251903
-0.516266061058778,1660.35422251903
-0.51965128284601,1660.36422251903
-0.522164451733273,1660.37422251903
-0.523575875045487,1660.38422251903
-0.524053034705724,1660.39422251903
-0.524218856592431,1660.40422251903
-0.524172040700994,1660.41422251903
-0.524695901186377,1660.42422251903
-0.525958754702107,1660.43422251903
-0.527213881436567,1660.44422251903
-0.529418000366348,1660.45422251903
-0.532139359372609,1660.46422251903
-0.535892423771884,1660.47422251903
-0.54059008627799,1660.48422251903
-0.545900034526468,1660.49422251903
-0.551876415890352,1660.50422251903
-0.557799302725548,1660.51422251903
-0.563640399336404,1660.52422251903
-0.569278884611341,1660.53422251903
-0.574866899201947,1660.54422251903
-0.580271587392914,1660.55422251903
-0.586084102495877,1660.56422251903
-0.592904023422618,1660.57422251903
-0.600302383047177,1660.58422251903
-0.608394350169338,1660.59422251903
-0.617208047173901,1660.60422251903
-0.626222381329196,1660.61422251903
-0.634773615572083,1660.62422251903
-0.643104234390876,1660.63422251903
-0.650744841840682,1660.64422251903
-0.657538646382414,1660.65422251903
-0.664166891353135,1660.66422251903
-0.670316192382193,1660.67422251903
-0.676108725111658,1660.68422251903
-0.682336487604798,1660.69422251903
-0.688481311539037,1660.70422251903
-0.694971807569775,1660.71422251903
-0.701392733794945,1660.72422251903
-0.707905722784475,1660.73422251903
-0.714547972930524,1660.74422251903
-0.721229373513351,1660.75422251903
-0.728039426485955,1660.76422251903
-0.734621101614707,1660.77422251903
-0.741152886314244,1660.78422251903
-0.747308408767828,1660.79422251903
-0.753171517649915,1660.80422251903
-0.759202042611187,1660.81422251903
-0.765413750537344,1660.82422251903
-0.771053869621545,1660.83422251903
-0.777317283228048,1660.84422251903
-0.783596961247232,1660.85422251903
-0.790380003141707,1660.86422251903
-0.797303999477249,1660.87422251903
-0.804419524495847,1660.88422251903
-0.811316121952811,1660.89422251903
-0.817533255039723,1660.90422251903
-0.82381909433548,1660.91422251903
-0.829443839745753,1660.92422251903
-0.834981070993234,1660.93422251903
-0.840910158578904,1660.94422251903
-0.847182740191313,1660.95422251903
-0.852215976544386,1660.96422251903
-0.854452142061461,1660.97422251903
-0.850505972311508,1660.98422251903
-0.836982344307749,1660.99422251903
-0.812818538436583,1661.00422251903
-0.780049262117908,1661.01422251903
-0.741583536350158,1661.02422251903
-0.700886026232492,1661.03422251903
-0.662347213330752,1661.04422251903
-0.627880177191256,1661.05422251903
-0.599664308898975,1661.06422251903
-0.577736030790474,1661.07422251903
-0.562090984513072,1661.08422251903
-0.552013702675368,1661.09422251903
-0.545506900221487,1661.10422251903
-0.542654346295358,1661.11422251903
-0.542345363082152,1661.12422251903
-0.543820322455662,1661.13422251903
-0.54631061893738,1661.14422251903
-0.549212142449541,1661.15422251903
-0.552312534499349,1661.16422251903
-0.555695841170006,1661.17422251903
-0.55872542244836,1661.18422251903
-0.561707413949526,1661.19422251903
-0.56420678684592,1661.20422251903
-0.56636368332749,1661.21422251903
-0.568384376941896,1661.22422251903
-0.571018508944475,1661.23422251903
-0.57457341774115,1661.24422251903
-0.579455863765242,1661.25422251903
-0.585089304347004,1661.26422251903
-0.591399705853764,1661.27422251903
-0.597861863616385,1661.28422251903
-0.60323817954556,1661.29422251903
-0.607561856510872,1661.30422251903
-0.610451180014632,1661.31422251903
-0.611606081711231,1661.32422251903
-0.611653813162759,1661.33422251903
-0.611496132804855,1661.34422251903
-0.610532908726763,1661.35422251903
-0.609900811749895,1661.36422251903
-0.608902711280432,1661.37422251903
-0.608260404373546,1661.38422251903
-0.607618904962424,1661.39422251903
-0.606964359631919,1661.40422251903
-0.606846096333484,1661.41422251903
-0.607448553509071,1661.42422251903
-0.608807519399922,1661.43422251903
-0.611158160643161,1661.44422251903
-0.613477008894129,1661.45422251903
-0.616583749400227,1661.46422251903
-0.619739264897648,1661.47422251903
-0.623553141048537,1661.48422251903
-0.627665779930405,1661.49422251903
-0.63150244263903,1661.50422251903
-0.635669502977689,1661.51422251903
-0.640277753061599,1661.52422251903
-0.644831520895129,1661.53422251903
-0.64928539842338,1661.54422251903
-0.654067452259016,1661.55422251903
-0.658903735530155,1661.56422251903
-0.664320779991316,1661.57422251903
-0.669975514273615,1661.58422251903
-0.675493983009103,1661.59422251903
-0.681712114679624,1661.60422251903
-0.688118829859288,1661.61422251903
-0.693135451132163,1661.62422251903
-0.69928613389654,1661.63422251903
-0.704837423072501,1661.64422251903
-0.708503502492746,1661.65422251903
-0.712169779847116,1661.66422251903
-0.717160306086013,1661.67422251903
-0.723335162875417,1661.68422251903
-0.729543781363734,1661.69422251903
-0.734983802367661,1661.70422251903
-0.74023559198898,1661.71422251903
-0.744336934290938,1661.72422251903
-0.74878021930228,1661.73422251903
-0.753397785832064,1661.74422251903
-0.758099388298745,1661.75422251903
-0.762634806146464,1661.76422251903
-0.766652417365878,1661.77422251903
-0.770299646998873,1661.78422251903
-0.774030729337988,1661.79422251903
-0.778387897631072,1661.80422251903
-0.782497339034303,1661.81422251903
-0.787091551600637,1661.82422251903
-0.79173960444989,1661.83422251903
-0.796643793537466,1661.84422251903
-0.801312939416293,1661.85422251903
-0.805563072481371,1661.86422251903
-0.810057221420704,1661.87422251903
-0.814235975148598,1661.88422251903
-0.817284031898591,1661.89422251903
-0.817789380117598,1661.90422251903
-0.812282464780492,1661.91422251903
-0.798546687491961,1661.92422251903
-0.775110736427862,1661.93422251903
-0.742257711198813,1661.94422251903
-0.701766033803324,1661.95422251903
-0.658807279809806,1661.96422251903
-0.617309711803442,1661.97422251903
-0.579831148864824,1661.98422251903
-0.548747738420777,1661.99422251903
-0.524484825066518,1662.00422251903
-0.50600391210536,1662.01422251903
-0.493187779198612,1662.02422251903
-0.484024236011706,1662.03422251903
-0.478159059783777,1662.04422251903
-0.474480179349531,1662.05422251903
-0.472485941032763,1662.06422251903
-0.472321530997528,1662.07422251903
-0.472935500467887,1662.08422251903
-0.47446309309187,1662.09422251903
-0.475718328816414,1662.10422251903
-0.476803945439668,1662.11422251903
-0.476856247168822,1662.12422251903
-0.476606802886955,1662.13422251903
-0.476466200915773,1662.14422251903
-0.476817601591782,1662.15422251903
-0.478740907556473,1662.16422251903
-0.481507483612501,1662.17422251903
-0.485640943264918,1662.18422251903
-0.490387667808959,1662.19422251903
-0.495232546727815,1662.20422251903
-0.499316019524559,1662.21422251903
-0.502673646473594,1662.22422251903
-0.504661524498752,1662.23422251903
-0.50489884037334,1662.24422251903
-0.504393780053732,1662.25422251903
-0.502670956703739,1662.26422251903
-0.499891558286038,1662.27422251903
-0.496572360328643,1662.28422251903
-0.49266928501038,1662.29422251903
-0.488652888782886,1662.30422251903
-0.485339282738945,1662.31422251903
-0.482288840449042,1662.32422251903
-0.479456887524933,1662.33422251903
-0.477518526634204,1662.34422251903
-0.475950051246317,1662.35422251903
-0.474890191544393,1662.36422251903
-0.473609476768872,1662.37422251903
-0.472900642131889,1662.38422251903
-0.473012374939189,1662.39422251903
-0.473961254805419,1662.40422251903
-0.475723874053062,1662.41422251903
-0.478015468537409,1662.42422251903
-0.48100205002089,1662.43422251903
-0.483879709131461,1662.44422251903
-0.487200618277218,1662.45422251903
-0.49029616555241,1662.46422251903
-0.493921764550886,1662.47422251903
-0.497774716487662,1662.48422251903
-0.501674074731652,1662.49422251903
-0.505759055646164,1662.50422251903
-0.509374852534088,1662.51422251903
-0.513213557708459,1662.52422251903
-0.516873655853422,1662.53422251903
-0.520280333630135,1662.54422251903
-0.523772603348826,1662.55422251903
-0.527113339091509,1662.56422251903
-0.530882504970886,1662.57422251903
-0.534485188933636,1662.58422251903
-0.538135516565851,1662.59422251903
-0.541784103073174,1662.60422251903
-0.544869394960005,1662.61422251903
-0.548356202300798,1662.62422251903
-0.551149962149014,1662.63422251903
-0.55380255915362,1662.64422251903
-0.557308665083962,1662.65422251903
-0.560468310778801,1662.66422251903
-0.563634868196246,1662.67422251903
-0.567324460218457,1662.68422251903
-0.570878041479807,1662.69422251903
-0.574316815038924,1662.70422251903
-0.578090276033731,1662.71422251903
-0.582300370753343,1662.72422251903
-0.586324442854754,1662.73422251903
-0.589741813991546,1662.74422251903
-0.592926092184901,1662.75422251903
-0.596062216547588,1662.76422251903
-0.599185977908785,1662.77422251903
-0.602718591857109,1662.78422251903
-0.606360755156219,1662.79422251903
-0.609896972457002,1662.80422251903
-0.612850614143117,1662.81422251903
-0.613122208322696,1662.82422251903
-0.60836016654762,1662.83422251903
-0.594807730684411,1662.84422251903
-0.569796625524575,1662.85422251903
-0.532960312231402,1662.86422251903
-0.4857958710061,1662.87422251903
-0.432367519386661,1662.88422251903
-0.375704529435693,1662.89422251903
-0.321279247805661,1662.90422251903
-0.271973760598254,1662.91422251903
-0.22863075650405,1662.92422251903
-0.192281454151851,1662.93422251903
-0.163058453563879,1662.94422251903
-0.140505573599488,1662.95422251903
-0.124024418236247,1662.96422251903
-0.112907857135504,1662.97422251903
-0.106111960905498,1662.98422251903
-0.102360824738014,1662.99422251903
-0.100506430168313,1663.00422251903
-0.0992157021748726,1663.01422251903
-0.0982304307122778,1663.02422251903
-0.0966210547287964,1663.03422251903
-0.0947288528773452,1663.04422251903
-0.092121780045828,1663.05422251903
-0.0891623074740596,1663.06422251903
-0.0857467194483621,1663.07422251903
-0.0822099678761778,1663.08422251903
-0.0793951711710142,1663.09422251903
-0.077655963332988,1663.10422251903
-0.0783839262885806,1663.11422251903
-0.0806239178055835,1663.12422251903
-0.0840581433425918,1663.13422251903
-0.0881511013068387,1663.14422251903
-0.0922116376103817,1663.15422251903
-0.0959369443987168,1663.16422251903
-0.0986648700548273,1663.17422251903
-0.0998559230020156,1663.18422251903
-0.0992200496512198,1663.19422251903
-0.0972576340468626,1663.20422251903
-0.0944137235399284,1663.21422251903
-0.0910919732775295,1663.22422251903
-0.0872276778676406,1663.23422251903
-0.0836848140428394,1663.24422251903
-0.0807974727036846,1663.25422251903
-0.078599372773253,1663.26422251903
-0.0768349809579203,1663.27422251903
-0.0757276622697783,1663.28422251903
-0.0760255229214197,1663.29422251903
-0.0769794430416585,1663.30422251903
-0.0787967119545078,1663.31422251903
-0.0808638778518922,1663.32422251903
-0.0831932338032499,1663.33422251903
-0.0864038413855665,1663.34422251903
-0.0899579850353569,1663.35422251903
-0.0942431796446979,1663.36422251903
-0.0987845936233804,1663.37422251903
-0.103149670388121,1663.38422251903
-0.108580761351844,1663.39422251903
-0.114539421166912,1663.40422251903
-0.120204079870858,1663.41422251903
-0.126556600597856,1663.42422251903
-0.13275089562926,1663.43422251903
-0.138963310790966,1663.44422251903
-0.145332955957932,1663.45422251903
-0.151823387006563,1663.46422251903
-0.158684905686522,1663.47422251903
-0.165697288477746,1663.48422251903
-0.173058223696044,1663.49422251903
-0.179948692481139,1663.50422251903
-0.186891462040602,1663.51422251903
-0.193484839165474,1663.52422251903
-0.199688601060144,1663.53422251903
-0.206007916687679,1663.54422251903
-0.211653194551328,1663.55422251903
-0.217216613072851,1663.56422251903
-0.222859839640653,1663.57422251903
-0.229186278381777,1663.58422251903
-0.235644596144459,1663.59422251903
-0.242076521026249,1663.60422251903
-0.248630192713925,1663.61422251903
-0.25505844496357,1663.62422251903
-0.261093370314232,1663.63422251903
-0.266857098389732,1663.64422251903
-0.272814675277152,1663.65422251903
-0.278925462301045,1663.66422251903
-0.284125239286248,1663.67422251903
-0.28951493133318,1663.68422251903
-0.29435072885079,1663.69422251903
-0.298954966788093,1663.70422251903
-0.303596275405864,1663.71422251903
-0.307793618225164,1663.72422251903
-0.313047137578312,1663.73422251903
-0.319025137564443,1663.74422251903
-0.325652529372012,1663.75422251903
-0.332498460064153,1663.76422251903
-0.338758676730714,1663.77422251903
-0.344334003395536,1663.78422251903
-0.348783755798602,1663.79422251903
-0.352592159860785,1663.80422251903
-0.353709212471858,1663.81422251903
-0.348335003716658,1663.82422251903
-0.332561159574705,1663.83422251903
-0.302329691605995,1663.84422251903
-0.256958281017491,1663.85422251903
-0.197964056629024,1663.86422251903
-0.129831883043034,1663.87422251903
-0.0572046383795821,1663.88422251903
0.0151679464717498,1663.89422251903
0.0826535920135531,1663.90422251903
0.141968579916963,1663.91422251903
0.191069119793748,1663.92422251903
0.228719243695829,1663.93422251903
0.255761418005664,1663.94422251903
0.272949316937078,1663.95422251903
0.282498109183966,1663.96422251903
0.285955022568212,1663.97422251903
0.28529466526325,1663.98422251903
0.282864986439437,1663.99422251903
0.279064943408225,1664.00422251903
0.275207582836207,1664.01422251903
0.271467380105802,1664.02422251903
0.268447003205207,1664.03422251903
0.266270140922733,1664.04422251903
0.264901198434207,1664.05422251903
0.264442098123851,1664.06422251903
0.264221090866308,1664.07422251903
0.263554091440791,1664.08422251903
0.261635796538332,1664.09422251903
0.257901540845146,1664.10422251903
0.25248065471553,1664.11422251903
0.245829058605944,1664.12422251903
0.238121497897177,1664.13422251903
0.23052421491603,1664.14422251903
0.223787792190554,1664.15422251903
0.218461110648759,1664.16422251903
0.214471783499797,1664.17422251903
0.211932502074891,1664.18422251903
0.21104344233752,1664.19422251903
0.210954736789411,1664.20422251903
0.211914914776743,1664.21422251903
0.213944438088014,1664.22422251903
0.215796469952334,1664.23422251903
0.217855375782761,1664.24422251903
0.219218551072613,1664.25422251903
0.219585902533957,1664.26422251903
0.218850248288598,1664.27422251903
0.217672006230641,1664.28422251903
0.215750258249739,1664.29422251903
0.21334898907529,1664.30422251903
0.209924455494359,1664.31422251903
0.205245988004881,1664.32422251903
0.199650071873522,1664.33422251903
0.192542690175172,1664.34422251903
0.185341939027447,1664.35422251903
0.177024102988579,1664.36422251903
0.168618296956387,1664.37422251903
0.160167825676075,1664.38422251903
0.151008085718359,1664.39422251903
0.141503155350524,1664.40422251903
0.131048073489615,1664.41422251903
0.120086731513051,1664.42422251903
0.108499182165406,1664.43422251903
0.0972767153958896,1664.44422251903
0.0858992177580935,1664.45422251903
0.0749296674695932,1664.46422251903
0.0641521301569621,1664.47422251903
0.0536156633447195,1664.48422251903
0.0434219784493807,1664.49422251903
0.0334457332071403,1664.50422251903
0.023068429547161,1664.51422251903
0.0128726276875201,1664.52422251903
0.00324282473900325,1664.53422251903
-0.0055899163274937,1664.54422251903
-0.0150842975004895,1664.55422251903
-0.0240550973389166,1664.56422251903
-0.0323108365465511,1664.57422251903
-0.0404016370018563,1664.58422251903
-0.048300323411464,1664.59422251903
-0.0564509997039636,1664.60422251903
-0.0646293193397504,1664.61422251903
-0.0730043017214043,1664.62422251903
-0.0815164903773654,1664.63422251903
-0.08988996430729,1664.64422251903
-0.0987021834566467,1664.65422251903
-0.106646119209813,1664.66422251903
-0.114144011526254,1664.67422251903
-0.121284980489692,1664.68422251903
-0.127596968466837,1664.69422251903
-0.134263919897279,1664.70422251903
-0.141046317396325,1664.71422251903
-0.148136828412636,1664.72422251903
-0.155708778248987,1664.73422251903
-0.163543339309844,1664.74422251903
-0.17091697510764,1664.75422251903
-0.178457537015027,1664.76422251903
-0.185602400389045,1664.77422251903
-0.192248169738016,1664.78422251903
-0.199726001322728,1664.79422251903
-0.206914664759727,1664.80422251903
-0.213818088133762,1664.81422251903
-0.22138265668647,1664.82422251903
-0.228484622645689,1664.83422251903
-0.233705909169519,1664.84422251903
-0.235061010137792,1664.85422251903
-0.227279223199697,1664.86422251903
-0.206463268935228,1664.87422251903
-0.168965798577345,1664.88422251903
-0.11473776771966,1664.89422251903
-0.0450528544863424,1664.90422251903
0.0354006345698724,1664.91422251903
0.120614993368943,1664.92422251903
0.205340057332733,1664.93422251903
0.283754439425625,1664.94422251903
0.351684130437179,1664.95422251903
0.406358068149943,1664.96422251903
0.4466791570579,1664.97422251903
0.473072579399476,1664.98422251903
0.486431433558617,1664.99422251903
0.490046177926192,1665.00422251903
0.486146242370857,1665.01422251903
0.476644039982514,1665.02422251903
0.464721650177945,1665.03422251903
0.451892766197559,1665.04422251903
0.439982879171564,1665.05422251903
0.429623041221264,1665.06422251903
0.420934351969995,1665.07422251903
0.414727646909778,1665.08422251903
0.41026304797081,1665.09422251903
0.406125022972173,1665.10422251903
0.402445277525737,1665.11422251903
0.398020018767742,1665.12422251903
0.392009192388823,1665.13422251903
0.38479889535862,1665.14422251903
0.376421435476536,1665.15422251903
0.366582143797675,1665.16422251903
0.356341589555758,1665.17422251903
0.345985940907227,1665.18422251903
0.336920154642497,1665.19422251903
0.329864386433894,1665.20422251903
0.324976540943448,1665.21422251903
0.322108389101232,1665.22422251903
0.320903681431385,1665.23422251903
0.320885710350049,1665.24422251903
0.321662934810878,1665.25422251903
0.322729630151333,1665.26422251903
0.323236899460611,1665.27422251903
0.323467898192469,1665.28422251903
0.322949043064701,1665.29422251903
0.322294820440366,1665.30422251903
0.320434093704311,1665.31422251903
0.317390348457197,1665.32422251903
0.312818482378014,1665.33422251903
0.30689335853474,1665.34422251903
0.300354379199023,1665.35422251903
0.292730450037823,1665.36422251903
0.284543385523567,1665.37422251903
0.275628075716451,1665.38422251903
0.265970988424155,1665.39422251903
0.255260161071637,1665.40422251903
0.243996760003527,1665.41422251903
0.232003071274,1665.42422251903
0.21994569370474,1665.43422251903
0.208037524407203,1665.44422251903
0.195724919328699,1665.45422251903
0.183636806587797,1665.46422251903
0.171428284695295,1665.47422251903
0.159098134792867,1665.48422251903
0.146563232346776,1665.49422251903
0.133819882278986,1665.50422251903
0.120669998066646,1665.51422251903
0.107646557863312,1665.52422251903
0.0945981233683551,1665.53422251903
0.0821509415354757,1665.54422251903
0.0699392875765257,1665.55422251903
0.0574279046378938,1665.56422251903
0.0454077109855337,1665.57422251903
0.0334421389178494,1665.58422251903
0.0216376113890171,1665.59422251903
0.0101895040178317,1665.60422251903
-0.00100850464640687,1665.61422251903
-0.0116955566103133,1665.62422251903
-0.0220957116440082,1665.63422251903
-0.0321402500062192,1665.64422251903
-0.042292221919697,1665.65422251903
-0.0519768534763091,1665.66422251903
-0.0610316802468574,1665.67422251903
-0.069501862828038,1665.68422251903
-0.0784676234650714,1665.69422251903
-0.0876807210920253,1665.70422251903
-0.0978825613085557,1665.71422251903
-0.108512931952472,1665.72422251903
-0.118976671471934,1665.73422251903
-0.12857543210029,1665.74422251903
-0.137350905626735,1665.75422251903
-0.145818488103644,1665.76422251903
-0.15405687129868,1665.77422251903
-0.162615602223205,1665.78422251903
-0.170748955479571,1665.79422251903
-0.178838476536403,1665.80422251903
-0.186779660230283,1665.81422251903
-0.194039903550422,1665.82422251903
-0.200998675351704,1665.83422251903
-0.208222011418134,1665.84422251903
-0.214349519886339,1665.85422251903
-0.21876465967526,1665.86422251903
-0.216814088361184,1665.87422251903
-0.204686785226916,1665.88422251903
-0.177013657465643,1665.89422251903
-0.13127997356663,1665.90422251903
-0.0676527760006903,1665.91422251903
0.010988699937779,1665.92422251903
0.0989807319158433,1665.93422251903
0.191038830384351,1665.94422251903
0.279962493503423,1665.95422251903
0.359868665628599,1665.96422251903
0.426222818688146,1665.97422251903
0.476763772559667,1665.98422251903
0.509777211532534,1665.99422251903
0.526738042941956,1666.00422251903
0.530653777562576,1666.01422251903
0.525096359436197,1666.02422251903
0.513553556285398,1666.03422251903
0.49927893318307,1666.04422251903
0.484056448059153,1666.05422251903
0.4693337565433,1666.06422251903
0.455283491563748,1666.07422251903
0.442230272163435,1666.08422251903
0.430546465369134,1666.09422251903
0.420026430681301,1666.10422251903
0.410453444872488,1666.11422251903
0.401840317329854,1666.12422251903
0.393368000960625,1666.13422251903
0.384360183583202,1666.14422251903
0.373968609955878,1666.15422251903
0.362208004448103,1666.16422251903
0.349836413109417,1666.17422251903
0.336974612207236,1666.18422251903
0.325003938422472,1666.19422251903
0.314736241433719,1666.20422251903
0.306517253182771,1666.21422251903
0.301149065377416,1666.22422251903
0.298635348936389,1666.23422251903
0.298722284482252,1666.24422251903
0.301034550965719,1666.25422251903
0.304944328974393,1666.26422251903
0.310003264802509,1666.27422251903
0.3155754437685,1666.28422251903
0.321039113674375,1666.29422251903
0.324927015484375,1666.30422251903
0.327479522205668,1666.31422251903
0.327751498753233,1666.32422251903
0.326359036711473,1666.33422251903
0.323818252865036,1666.34422251903
0.319516552274693,1666.35422251903
0.313808281977466,1666.36422251903
0.30652371278352,1666.37422251903
0.298017836603937,1666.38422251903
0.28853654739743,1666.39422251903
0.277898708904141,1666.40422251903
0.266879737975064,1666.41422251903
0.255934089145641,1666.42422251903
0.244330610318984,1666.43422251903
0.232487043957888,1666.44422251903
0.220542378830272,1666.45422251903
0.208225611387977,1666.46422251903
0.194963257411024,1666.47422251903
0.181293713885253,1666.48422251903
0.167481729294267,1666.49422251903
0.153452706442938,1666.50422251903
0.139658314639,1666.51422251903
0.126848004439984,1666.52422251903
0.114440658701165,1666.53422251903
0.102443380990141,1666.54422251903
0.0902867311940302,1666.55422251903
0.0784328136036815,1666.56422251903
0.0669196490776334,1666.57422251903
0.055543481438609,1666.58422251903
0.0448640280081719,1666.59422251903
0.0339749748497622,1666.60422251903
0.0237526567696604,1666.61422251903
0.0136267711425986,1666.62422251903
0.00361022578880036,1666.63422251903
-0.00582918309658276,1666.64422251903
-0.0151140919042348,1666.65422251903
-0.0242954722361851,1666.66422251903
-0.0337346663288197,1666.67422251903
-0.0427655048171654,1666.68422251903
-0.0517965157483832,1666.69422251903
-0.0606211876307541,1666.70422251903
-0.0687929199032568,1666.71422251903
-0.0767524591259236,1666.72422251903
-0.0842486682963756,1666.73422251903
-0.0915362091501206,1666.74422251903
-0.0987490225591105,1666.75422251903
-0.106416331628084,1666.76422251903
-0.114224950891299,1666.77422251903
-0.122282965340296,1666.78422251903
-0.13055877938535,1666.79422251903
-0.139454899053566,1666.80422251903
-0.147490333989301,1666.81422251903
-0.151756071004181,1666.82422251903
-0.147522441354081,1666.83422251903
-0.128957208122332,1666.84422251903
-0.0913665685614935,1666.85422251903
-0.0324697693073045,1666.86422251903
0.0463604283955958,1666.87422251903
0.14065825295272,1666.88422251903
0.244330795280986,1666.89422251903
0.349485661847634,1666.90422251903
0.448200759475089,1666.91422251903
0.533007110807901,1666.92422251903
0.599233996217947,1666.93422251903
0.645627348785193,1666.94422251903
0.673304637070548,1666.95422251903
0.685297749820909,1666.96422251903
0.685146984407469,1666.97422251903
0.676523926370707,1666.98422251903
0.662430473088777,1666.99422251903
0.645179995179084,1667.00422251903
0.627236020993491,1667.01422251903
0.609214572338343,1667.02422251903
0.593300804254338,1667.03422251903
0.579529387168441,1667.04422251903
0.568671052674312,1667.05422251903
0.559696222991963,1667.06422251903
0.55257292812747,1667.07422251903
0.545744062373304,1667.08422251903
0.538137570708058,1667.09422251903
0.528612530936247,1667.10422251903
0.517197063268443,1667.11422251903
0.504390050382828,1667.12422251903
0.490338360822441,1667.13422251903
0.476941284439546,1667.14422251903
0.464299388074436,1667.15422251903
0.45362415489316,1667.16422251903
0.445907262130386,1667.17422251903
0.441361182935747,1667.18422251903
0.439750638402715,1667.19422251903
0.441041089406652,1667.20422251903
0.443405087552163,1667.21422251903
0.447253387828796,1667.22422251903
0.451389361264522,1667.23422251903
0.455274989723987,1667.24422251903
0.459313126780512,1667.25422251903
0.461662834302573,1667.26422251903
0.462644170517795,1667.27422251903
0.461946711624756,1667.28422251903
0.459160744375597,1667.29422251903
0.454848564705818,1667.30422251903
0.44934668975506,1667.31422251903
0.441875189500809,1667.32422251903
0.43284336906786,1667.33422251903
0.422145898966668,1667.34422251903
0.41025832717841,1667.35422251903
0.397911213799054,1667.36422251903
0.385166194309592,1667.37422251903
0.371695823921869,1667.38422251903
0.35733529931613,1667.39422251903
0.343495022993135,1667.40422251903
0.329553801402874,1667.41422251903
0.31640149268068,1667.42422251903
0.303024492615479,1667.43422251903
0.289841344117398,1667.44422251903
0.276604248668402,1667.45422251903
0.263350963418293,1667.46422251903
0.250152039691365,1667.47422251903
0.236841325714832,1667.48422251903
0.223585283376136,1667.49422251903
0.210596588264773,1667.50422251903
0.198354014958232,1667.51422251903
0.186423658811049,1667.52422251903
0.174450051702433,1667.53422251903
0.162564263895394,1667.54422251903
0.150678289832963,1667.55422251903
0.139608365413661,1667.56422251903
0.128163689672496,1667.57422251903
0.116810989953384,1667.58422251903
0.106307138328132,1667.59422251903
0.0959705890806387,1667.60422251903
0.0857486384786368,1667.61422251903
0.0757985981657707,1667.62422251903
0.0657939326907937,1667.63422251903
0.0562310069594541,1667.64422251903
0.0463847609661215,1667.65422251903
0.0366469063407527,1667.66422251903
0.0275547316219624,1667.67422251903
0.0180664872539904,1667.68422251903
0.00933536463195932,1667.69422251903
0.00121099919509494,1667.70422251903
-0.00679527731724827,1667.71422251903
-0.0147472996777537,1667.72422251903
-0.0226444358284075,1667.73422251903
-0.0308390024777904,1667.74422251903
-0.0398344159763671,1667.75422251903
-0.0474266251118576,1667.76422251903
-0.0521144827099578,1667.77422251903
-0.0484984333490432,1667.78422251903
-0.0294645095243337,1667.79422251903
0.0103132409245306,1667.80422251903
0.0741882117831821,1667.81422251903
0.162536616592655,1667.82422251903
0.271593825198548,1667.83422251903
0.3940202109562,1667.84422251903
0.52044698122597,1667.85422251903
0.640857397522139,1667.86422251903
0.745481626691977,1667.87422251903
0.827144984250821,1667.88422251903
0.88302731462915,1667.89422251903
0.915282885599128,1667.90422251903
0.92698991118071,1667.91422251903
0.924171617921932,1667.92422251903
0.912115101411601,1667.93422251903
0.895155633986512,1667.94422251903
0.876270655813098,1667.95422251903
0.859136856898579,1667.96422251903
0.843554194612203,1667.97422251903
0.83047065286954,1667.98422251903
0.82018140971512,1667.99422251903
0.812457114137733,1668.00422251903
0.807306747450991,1668.01422251903
0.803441077667145,1668.02422251903
0.800301067773188,1668.03422251903
0.796708002268681,1668.04422251903
0.79133659348059,1668.05422251903
0.783457246484811,1668.06422251903
0.772964856785405,1668.07422251903
0.76058045079049,1668.08422251903
0.74638710248183,1668.09422251903
0.731088608600724,1668.10422251903
0.715526855005525,1668.11422251903
0.700621201410967,1668.12422251903
0.687509640369838,1668.13422251903
0.676582359448819,1668.14422251903
0.667489822269751,1668.15422251903
0.661530136138981,1668.16422251903
0.658078010456876,1668.17422251903
0.656414791050763,1668.18422251903
0.656074590576177,1668.19422251903
0.656006479739028,1668.20422251903
0.655333361028151,1668.21422251903
0.653799508851381,1668.22422251903
0.650409344182097,1668.23422251903
0.644820904403663,1668.24422251903
0.637366713007309,1668.25422251903
0.628813088665599,1668.26422251903
0.619348950464104,1668.27422251903
0.6095198781858,1668.28422251903
0.598643338667491,1668.29422251903
0.586875494071763,1668.30422251903
0.573637564815608,1668.31422251903
0.559346336550122,1668.32422251903
0.543855672362117,1668.33422251903
0.527952999834039,1668.34422251903
0.511625680975237,1668.35422251903
0.494814523278179,1668.36422251903
0.477958375264285,1668.37422251903
0.460847653527664,1668.38422251903
0.443541288213829,1668.39422251903
0.425996085693489,1668.40422251903
0.408694750230711,1668.41422251903
0.390968599491965,1668.42422251903
0.373575952196846,1668.43422251903
0.356738773982585,1668.44422251903
0.340463549513379,1668.45422251903
0.32469927478652,1668.46422251903
0.309137836837585,1668.47422251903
0.293743520792236,1668.48422251903
0.27897465261654,1668.49422251903
0.264390044736981,1668.50422251903
0.25055338842974,1668.51422251903
0.236316448601995,1668.52422251903
0.222314725658258,1668.53422251903
0.209735733311483,1668.54422251903
0.197255709687381,1668.55422251903
0.185226424714962,1668.56422251903
0.17331495393228,1668.57422251903
0.161201678650712,1668.58422251903
0.149566766924616,1668.59422251903
0.138217917472689,1668.60422251903
0.127200615740324,1668.61422251903
0.116895626846476,1668.62422251903
0.106957432697097,1668.63422251903
0.0971107917471007,1668.64422251903
0.0872674727195206,1668.65422251903
0.0776199183403781,1668.66422251903
0.0675201192949333,1668.67422251903
0.0568129912649596,1668.68422251903
0.0460474909216326,1668.69422251903
0.0351651341006239,1668.70422251903
0.0242226202648363,1668.71422251903
0.0137580360475083,1668.72422251903
0.00321658402017978,1668.73422251903
-0.00725723283803779,1668.74422251903
-0.0183709717574824,1668.75422251903
-0.0293566848094385,1668.76422251903
-0.0398704492739787,1668.77422251903
-0.0468273309639554,1668.78422251903
-0.0456894407732504,1668.79422251903
-0.0297223651767159,1668.80422251903
0.00625366418417631,1668.81422251903
0.0652553436525453,1668.82422251903
0.147190841836527,1668.83422251903
0.2485505903617,1668.84422251903
0.363087790407993,1668.85422251903
0.481007278289486,1668.86422251903
0.591270774301603,1668.87422251903
0.684888323591317,1668.88422251903
0.754596389365604,1668.89422251903
0.799381620024949,1668.90422251903
0.820152972406593,1668.91422251903
0.821942816156806,1668.92422251903
0.81027130724294,1668.93422251903
0.791226205047326,1668.94422251903
0.76815908847133,1668.95422251903
0.744832291030493,1668.96422251903
0.722562321405373,1668.97422251903
0.702749511376904,1668.98422251903
0.685453687715735,1668.99422251903
0.670940882435915,1669.00422251903
0.658139117496603,1669.01422251903
0.647833671164024,1669.02422251903
0.638621623599163,1669.03422251903
0.630064507066745,1669.04422251903
0.621879024198377,1669.05422251903
0.612883794630333,1669.06422251903
0.602906368313314,1669.07422251903
0.590974765150464,1669.08422251903
0.577437656518641,1669.09422251903
0.562923195843962,1669.10422251903
0.548617590055153,1669.11422251903
0.534691665550326,1669.12422251903
0.522421576163319,1669.13422251903
0.511910779064767,1669.14422251903
0.503422001635595,1669.15422251903
0.497276024152783,1669.16422251903
0.492694807255426,1669.17422251903
0.489441684013996,1669.18422251903
0.487103493306314,1669.19422251903
0.485643119229579,1669.20422251903
0.483894679945722,1669.21422251903
0.482135556640892,1669.22422251903
0.479870381317168,1669.23422251903
0.476627104841074,1669.24422251903
0.47240356946004,1669.25422251903
0.466418596266017,1669.26422251903
0.459460521348827,1669.27422251903
0.451261993851477,1669.28422251903
0.441246352773201,1669.29422251903
0.430619610868771,1669.30422251903
0.419226422959558,1669.31422251903
0.406930966296265,1669.32422251903
0.394159104817492,1669.33422251903
0.379718786988007,1669.34422251903
0.365345079688082,1669.35422251903
0.349667441382879,1669.36422251903
0.334083126729939,1669.37422251903
0.317976102146166,1669.38422251903
0.301310582384082,1669.39422251903
0.284880261603955,1669.40422251903
0.267564647872532,1669.41422251903
0.250209850345597,1669.42422251903
0.232762266177353,1669.43422251903
0.215872762211953,1669.44422251903
0.199777799296668,1669.45422251903
0.184109799261538,1669.46422251903
0.168933315596701,1669.47422251903
0.153475089267962,1669.48422251903
0.137625000736358,1669.49422251903
0.122483066527338,1669.50422251903
0.107981994102873,1669.51422251903
0.0940707962300903,1669.52422251903
0.0811887180397597,1669.53422251903
0.0689005686303408,1669.54422251903
0.0563078783736973,1669.55422251903
0.0439795391653186,1669.56422251903
0.0306587455935086,1669.57422251903
0.0178277083724063,1669.58422251903
0.00566738647945736,1669.59422251903
-0.00607217367335586,1669.60422251903
-0.0168672299245808,1669.61422251903
-0.0272775773695352,1669.62422251903
-0.0374601385333655,1669.63422251903
-0.0477909560157106,1669.64422251903
-0.0577130777636085,1669.65422251903
-0.0678553651078104,1669.66422251903
-0.0785589647246166,1669.67422251903
-0.0887789415287629,1669.68422251903
-0.0986304880621418,1669.69422251903
-0.10846751906179,1669.70422251903
-0.118229077503595,1669.71422251903
-0.127944874111975,1669.72422251903
-0.137987999731519,1669.73422251903
-0.148018761824002,1669.74422251903
-0.157812856714622,1669.75422251903
-0.167537539802082,1669.76422251903
-0.176884815670017,1669.77422251903
-0.18612678976709,1669.78422251903
-0.19464572942207,1669.79422251903
-0.199904931084291,1669.80422251903
-0.196636998919574,1669.81422251903
-0.180394720351353,1669.82422251903
-0.14635545687432,1669.83422251903
-0.0925680800667468,1669.84422251903
-0.0182464077667951,1669.85422251903
0.0714502480492376,1669.86422251903
0.170698365714079,1669.87422251903
0.272347287565159,1669.88422251903
0.366450975250738,1669.89422251903
0.445602422305913,1669.90422251903
0.504457660772026,1669.91422251903
0.541917681927081,1669.92422251903
0.559141705445574,1669.93422251903
0.559460477167383,1669.94422251903
0.547858757446438,1669.95422251903
0.528820875150836,1669.96422251903
0.506380817460707,1669.97422251903
0.483365156413495,1669.98422251903
0.460801802559622,1669.99422251903
0.440020263429222,1670.00422251903
0.421335902501674,1670.01422251903
0.404546063914182,1670.02422251903
0.389612145324374,1670.03422251903
0.376123014618363,1670.04422251903
0.363785251999031,1670.05422251903
0.352802063943433,1670.06422251903
0.341600016871059,1670.07422251903
0.329996763055262,1670.08422251903
0.31746390047263,1670.09422251903
0.303714776242004,1670.10422251903
0.289454992028931,1670.11422251903
0.274998441356831,1670.12422251903
0.261701682373162,1670.13422251903
0.250209395803264,1670.14422251903
0.241608366503948,1670.15422251903
0.236670535952849,1670.16422251903
0.234777741088744,1670.17422251903
0.235923057339609,1670.18422251903
0.238689806012253,1670.19422251903
0.243116591064726,1670.20422251903
0.247922425328607,1670.21422251903
0.253358390772381,1670.22422251903
0.258147336719402,1670.23422251903
0.261147294264753,1670.24422251903
0.262509589477175,1670.25422251903
0.262307939902021,1670.26422251903
0.259989813921264,1670.27422251903
0.25595522752254,1670.28422251903
0.250497514571686,1670.29422251903
0.243009528769587,1670.30422251903
0.233644501018511,1670.31422251903
0.223720082181196,1670.32422251903
0.213367864851953,1670.33422251903
0.202955781970109,1670.34422251903
0.191806662490552,1670.35422251903
0.180034700928663,1670.36422251903
0.167009292211912,1670.37422251903
0.153855776856331,1670.38422251903
0.139764576670461,1670.39422251903
0.125088834037152,1670.40422251903
0.11024075798847,1670.41422251903
0.0951337217312694,1670.42422251903
0.0804894646558878,1670.43422251903
0.0667600675431234,1670.44422251903
0.0534795122260008,1670.45422251903
0.0406933806384537,1670.46422251903
0.027887384636182,1670.47422251903
0.0155876866898069,1670.48422251903
0.00342006191520996,1670.49422251903
-0.00870247310309754,1670.50422251903
-0.0210963770629615,1670.51422251903
-0.033125495512104,1670.52422251903
-0.0447209130654357,1670.53422251903
-0.0562291678444715,1670.54422251903
-0.0665977942869502,1670.55422251903
-0.0767486182145116,1670.56422251903
-0.0866576764334254,1670.57422251903
-0.0958131182177461,1670.58422251903
-0.10516490240421,1670.59422251903
-0.114391494210106,1670.60422251903
-0.123937859209785,1670.61422251903
-0.133245333626193,1670.62422251903
-0.142814862595733,1670.63422251903
-0.152078557884098,1670.64422251903
-0.160568876236201,1670.65422251903
-0.168096063677112,1670.66422251903
-0.175560900950837,1670.67422251903
-0.182959598081647,1670.68422251903
-0.190573372149848,1670.69422251903
-0.198291610044836,1670.70422251903
-0.206266380187013,1670.71422251903
-0.213905037297583,1670.72422251903
-0.221627959807793,1670.73422251903
-0.229854237311041,1670.74422251903
-0.237862224905969,1670.75422251903
-0.24519836181083,1670.76422251903
-0.248441897112689,1670.77422251903
-0.243482266737661,1670.78422251903
-0.224762224022984,1670.79422251903
-0.188303956231582,1670.80422251903
-0.133602520723423,1670.81422251903
-0.0613075939928662,1670.82422251903
0.0234944059758684,1670.83422251903
0.114909888770951,1670.84422251903
0.205576350202267,1670.85422251903
0.287663730251557,1670.86422251903
0.354632296774415,1670.87422251903
0.402426704029235,1670.88422251903
0.430424020659285,1670.89422251903
0.440524688886548,1670.90422251903
0.436326516450385,1670.91422251903
0.422893375391516,1670.92422251903
0.403772945453064,1670.93422251903
0.382628132906334,1670.94422251903
0.36183981676166,1670.95422251903
0.342395626833425,1670.96422251903
0.325190579545026,1670.97422251903
0.309768391327646,1670.98422251903
0.296073200165931,1670.99422251903
0.284490292878574,1671.00422251903
0.273435656648172,1671.01422251903
0.263415478797519,1671.02422251903
0.252762196829791,1671.03422251903
0.24141512657181,1671.04422251903
0.229563281149571,1671.05422251903
0.216937326002077,1671.06422251903
0.204003886746991,1671.07422251903
0.19117231964451,1671.08422251903
0.179048825813475,1671.09422251903
0.168277095552557,1671.10422251903
0.160087090050804,1671.11422251903
0.1535544354443,1671.12422251903
0.149581536486752,1671.13422251903
0.148064871725818,1671.14422251903
0.148251281866581,1671.15422251903
0.150695668652155,1671.16422251903
0.153988262054647,1671.17422251903
0.158096103322438,1671.18422251903
0.161907998232882,1671.19422251903
0.165033501611848,1671.20422251903
0.167034510523974,1671.21422251903
0.167402883441894,1671.22422251903
0.166263382019369,1671.23422251903
0.163679122390158,1671.24422251903
0.159178985468602,1671.25422251903
0.152839761806706,1671.26422251903
0.145759107582017,1671.27422251903
0.137486008592983,1671.28422251903
0.127988242313621,1671.29422251903
0.11839573209923,1671.30422251903
0.108201177873426,1671.31422251903
0.0975768801588749,1671.32422251903
0.0862036109948159,1671.33422251903
0.0748293292021393,1671.34422251903
0.0630582685485545,1671.35422251903
0.0502312965633096,1671.36422251903
0.0372809051410863,1671.37422251903
0.0243324711323051,1671.38422251903
0.0114637152629374,1671.39422251903
-0.00100806696494456,1671.40422251903
-0.0136043458190769,1671.41422251903
-0.0266814929803824,1671.42422251903
-0.0399526366216523,1671.43422251903
-0.0537588819515888,1671.44422251903
-0.0671783855929605,1671.45422251903
-0.0802075520339659,1671.46422251903
-0.0922143392357991,1671.47422251903
-0.102778166692836,1671.48422251903
-0.112433271573454,1671.49422251903
-0.12123139563025,1671.50422251903
-0.129885096294583,1671.51422251903
-0.138288630608087,1671.52422251903
-0.147003206159068,1671.53422251903
-0.15620438542148,1671.54422251903
-0.165783842432393,1671.55422251903
-0.175362754746962,1671.56422251903
-0.184997370430486,1671.57422251903
-0.194785208689316,1671.58422251903
-0.203758010772356,1671.59422251903
-0.212892769089229,1671.60422251903
-0.222056553478962,1671.61422251903
-0.230711183972967,1671.62422251903
-0.239294184082709,1671.63422251903
-0.247099054818113,1671.64422251903
-0.254396806522696,1671.65422251903
-0.26182536757528,1671.66422251903
-0.269158344839822,1671.67422251903
-0.276680886579972,1671.68422251903
-0.28335265808812,1671.69422251903
-0.290250290437548,1671.70422251903
-0.29677205654601,1671.71422251903
-0.302913196646104,1671.72422251903
-0.30767615732435,1671.73422251903
-0.307954010964278,1671.74422251903
-0.299774871368924,1671.75422251903
-0.277152962979886,1671.76422251903
-0.236146881900312,1671.77422251903
-0.174576660479826,1671.78422251903
-0.0940098513159521,1671.79422251903
0.00162025817798389,1671.80422251903
0.105287756050435,1671.81422251903
0.208520156811197,1671.82422251903
0.302175994130889,1671.83422251903
0.378215115762849,1671.84422251903
0.432718710592109,1671.85422251903
0.465552531571928,1671.86422251903
0.479520374846929,1671.87422251903
0.478940701500175,1671.88422251903
0.469071637504008,1671.89422251903
0.453438612313552,1671.90422251903
0.435910074076101,1671.91422251903
0.418462110638611,1671.92422251903
0.402415299071812,1671.93422251903
0.3884822992488,1671.94422251903
0.376477379905714,1671.95422251903
0.366645018544349,1671.96422251903
0.358611504267736,1671.97422251903
0.352209545210889,1671.98422251903
0.346964985238874,1671.99422251903
0.342800483904013,1672.00422251903
0.338443297349427,1672.01422251903
0.333707961413786,1672.02422251903
0.328084867620937,1672.03422251903
0.320883430358755,1672.04422251903
0.311835425813397,1672.05422251903
0.30188984831335,1672.06422251903
0.291862173572545,1672.07422251903
0.281918348141862,1672.08422251903
0.273659161952379,1672.09422251903
0.266839859615317,1672.10422251903
0.2625179921884,1672.11422251903
0.259975852430585,1672.12422251903
0.2588004880582,1672.13422251903
0.25879011512491,1672.14422251903
0.259622476538519,1672.15422251903
0.261167251892651,1672.16422251903
0.262870201327156,1672.17422251903
0.264135899589859,1672.18422251903
0.265005529278329,1672.19422251903
0.264467917673012,1672.20422251903
0.26244041441867,1672.21422251903
0.259136906349012,1672.22422251903
0.254200691758684,1672.23422251903
0.24793576096073,1672.24422251903
0.240607811761927,1672.25422251903
0.231914355340505,1672.26422251903
0.222537613846278,1672.27422251903
0.212155442425513,1672.28422251903
0.201387258673223,1672.29422251903
0.190051016200441,1672.30422251903
0.178509375964786,1672.31422251903
0.166521384719829,1672.32422251903
0.154570716562894,1672.33422251903
0.142409361300613,1672.34422251903
0.129990726073109,1672.35422251903
0.117618869639062,1672.36422251903
0.105064224951401,1672.37422251903
0.0921046746809585,1672.38422251903
0.0790604711066498,1672.39422251903
0.0658592488548032,1672.40422251903
0.0523158080867372,1672.41422251903
0.0392550375002319,1672.42422251903
0.0266932870320989,1672.43422251903
0.0145001220140193,1672.44422251903
0.00232670060758893,1672.45422251903
-0.00904796032801454,1672.46422251903
-0.0198808550157926,1672.47422251903
-0.0298021203510191,1672.48422251903
-0.0391609229590547,1672.49422251903
-0.0482692241141623,1672.50422251903
-0.0580925509794264,1672.51422251903
-0.0683970675122353,1672.52422251903
-0.0787648599397865,1672.53422251903
-0.0892332548730981,1672.54422251903
-0.0993051332208539,1672.55422251903
-0.108880751863289,1672.56422251903
-0.118141725120287,1672.57422251903
-0.127058702312936,1672.58422251903
-0.135732989639523,1672.59422251903
-0.144309541414905,1672.60422251903
-0.152631055819442,1672.61422251903
-0.161346464590051,1672.62422251903
-0.169693570923405,1672.63422251903
-0.177620646071789,1672.64422251903
-0.185369767965136,1672.65422251903
-0.192984810859159,1672.66422251903
-0.200578081455973,1672.67422251903
-0.208689984910148,1672.68422251903
-0.216291235764448,1672.69422251903
-0.224311241267471,1672.70422251903
-0.231643521842945,1672.71422251903
-0.237136208714081,1672.72422251903
-0.23674011662483,1672.73422251903
-0.224622974371313,1672.74422251903
-0.195723087260418,1672.75422251903
-0.145644878260139,1672.76422251903
-0.0728777981971459,1672.77422251903
0.0200186393880949,1672.78422251903
0.126975387849703,1672.79422251903
0.2396586272182,1672.80422251903
0.347981200752068,1672.81422251903
0.442083998562815,1672.82422251903
0.515973851549831,1672.83422251903
0.566548355370666,1672.84422251903
0.595205113891741,1672.85422251903
0.604477966009493,1672.86422251903
0.599833827119901,1672.87422251903
0.586897927561625,1672.88422251903
0.569141985445695,1672.89422251903
0.549781583409729,1672.90422251903
0.530269162158865,1672.91422251903
0.512178644097414,1672.92422251903
0.496035567429874,1672.93422251903
0.48171669070467,1672.94422251903
0.47026209252262,1672.95422251903
0.461064846267319,1672.96422251903
0.454603940503091,1672.97422251903
0.449599013408024,1672.98422251903
0.445109271516524,1672.99422251903
0.440285740633391,1673.00422251903
0.433922530674802,1673.01422251903
0.426078729686609,1673.02422251903
0.416251933844076,1673.03422251903
0.405267501242775,1673.04422251903
0.392932635471363,1673.05422251903
0.380177722164127,1673.06422251903
0.368667694257901,1673.07422251903
0.358694423159026,1673.08422251903
0.350862986922498,1673.09422251903
0.345614586587217,1673.10422251903
0.343173067216359,1673.11422251903
0.342495732417052,1673.12422251903
0.342989426850512,1673.13422251903
0.34448733743802,1673.14422251903
0.346674109834968,1673.15422251903
0.349241006975551,1673.16422251903
0.350967077582611,1673.17422251903
0.351334031835983,1673.18422251903
0.350032330656608,1673.19422251903
0.347529318835055,1673.20422251903
0.34354595457959,1673.21422251903
0.337894325439775,1673.22422251903
0.330408257052294,1673.23422251903
0.321449601411115,1673.24422251903
0.311494562282975,1673.25422251903
0.300651086454326,1673.26422251903
0.289760530471952,1673.27422251903
0.277955612255313,1673.28422251903
0.265628040600825,1673.29422251903
0.25283215642251,1673.30422251903
0.239160403747342,1673.31422251903
0.22476846347199,1673.32422251903
0.210436487131242,1673.33422251903
0.195847830055891,1673.34422251903
0.181422550731884,1673.35422251903
0.166348020029822,1673.36422251903
0.150962466369945,1673.37422251903
0.135410924710351,1673.38422251903
0.120134699957236,1673.39422251903
0.105435427736951,1673.40422251903
0.0922017902048547,1673.41422251903
0.0798831964368046,1673.42422251903
0.0682244095858616,1673.43422251903
0.0571010759981177,1673.44422251903
0.0460306590579595,1673.45422251903
0.0344957769342757,1673.46422251903
0.0234592409370375,1673.47422251903
0.0121312441313988,1673.48422251903
0.000722087746266562,1673.49422251903
-0.0105937010879595,1673.50422251903
-0.0214310847616784,1673.51422251903
-0.0309726212187725,1673.52422251903
-0.0406900341229543,1673.53422251903
-0.0499146263516813,1673.54422251903
-0.0589491142658936,1673.55422251903
-0.0674544811474065,1673.56422251903
-0.0756926623442398,1673.57422251903
-0.0834467606887057,1673.58422251903
-0.0910002534135304,1673.59422251903
-0.0982541441631535,1673.60422251903
-0.105979551781037,1673.61422251903
-0.113541195408042,1673.62422251903
-0.120934062992849,1673.63422251903
-0.128629367325395,1673.64422251903
-0.136223155247384,1673.65422251903
-0.143918195619382,1673.66422251903
-0.152076897354241,1673.67422251903
-0.159500230852474,1673.68422251903
-0.166554063633533,1673.69422251903
-0.170913529921466,1673.70422251903
-0.168275110849456,1673.71422251903
-0.153211942857388,1673.72422251903
-0.120001473935232,1673.73422251903
-0.0646843986838695,1673.74422251903
0.0134162873366036,1673.75422251903
0.109977826167859,1673.76422251903
0.219752754961879,1673.77422251903
0.332542160154844,1673.78422251903
0.437935555543104,1673.79422251903
0.527432654019813,1673.80422251903
0.594805752987569,1673.81422251903
0.638643928198719,1673.82422251903
0.660471708605445,1673.83422251903
0.664531803950934,1673.84422251903
0.655202430732359,1673.85422251903
0.638187009259526,1673.86422251903
0.616507128256148,1673.87422251903
0.593528652813609,1673.88422251903
0.571211068455013,1673.89422251903
0.55073097022799,1673.90422251903
0.531710407522067,1673.91422251903
0.51602137579495,1673.92422251903
0.502437515443716,1673.93422251903
0.491599568924418,1673.94422251903
0.482811145567109,1673.95422251903
0.475459113236188,1673.96422251903
0.468018127548945,1673.97422251903
0.459876323092083,1673.98422251903
0.450417017171525,1673.99422251903
0.440051009465446,1674.00422251903
0.429368182013447,1674.01422251903
0.419053479573137,1674.02422251903
0.410524899756043,1674.03422251903
0.404436480028878,1674.04422251903
0.401513851841059,1674.05422251903
0.40120981240852,1674.06422251903
0.403012511419207,1674.07422251903
0.406076380664772,1674.08422251903
0.410227242561382,1674.09422251903
0.41418367661856,1674.10422251903
0.416936621788725,1674.11422251903
0.418464489746732,1674.12422251903
0.418346399961833,1674.13422251903
0.416118434737732,1674.14422251903
0.411989842082704,1674.15422251903
0.405578397186996,1674.16422251903
0.397526724893132,1674.17422251903
0.387649901564008,1674.18422251903
0.376155878653778,1674.19422251903
0.363448880593626,1674.20422251903
0.349236183689054,1674.21422251903
0.33484251180917,1674.22422251903
0.319682722595021,1674.23422251903
0.304289841579854,1674.24422251903
0.288653239814594,1674.25422251903
0.272630570565459,1674.26422251903
0.256542407975032,1674.27422251903
0.240499466692914,1674.28422251903
0.224364631099365,1674.29422251903
0.208586205927404,1674.30422251903
0.192865967799658,1674.31422251903
0.177440612004578,1674.32422251903
0.162157866137078,1674.33422251903
0.146863384624502,1674.34422251903
0.13220083666011,1674.35422251903
0.118281810569259,1674.36422251903
0.104632896180517,1674.37422251903
0.0912525023163713,1674.38422251903
0.0778121169812411,1674.39422251903
0.0645239306655771,1674.40422251903
0.050394634786144,1674.41422251903
0.0367851746732084,1674.42422251903
0.0237020827729737,1674.43422251903
0.0107100649140968,1674.44422251903
-0.00216147017855831,1674.45422251903
-0.0148725750847292,1674.46422251903
-0.0275645713250476,1674.47422251903
-0.0399461069475815,1674.48422251903
-0.0514023810808518,1674.49422251903
-0.0626015305669331,1674.50422251903
-0.073155907260592,1674.51422251903
-0.0830545587670507,1674.52422251903
-0.0928482808040234,1674.53422251903
-0.102390771892834,1674.54422251903
-0.112310104246788,1674.55422251903
-0.12305299788792,1674.56422251903
-0.133951453114252,1674.57422251903
-0.144894463539922,1674.58422251903
-0.155894933615904,1674.59422251903
-0.166441086150752,1674.60422251903
-0.176146229853072,1674.61422251903
-0.183773857413662,1674.62422251903
-0.185434416844997,1674.63422251903
-0.176696392365364,1674.64422251903
-0.15181680625867,1674.65422251903
-0.10571012219875,1674.66422251903
-0.0359848770980306,1674.67422251903
0.0560432630266758,1674.68422251903
0.164866581483434,1674.69422251903
0.282346796161077,1674.70422251903
0.397851063118667,1674.71422251903
0.500442008628838,1674.72422251903
0.581701174692001,1674.73422251903
0.638270027046894,1674.74422251903
0.670074489767259,1674.75422251903
0.680581800928821,1674.76422251903
0.674855681229268,1674.77422251903
0.658736311669772,1674.78422251903
0.636551156750075,1674.79422251903
0.61250710774748,1674.80422251903
0.589205988765654,1674.81422251903
0.567677125447264,1674.82422251903
0.549232745089703,1674.83422251903
0.53307800389949,1674.84422251903
0.519097891085487,1674.85422251903
0.507875281748547,1674.86422251903
0.498696798076654,1674.87422251903
0.491527818393796,1674.88422251903
0.486199184304867,1674.89422251903
0.481255802125662,1674.90422251903
0.475642914364352,1674.91422251903
0.46763292466317,1674.92422251903
0.456991823682861,1674.93422251903
0.443527161926063,1674.94422251903
0.428170463434624,1674.95422251903
0.412255954762942,1674.96422251903
0.397301270848477,1674.97422251903
0.383999454990871,1674.98422251903
0.372608360561193,1674.99422251903
0.363767059132706,1675.00422251903
0.357509174392197,1675.01422251903
0.352940253055728,1675.02422251903
0.350238814185313,1675.03422251903
0.348343314184678,1675.04422251903
0.347290192361799,1675.05422251903
0.345276899163792,1675.06422251903
0.342524803538682,1675.07422251903
0.339030129997269,1675.08422251903
0.334501940062216,1675.09422251903
0.329163594918468,1675.10422251903
0.323384720799197,1675.11422251903
0.316955256594342,1675.12422251903
0.308964742383811,1675.13422251903
0.299581008589054,1675.14422251903
0.288960821493422,1675.15422251903
0.276258974203922,1675.16422251903
0.262941842474106,1675.17422251903
0.248761334566239,1675.18422251903
0.234131521404299,1675.19422251903
0.219191271847779,1675.20422251903
0.203617310412537,1675.21422251903
0.187677652342961,1675.22422251903
0.171322158592954,1675.23422251903
0.154451523357921,1675.24422251903
0.137596396593626,1675.25422251903
0.120955445319216,1675.26422251903
0.10479582503285,1675.27422251903
0.0889592163063504,1675.28422251903
0.0736879758008685,1675.29422251903
0.0585667651521853,1675.30422251903
0.0434536328848398,1675.31422251903
0.0282231217323776,1675.32422251903
0.0128937599236633,1675.33422251903
-0.00166371431389285,1675.34422251903
-0.0156329001636703,1675.35422251903
-0.02947549048653,1675.36422251903
-0.0427502330878395,1675.37422251903
-0.0561359223764788,1675.38422251903
-0.0695486585919265,1675.39422251903
-0.08247225645996,1675.40422251903
-0.0950257141615689,1675.41422251903
-0.107159070855149,1675.42422251903
-0.118726919631252,1675.43422251903
-0.13017794951001,1675.44422251903
-0.140742255550746,1675.45422251903
-0.151091500866693,1675.46422251903
-0.16119498056721,1675.47422251903
-0.171168130713285,1675.48422251903
-0.181021544517236,1675.49422251903
-0.190486344157162,1675.50422251903
-0.199361394404273,1675.51422251903
-0.207862663139504,1675.52422251903
-0.216423466237063,1675.53422251903
-0.224163433924385,1675.54422251903
-0.230963990810928,1675.55422251903
-0.235154576432809,1675.56422251903
-0.232005263929891,1675.57422251903
-0.215730394601958,1675.58422251903
-0.1797555341181,1675.59422251903
-0.120753334896857,1675.60422251903
-0.0379859336392674,1675.61422251903
0.0631060353574645,1675.62422251903
0.17513585336549,1675.63422251903
0.288736980168216,1675.64422251903
0.392822127484375,1675.65422251903
0.479187057982084,1675.66422251903
0.542603683661874,1675.67422251903
0.581409484379739,1675.68422251903
0.598384134015095,1675.69422251903
0.597983133458156,1675.70422251903
0.585854650225312,1675.71422251903
0.567233708436157,1675.72422251903
0.545987504795184,1675.73422251903
0.524177341467542,1675.74422251903
0.50313314338951,1675.75422251903
0.483899873532227,1675.76422251903
0.466018293337989,1675.77422251903
0.449551044195112,1675.78422251903
0.434662371205477,1675.79422251903
0.420770932647984,1675.80422251903
0.407473828500392,1675.81422251903
0.39446692484247,1675.82422251903
0.381408884091615,1675.83422251903
0.367606062930306,1675.84422251903
0.352574386822569,1675.85422251903
0.335872126597206,1675.86422251903
0.318081290475956,1675.87422251903
0.299226489896043,1675.88422251903
0.280917043130172,1675.89422251903
0.263604169535768,1675.90422251903
0.247935933707566,1675.91422251903
0.23394366445195,1675.92422251903
0.222020340954414,1675.93422251903
0.211907852395136,1675.94422251903
0.204108889410874,1675.95422251903
0.198180458203005,1675.96422251903
0.193857156594392,1675.97422251903
0.19069789906177,1675.98422251903
0.187225604108566,1675.99422251903
0.182837383273619,1676.00422251903
0.17682876337729,1676.01422251903
0.169024657316319,1676.02422251903
0.159669975036985,1676.03422251903
0.149226934530143,1676.04422251903
0.138426424388046,1676.05422251903
0.126873477236238,1676.06422251903
0.114630840510171,1676.07422251903
0.10224413644564,1676.08422251903
0.0890988006537559,1676.09422251903
0.0748814124676441,1676.10422251903
0.0596500431979818,1676.11422251903
0.0439216880567787,1676.12422251903
0.0277435198202018,1676.13422251903
0.0106505865514549,1676.14422251903
-0.00628679087859888,1676.15422251903
-0.024326209548159,1676.16422251903
-0.0429922189735671,1676.17422251903
-0.061890491695823,1676.18422251903
-0.080862690683249,1676.19422251903
-0.098898754576683,1676.20422251903
-0.116340822382647,1676.21422251903
-0.133162249536288,1676.22422251903
-0.149794123901626,1676.23422251903
-0.165462844437441,1676.24422251903
-0.181051894755121,1676.25422251903
-0.19705823690698,1676.26422251903
-0.212911640978495,1676.27422251903
-0.229135956367815,1676.28422251903
-0.244615043401659,1676.29422251903
-0.259848065202189,1676.30422251903
-0.274774626467128,1676.31422251903
-0.289958515526758,1676.32422251903
-0.305452559498862,1676.33422251903
-0.320915363948495,1676.34422251903
-0.336671329451832,1676.35422251903
-0.352803322622144,1676.36422251903
-0.368925439233129,1676.37422251903
-0.384499459299691,1676.38422251903
-0.399032649609682,1676.39422251903
-0.413284567163406,1676.40422251903
-0.427367465047659,1676.41422251903
-0.441098987944998,1676.42422251903
-0.45459916782508,1676.43422251903
-0.468558900875475,1676.44422251903
-0.482078182406189,1676.45422251903
-0.495863692456612,1676.46422251903
-0.50968581480194,1676.47422251903
-0.523490272710153,1676.48422251903
-0.536850301333259,1676.49422251903
-0.55021515166952,1676.50422251903
-0.56082535333952,1676.51422251903
-0.565177603544342,1676.52422251903
-0.558411708654011,1676.53422251903
-0.537084847830385,1676.54422251903
-0.498988030961242,1676.55422251903
-0.447195605897094,1676.56422251903
-0.385971922823994,1676.57422251903
-0.321616170694568,1676.58422251903
-0.260432333917408,1676.59422251903
-0.207515746436188,1676.60422251903
-0.165093470616134,1676.61422251903
-0.134503237264643,1676.62422251903
-0.114939297458052,1676.63422251903
-0.104657795672211,1676.64422251903
-0.101876027539452,1676.65422251903
-0.104822094874471,1676.66422251903
-0.111946630034568,1676.67422251903
-0.121924812212574,1676.68422251903
-0.133175984485659,1676.69422251903
-0.144685111556675,1676.70422251903
-0.155381092314241,1676.71422251903
-0.164990676432616,1676.72422251903
-0.174390993478812,1676.73422251903
-0.182163435821998,1676.74422251903
-0.188812259670777,1676.75422251903
-0.195199669198569,1676.76422251903
-0.201348079535568,1676.77422251903
-0.208105818615816,1676.78422251903
-0.216209889746205,1676.79422251903
-0.225995381662346,1676.80422251903
-0.237599445348781,1676.81422251903
-0.250687710138839,1676.82422251903
-0.2645222967123,1676.83422251903
-0.27822984524789,1676.84422251903
-0.291032364492929,1676.85422251903
-0.30209502367273,1676.86422251903
-0.311717294412248,1676.87422251903
-0.319479091172008,1676.88422251903
-0.326082047270589,1676.89422251903
-0.332177574370334,1676.90422251903
-0.337918384984774,1676.91422251903
-0.343799443304866,1676.92422251903
-0.349824614076889,1676.93422251903
-0.356129656548391,1676.94422251903
-0.362677218794238,1676.95422251903
-0.370091766687166,1676.96422251903
-0.378523951531208,1676.97422251903
-0.387228229200544,1676.98422251903
-0.396816499746236,1676.99422251903
-0.406683816341512,1677.00422251903
-0.416814869412213,1677.01422251903
-0.427276082611199,1677.02422251903
-0.438335317949209,1677.03422251903
-0.449607292486684,1677.04422251903
-0.461121024724463,1677.05422251903
-0.473101864544108,1677.06422251903
-0.485152004947055,1677.07422251903
-0.497956106491419,1677.08422251903
-0.510738697797102,1677.09422251903
-0.523200190929389,1677.10422251903
-0.536234517185169,1677.11422251903
-0.54900819958272,1677.12422251903
-0.561725725502576,1677.13422251903
-0.574437531840996,1677.14422251903
-0.586770539381844,1677.15422251903
-0.59959808810287,1677.16422251903
-0.612080692755479,1677.17422251903
-0.624594817320965,1677.18422251903
-0.636554469309463,1677.19422251903
-0.648302020349428,1677.20422251903
-0.660375483886937,1677.21422251903
-0.67212938198552,1677.22422251903
-0.683896581456296,1677.23422251903
-0.695593113586219,1677.24422251903
-0.706665248892866,1677.25422251903
-0.717059361539041,1677.26422251903
-0.727075029985714,1677.27422251903
-0.736670108946738,1677.28422251903
-0.746072258893026,1677.29422251903
-0.755379095499778,1677.30422251903
-0.764594013439929,1677.31422251903
-0.774399244410598,1677.32422251903
-0.783930194283932,1677.33422251903
-0.793382052313937,1677.34422251903
-0.803112012831027,1677.35422251903
-0.812886972098955,1677.36422251903
-0.82204910052758,1677.37422251903
-0.831223943308382,1677.38422251903
-0.839884928638683,1677.39422251903
-0.847949373600629,1677.40422251903
-0.855909753072613,1677.41422251903
-0.864250796138163,1677.42422251903
-0.872676943751114,1677.43422251903
-0.880144139764269,1677.44422251903
-0.883872395515831,1677.45422251903
-0.881384575603265,1677.46422251903
-0.869558580731556,1677.47422251903
-0.846870767665942,1677.48422251903
-0.814828254703652,1677.49422251903
-0.776354591849249,1677.50422251903
-0.736594927404183,1677.51422251903
-0.699878909234393,1677.52422251903
-0.669690020846348,1677.53422251903
-0.648128855238098,1677.54422251903
-0.634728543345101,1677.55422251903
-0.629109964657445,1677.56422251903
-0.62961708881316,1677.57422251903
-0.633848879120767,1677.58422251903
-0.640344957276962,1677.59422251903
-0.647391709569432,1677.60422251903
-0.654247697470607,1677.61422251903
-0.661167729787643,1677.62422251903
-0.667571879882364,1677.63422251903
-0.673529173241805,1677.64422251903
-0.679197393027233,1677.65422251903
-0.684178852722881,1677.66422251903
-0.688299591248892,1677.67422251903
-0.691855903680097,1677.68422251903
-0.694734870934111,1677.69422251903
-0.698107535714976,1677.70422251903
-0.702663557283597,1677.71422251903
-0.708392662699914,1677.72422251903
-0.715523360377393,1677.73422251903
-0.722498633239596,1677.74422251903
-0.729450595804139,1677.75422251903
-0.736188814204287,1677.76422251903
-0.741542553170564,1677.77422251903
-0.74580715856299,1677.78422251903
-0.748418082544878,1677.79422251903
-0.749783551000086,1677.80422251903
-0.750413027722396,1677.81422251903
-0.750726144186474,1677.82422251903
-0.750772318036001,1677.83422251903
-0.750639913892737,1677.84422251903
-0.75085245690034,1677.85422251903
-0.751531886384042,1677.86422251903
-0.752951597456979,1677.87422251903
-0.754540214340297,1677.88422251903
-0.756889014680007,1677.89422251903
-0.760100648953986,1677.90422251903
-0.76415593352348,1677.91422251903
-0.769032985643301,1677.92422251903
-0.774560143029114,1677.93422251903
-0.780038305060805,1677.94422251903
-0.785989000023097,1677.95422251903
-0.791698900960888,1677.96422251903
-0.797537223911845,1677.97422251903
-0.803572362794074,1677.98422251903
-0.809720287503853,1677.99422251903
-0.816074992342433,1678.00422251903
-0.822546443744458,1678.01422251903
-0.829485606553952,1678.02422251903
-0.836781022175136,1678.03422251903
-0.843894244947004,1678.04422251903
-0.851246423223408,1678.05422251903
-0.85803042282325,1678.06422251903
-0.864833142541488,1678.07422251903
-0.8712311515156,1678.08422251903
-0.877409415806482,1678.09422251903
-0.883589307499787,1678.10422251903
-0.890001720750717,1678.11422251903
-0.896372275854734,1678.12422251903
-0.903043659484351,1678.13422251903
-0.909616428237804,1678.14422251903
-0.916255476319385,1678.15422251903
-0.92303641836859,1678.16422251903
-0.929413203269874,1678.17422251903
-0.935078732661343,1678.18422251903
-0.940163653934594,1678.19422251903
-0.944662794691513,1678.20422251903
-0.949092601766249,1678.21422251903
-0.953882273406895,1678.22422251903
-0.958958683206926,1678.23422251903
-0.964435060735921,1678.24422251903
-0.969789848866644,1678.25422251903
-0.975344047171613,1678.26422251903
-0.980767267568429,1678.27422251903
-0.985344564358283,1678.28422251903
-0.990419990969699,1678.29422251903
-0.995674275668036,1678.30422251903
-1.00086409665368,1678.31422251903
-1.00631910432508,1678.32422251903
-1.0121160607876,1678.33422251903
-1.01757485410379,1678.34422251903
-1.02273229955472,1678.35422251903
-1.02651065999819,1678.36422251903
-1.02715225124897,1678.37422251903
-1.02167960310317,1678.38422251903
-1.00733689938656,1678.39422251903
-0.983430993167723,1678.40422251903
-0.951888874574255,1678.41422251903
-0.91618796756597,1678.42422251903
-0.88093987497085,1678.43422251903
-0.849578174024472,1678.44422251903
-0.825909054216539,1678.45422251903
-0.810502273551427,1678.46422251903
-0.803240570950972,1678.47422251903
-0.802709677562483,1678.48422251903
-0.806761727440172,1678.49422251903
-0.813467379230523,1678.50422251903
-0.820794593771064,1678.51422251903
-0.828117429511476,1678.52422251903
-0.834595892685418,1678.53422251903
-0.840865802602252,1678.54422251903
-0.846254513437649,1678.55422251903
-0.851151603699693,1678.56422251903
-0.855227727551648,1678.57422251903
-0.858955295684989,1678.58422251903
-0.861805656026547,1678.59422251903
-0.863528854131333,1678.60422251903
-0.865052189042066,1678.61422251903
-0.866458285159839,1678.62422251903
-0.868408738875823,1678.63422251903
-0.870797899467568,1678.64422251903
-0.873781658382495,1678.65422251903
-0.877258816803697,1678.66422251903
-0.880404810225361,1678.67422251903
-0.883139077771559,1678.68422251903
-0.884928952544271,1678.69422251903
-0.885295083690966,1678.70422251903
-0.884060580530833,1678.71422251903
-0.882133933247879,1678.72422251903
-0.879187443959021,1678.73422251903
-0.87531893771748,1678.74422251903
-0.871460926525224,1678.75422251903
-0.867891618210943,1678.76422251903
-0.864929472770677,1678.77422251903
-0.862437508543654,1678.78422251903
-0.860801960060502,1678.79422251903
-0.860375000781339,1678.80422251903
-0.860383349024006,1678.81422251903
-0.861056537951219,1678.82422251903
-0.862783312645697,1678.83422251903
-0.86520784652013,1678.84422251903
-0.867832041342701,1678.85422251903
-0.87041118118132,1678.86422251903
-0.873442373114798,1678.87422251903
-0.876334422010717,1678.88422251903
-0.879199215525056,1678.89422251903
-0.882057491331752,1678.90422251903
-0.884657024013612,1678.91422251903
-0.887717295367473,1678.92422251903
-0.890867678977185,1678.93422251903
-0.894114299480804,1678.94422251903
-0.897376840310963,1678.95422251903
-0.900716574446004,1678.96422251903
-0.903984744070918,1678.97422251903
-0.906628199148649,1678.98422251903
-0.909554401104339,1678.99422251903
-0.91190817404563,1679.00422251903
-0.914915040959018,1679.01422251903
-0.918378386474904,1679.02422251903
-0.921716744581894,1679.03422251903
-0.925043721366323,1679.04422251903
-0.928006589352646,1679.05422251903
-0.930433696567345,1679.06422251903
-0.933199379793963,1679.07422251903
-0.935901243868529,1679.08422251903
-0.939486208628817,1679.09422251903
-0.942922013453448,1679.10422251903
-0.946817613654011,1679.11422251903
-0.950101461566313,1679.12422251903
-0.952676359098152,1679.13422251903
-0.954973564592089,1679.14422251903
-0.957252788349632,1679.15422251903
-0.959850435250974,1679.16422251903
-0.962181519410669,1679.17422251903
-0.964782656083288,1679.18422251903
-0.967308239413717,1679.19422251903
-0.969583325341431,1679.20422251903
-0.971731879132257,1679.21422251903
-0.974445448373179,1679.22422251903
-0.977529373557727,1679.23422251903
-0.980333164190511,1679.24422251903
-0.983552843531083,1679.25422251903
-0.986733801586093,1679.26422251903
-0.988883795514585,1679.27422251903
-0.989078587207222,1679.28422251903
-0.983873126155112,1679.29422251903
-0.971334172598984,1679.30422251903
-0.948785914080449,1679.31422251903
-0.916867325184944,1679.32422251903
-0.878019850758748,1679.33422251903
-0.836278245917608,1679.34422251903
-0.797071958313047,1679.35422251903
-0.764039174778865,1679.36422251903
-0.739751915748909,1679.37422251903
-0.724639943551579,1679.38422251903
-0.717381188785158,1679.39422251903
-0.716500510879752,1679.40422251903
-0.719234568151515,1679.41422251903
-0.723506254938756,1679.42422251903
-0.72728181924254,1679.43422251903
-0.730589602560256,1679.44422251903
-0.732372884047306,1679.45422251903
-0.733207234068194,1679.46422251903
-0.732736606345613,1679.47422251903
-0.73119418105491,1679.48422251903
-0.728808759306098,1679.49422251903
-0.725504042611122,1679.50422251903
-0.721647985765661,1679.51422251903
-0.717363126950548,1679.52422251903
-0.713017661580014,1679.53422251903
-0.709203355877679,1679.54422251903
-0.706488313363505,1679.55422251903
-0.704801707844226,1679.56422251903
-0.704123901632593,1679.57422251903
-0.704007315917098,1679.58422251903
-0.704366274028621,1679.59422251903
-0.70484927643593,1679.60422251903
-0.704546650619991,1679.61422251903
-0.703373576692515,1679.62422251903
-0.701305661251708,1679.63422251903
-0.698619168248658,1679.64422251903
-0.695524631654568,1679.65422251903
-0.692163629470632,1679.66422251903
-0.688616224742785,1679.67422251903
-0.684405496439905,1679.68422251903
-0.679641862532967,1679.69422251903
-0.67478718565698,1679.70422251903
-0.670564989564446,1679.71422251903
-0.66713319346275,1679.72422251903
-0.664947227211978,1679.73422251903
-0.663617496383072,1679.74422251903
-0.662921290020666,1679.75422251903
-0.663028584606615,1679.76422251903
-0.662862986078573,1679.77422251903
-0.66264710802074,1679.78422251903
-0.662223110187526,1679.79422251903
-0.660964801379965,1679.80422251903
-0.660651998731194,1679.81422251903
-0.660773161500801,1679.82422251903
-0.661621228796302,1679.83422251903
-0.663228186177319,1679.84422251903
-0.66567027117861,1679.85422251903
-0.668055743889342,1679.86422251903
-0.670498123510484,1679.87422251903
-0.67288062514109,1679.88422251903
-0.674993812013998,1679.89422251903
-0.67687694759459,1679.90422251903
-0.678982808120374,1679.91422251903
-0.681062827847897,1679.92422251903
-0.683640405415699,1679.93422251903
-0.686190160775225,1679.94422251903
-0.688545863566942,1679.95422251903
-0.69095283468311,1679.96422251903
-0.692291655042109,1679.97422251903
-0.693523144453478,1679.98422251903
-0.693995057893478,1679.99422251903
-0.694369633015937,1680.00422251903
-0.695237474360857,1680.01422251903
-0.696459727617901,1680.02422251903
-0.698749987796921,1680.03422251903
-0.700951372991144,1680.04422251903
-0.703956861659333,1680.05422251903
-0.706713665047877,1680.06422251903
-0.70913653066681,1680.07422251903
-0.711141650242611,1680.08422251903
-0.712796098857592,1680.09422251903
-0.714845260243662,1680.10422251903
-0.716400397993128,1680.11422251903
-0.717872940292451,1680.12422251903
-0.719212839261492,1680.13422251903
-0.720922203369545,1680.14422251903
-0.722535814992879,1680.15422251903
-0.724109527865909,1680.16422251903
-0.725850480581106,1680.17422251903
-0.728174173804744,1680.18422251903
-0.730409761058856,1680.19422251903
-0.732585175160805,1680.20422251903
-0.734599401481474,1680.21422251903
-0.73556984439113,1680.22422251903
-0.733146220399425,1680.23422251903
-0.724599775011705,1680.24422251903
-0.70642791217576,1680.25422251903
-0.677419094478005,1680.26422251903
-0.639064972036013,1680.27422251903
-0.594472011378119,1680.28422251903
-0.547802752109417,1680.29422251903
-0.504266935401348,1680.30422251903
-0.467333933578497,1680.31422251903
-0.439200050006768,1680.32422251903
-0.420517709590223,1680.33422251903
-0.409928253263579,1680.34422251903
-0.405370806059169,1680.35422251903
-0.404096941529057,1680.36422251903
-0.404856845624028,1680.37422251903
-0.405098505560753,1680.38422251903
-0.404649050928685,1680.39422251903
-0.402630707866284,1680.40422251903
-0.399028712959698,1680.41422251903
-0.394226922411381,1680.42422251903
-0.388592903403612,1680.43422251903
-0.382547821334529,1680.44422251903
-0.375812464493874,1680.45422251903
-0.368825624794173,1680.46422251903
-0.36243946642236,1680.47422251903
-0.356196457390514,1680.48422251903
-0.351315217788729,1680.49422251903
-0.347289952324652,1680.50422251903
-0.344478679111515,1680.51422251903
-0.342834214872143,1680.52422251903
-0.341486667227511,1680.53422251903
-0.340519510203419,1680.54422251903
-0.339405965256596,1680.55422251903
-0.337624980573707,1680.56422251903
-0.335039438141816,1680.57422251903
-0.331589003599189,1680.58422251903
-0.327654444524913,1680.59422251903
-0.32245082302337,1680.60422251903
-0.316562155439084,1680.61422251903
-0.310603840942432,1680.62422251903
-0.304026716451021,1680.63422251903
-0.298041583520202,1680.64422251903
-0.292540819426188,1680.65422251903
-0.287851266162733,1680.66422251903
-0.28425663989719,1680.67422251903
-0.28107153348966,1680.68422251903
-0.278945387254383,1680.69422251903
-0.27698430526718,1680.70422251903
-0.275827501291216,1680.71422251903
-0.275072857206383,1680.72422251903
-0.274301775743182,1680.73422251903
-0.274516120375317,1680.74422251903
-0.274762619371474,1680.75422251903
-0.275450227987062,1680.76422251903
-0.276243469535211,1680.77422251903
-0.276967767864425,1680.78422251903
-0.27819210787464,1680.79422251903
-0.279080878195282,1680.80422251903
-0.279889641583195,1680.81422251903
-0.280789545713609,1680.82422251903
-0.282333655133518,1680.83422251903
-0.283963498148356,1680.84422251903
-0.286160532120468,1680.85422251903
-0.288868325261817,1680.86422251903
-0.291491634718956,1680.87422251903
-0.294044713661764,1680.88422251903
-0.295890914269866,1680.89422251903
-0.297727009185766,1680.90422251903
-0.299880059835918,1680.91422251903
-0.302232647970684,1680.92422251903
-0.304633839382168,1680.93422251903
-0.307234371389287,1680.94422251903
-0.309682365798253,1680.95422251903
-0.312172073244765,1680.96422251903
-0.314134492933668,1680.97422251903
-0.316523447070926,1680.98422251903
-0.319274238883811,1680.99422251903
-0.322464017405723,1681.00422251903
-0.325235835477887,1681.01422251903
-0.327811887332782,1681.02422251903
-0.329707463631855,1681.03422251903
-0.331993550229639,1681.04422251903
-0.334540753402943,1681.05422251903
-0.337896671786913,1681.06422251903
-0.340750272054148,1681.07422251903
-0.343625728620244,1681.08422251903
-0.346273328009556,1681.09422251903
-0.34864281373868,1681.10422251903
-0.350807823758349,1681.11422251903
-0.35332879073539,1681.12422251903
-0.35629933653395,1681.13422251903
-0.359161478302216,1681.14422251903
-0.361785274770513,1681.15422251903
-0.36450126037565,1681.16422251903
-0.366547929314728,1681.17422251903
-0.367132588727839,1681.18422251903
-0.364193028332284,1681.19422251903
-0.354012767175742,1681.20422251903
-0.333905756825842,1681.21422251903
-0.301925186142549,1681.22422251903
-0.260339255439361,1681.23422251903
-0.210880204165755,1681.24422251903
-0.159082568103829,1681.25422251903
-0.109701491183839,1681.26422251903
-0.0662773129097061,1681.27422251903
-0.0314967206075703,1681.28422251903
-0.00585721148085365,1681.29422251903
0.0125325288431101,1681.30422251903
0.0251995203785436,1681.31422251903
0.0338118295957254,1681.32422251903
0.041198415442984,1681.33422251903
0.0476081541939923,1681.34422251903
0.0539670518864048,1681.35422251903
0.0599242571521335,1681.36422251903
0.0656024566428528,1681.37422251903
0.0713480091131705,1681.38422251903
0.0773278758497048,1681.39422251903
0.0840433654591845,1681.40422251903
0.0913748886715029,1681.41422251903
0.0986694669063562,1681.42422251903
0.10564101123759,1681.43422251903
0.111670397827433,1681.44422251903
0.11644642470679,1681.45422251903
0.120428508044813,1681.46422251903
0.12296535647585,1681.47422251903
0.124339713032219,1681.48422251903
0.124840113954846,1681.49422251903
0.124978252043307,1681.50422251903
0.124920306626202,1681.51422251903
0.125358813261049,1681.52422251903
0.126705704926563,1681.53422251903
0.128838772087301,1681.54422251903
0.131505455719648,1681.55422251903
0.13493464179843,1681.56422251903
0.13861166594863,1681.57422251903
0.14248507454428,1681.58422251903
0.146223577758933,1681.59422251903
0.149953294576545,1681.60422251903
0.154182137926344,1681.61422251903
0.157444548412208,1681.62422251903
0.159549903058429,1681.63422251903
0.160528757598968,1681.64422251903
0.15998604993515,1681.65422251903
0.158724847579265,1681.66422251903
0.156553076635004,1681.67422251903
0.15369158514346,1681.68422251903
0.15066239877478,1681.69422251903
0.14732453986309,1681.70422251903
0.143321049399194,1681.71422251903
0.139125241794184,1681.72422251903
0.134547834601513,1681.73422251903
0.129696154686174,1681.74422251903
0.124279418601374,1681.75422251903
0.11865934558841,1681.76422251903
0.112300694226027,1681.77422251903
0.10605890793171,1681.78422251903
0.0992204858705935,1681.79422251903
0.0918944067183749,1681.80422251903
0.0851875331050156,1681.81422251903
0.0778504606212158,1681.82422251903
0.0706530025369149,1681.83422251903
0.0634885686231962,1681.84422251903
0.0557785205805713,1681.85422251903
0.0483409755803307,1681.86422251903
0.0409006858069563,1681.87422251903
0.034154795486172,1681.88422251903
0.0279981416930054,1681.89422251903
0.0219676684207182,1681.90422251903
0.0162561450595324,1681.91422251903
0.0107081646285926,1681.92422251903
0.00473728602862371,1681.93422251903
-0.0013880363527369,1681.94422251903
-0.00733450905014339,1681.95422251903
-0.0132633537167585,1681.96422251903
-0.0191713005197175,1681.97422251903
-0.0255237858198954,1681.98422251903
-0.0319190319936872,1681.99422251903
-0.0384012344976257,1682.00422251903
-0.0444705837941897,1682.01422251903
-0.050852925205748,1682.02422251903
-0.0563976291707784,1682.03422251903
-0.0618541583768392,1682.04422251903
-0.0672203659895771,1682.05422251903
-0.0728362108680754,1682.06422251903
-0.0785877557851484,1682.07422251903
-0.0844030878385602,1682.08422251903
-0.0901556121013977,1682.09422251903
-0.0948526042593184,1682.10422251903
-0.0962274786287423,1682.11422251903
-0.0905784932796954,1682.12422251903
-0.0743921621330529,1682.13422251903
-0.0448393422964567,1682.14422251903
-0.0035075169539449,1682.15422251903
0.0484204922506958,1682.16422251903
0.104638818366819,1682.17422251903
0.160590451187803,1682.18422251903
0.211925864934189,1682.19422251903
0.255279601948071,1682.20422251903
0.290183902265183,1682.21422251903
0.316432768746963,1682.22422251903
0.335827832340451,1682.23422251903
0.349771856938262,1682.24422251903
0.359283374866702,1682.25422251903
0.36529307227938,1682.26422251903
0.36864745240378,1682.27422251903
0.369002824399976,1682.28422251903
0.368149810139785,1682.29422251903
0.365798109498624,1682.30422251903
0.363717126510768,1682.31422251903
0.361698110912598,1682.32422251903
0.359583539334825,1682.33422251903
0.357841641049216,1682.34422251903
0.35554550322756,1682.35422251903
0.352636642569413,1682.36422251903
0.348637302745123,1682.37422251903
0.342888429999719,1682.38422251903
0.336311220329014,1682.39422251903
0.328885392961781,1682.40422251903
0.320778427671236,1682.41422251903
0.312836029368042,1682.42422251903
0.305542973343611,1682.43422251903
0.299509626644608,1682.44422251903
0.294854628919772,1682.45422251903
0.292581261661704,1682.46422251903
0.291626159401368,1682.47422251903
0.291491601756038,1682.48422251903
0.292274249629723,1682.49422251903
0.293659368709296,1682.50422251903
0.295341912724447,1682.51422251903
0.297217331394004,1682.52422251903
0.298426019843568,1682.53422251903
0.29960304898617,1682.54422251903
0.299612319396733,1682.55422251903
0.299257790834413,1682.56422251903
0.29680324216425,1682.57422251903
0.293473707877152,1682.58422251903
0.28891781320737,1682.59422251903
0.28367594660387,1682.60422251903
0.278204459667098,1682.61422251903
0.27192631762604,1682.62422251903
0.265461603716715,1682.63422251903
0.257895605312437,1682.64422251903
0.249374559304509,1682.65422251903
0.239669626830542,1682.66422251903
0.228779345111019,1682.67422251903
0.217729223296657,1682.68422251903
0.206750514536163,1682.69422251903
0.196941182932059,1682.70422251903
0.187436801492729,1682.71422251903
0.178796213737811,1682.72422251903
0.170281353479735,1682.73422251903
0.161127145910822,1682.74422251903
0.151708527268438,1682.75422251903
0.142050938026313,1682.76422251903
0.132002841692105,1682.77422251903
0.12238536922158,1682.78422251903
0.113009884084323,1682.79422251903
0.104180480131787,1682.80422251903
0.0954762144262706,1682.81422251903
0.0868074911697597,1682.82422251903
0.0780687686845193,1682.83422251903
0.0690782537876106,1682.84422251903
0.0600307597474355,1682.85422251903
0.0512904356577191,1682.86422251903
0.0431274494908456,1682.87422251903
0.0348857651496291,1682.88422251903
0.0269092452299979,1682.89422251903
0.0189011131620941,1682.90422251903
0.0112183059840761,1682.91422251903
0.00355976752575278,1682.92422251903
-0.00456260655443009,1682.93422251903
-0.0124652620804878,1682.94422251903
-0.0200226882325793,1682.95422251903
-0.0274413911553815,1682.96422251903
-0.0347534600993835,1682.97422251903
-0.042893209887297,1682.98422251903
-0.0511203117989062,1682.99422251903
-0.0595245492812111,1683.00422251903
-0.0665225675874175,1683.01422251903
-0.0705004984624718,1683.02422251903
-0.0681069117380124,1683.03422251903
-0.0545717372941453,1683.04422251903
-0.0275602003397136,1683.05422251903
0.0134875330190356,1683.06422251903
0.0672712041534985,1683.07422251903
0.129015991050024,1683.08422251903
0.193842519913104,1683.09422251903
0.255620635202543,1683.10422251903
0.310437209990938,1683.11422251903
0.356599513357426,1683.12422251903
0.393033940378515,1683.13422251903
0.420972039365116,1683.14422251903
0.440608802984515,1683.15422251903
0.453629858539325,1683.16422251903
0.4606709200696,1683.17422251903
0.46331910974593,1683.18422251903
0.463075090015073,1683.19422251903
0.460459136238583,1683.20422251903
0.456036603858759,1683.21422251903
0.451176746357539,1683.22422251903
0.446755954803899,1683.23422251903
0.442620620255232,1683.24422251903
0.43983494527626,1683.25422251903
0.437485806177385,1683.26422251903
0.435747942644475,1683.27422251903
0.434282803072763,1683.28422251903
0.432990646252691,1683.29422251903
0.430346782985794,1683.30422251903
0.426171689947728,1683.31422251903
0.420095307166682,1683.32422251903
0.412083875733374,1683.33422251903
0.403488902895766,1683.34422251903
0.394489528566967,1683.35422251903
0.386207428159156,1683.36422251903
0.378863310434966,1683.37422251903
0.373076164299331,1683.38422251903
0.368733465266474,1683.39422251903
0.366869861491889,1683.40422251903
0.366094404628004,1683.41422251903
0.366307805585613,1683.42422251903
0.366048383600448,1683.43422251903
0.365531977468204,1683.44422251903
0.364098737175003,1683.45422251903
0.362806649241381,1683.46422251903
0.360681376636246,1683.47422251903
0.358021658318774,1683.48422251903
0.354191748269562,1683.49422251903
0.349535048220401,1683.50422251903
0.34393323404612,1683.51422251903
0.337517209076605,1683.52422251903
0.330673266411941,1683.53422251903
0.323652627354062,1683.54422251903
0.316366860362363,1683.55422251903
0.308499673987535,1683.56422251903
0.299700635289868,1683.57422251903
0.289908583611846,1683.58422251903
0.279529782033641,1683.59422251903
0.268584707758856,1683.60422251903
0.258081262262085,1683.61422251903
0.247454582914915,1683.62422251903
0.23736551912454,1683.63422251903
0.227232826589876,1683.64422251903
0.217454941766919,1683.65422251903
0.207416671890818,1683.66422251903
0.197240893093341,1683.67422251903
0.187211870169269,1683.68422251903
0.177166971410164,1683.69422251903
0.167436967837068,1683.70422251903
0.157502982539531,1683.71422251903
0.147832970787183,1683.72422251903
0.138276831614329,1683.73422251903
0.128725994606956,1683.74422251903
0.118758973036923,1683.75422251903
0.109062836547461,1683.76422251903
0.0993665627321204,1683.77422251903
0.0899292375048363,1683.78422251903
0.0816619946336172,1683.79422251903
0.0736632108795754,1683.80422251903
0.06617790858919,1683.81422251903
0.0581293306351937,1683.82422251903
0.0496189289846534,1683.83422251903
0.0409554463678922,1683.84422251903
0.0322001975193242,1683.85422251903
0.0234569630201141,1683.86422251903
0.0147302352929831,1683.87422251903
0.00678647662202529,1683.88422251903
-0.00101811889123338,1683.89422251903
-0.00872261727875705,1683.90422251903
-0.0168237603831705,1683.91422251903
-0.0252524171352741,1683.92422251903
-0.0336707661907823,1683.93422251903
-0.0418236877768354,1683.94422251903
-0.0475282504881524,1683.95422251903
-0.0495470984496243,1683.96422251903
-0.0430421118395511,1683.97422251903
-0.0248764053077091,1683.98422251903
0.00741932791009396,1683.99422251903
0.0551732623464216,1684.00422251903
0.114471566916377,1684.01422251903
0.181544717098956,1684.02422251903
0.249871710227762,1684.03422251903
0.314710978979589,1684.04422251903
0.372237748364868,1684.05422251903
0.41965151120234,1684.06422251903
0.456428980051272,1684.07422251903
0.483022109562049,1684.08422251903
0.500790211328118,1684.09422251903
0.511354664746503,1684.10422251903
0.516265811714796,1684.11422251903
0.517245361340387,1684.12422251903
0.514805487928689,1684.13422251903
0.510841763462787,1684.14422251903
0.505828510853937,1684.15422251903
0.500444957744927,1684.16422251903
0.495585652457489,1684.17422251903
0.491092442198308,1684.18422251903
0.487398919530452,1684.19422251903
0.483564946645754,1684.20422251903
0.480439115544741,1684.21422251903
0.477009195712675,1684.22422251903
0.472469735566785,1684.23422251903
0.466263355505492,1684.24422251903
0.458393415037618,1684.25422251903
0.44880552934879,1684.26422251903
0.438450243907556,1684.27422251903
0.42775824227899,1684.28422251903
0.417092323021399,1684.29422251903
0.407367443556631,1684.30422251903
0.398736973475786,1684.31422251903
0.391419068576077,1684.32422251903
0.385915955724289,1684.33422251903
0.382565382767483,1684.34422251903
0.3808647996195,1684.35422251903
0.380335308816108,1684.36422251903
0.379824771389699,1684.37422251903
0.379406405823451,1684.38422251903
0.378563098764597,1684.39422251903
0.376716519568283,1684.40422251903
0.374488585051638,1684.41422251903
0.371457860636534,1684.42422251903
0.367477826509773,1684.43422251903
0.362807342473148,1684.44422251903
0.357459003959148,1684.45422251903
0.351300697291638,1684.46422251903
0.344615548053344,1684.47422251903
0.337742326780407,1684.48422251903
0.330492398935667,1684.49422251903
0.323083962821533,1684.50422251903
0.314709194525372,1684.51422251903
0.306022884222811,1684.52422251903
0.296681992863478,1684.53422251903
0.286900706124089,1684.54422251903
0.276949949279354,1684.55422251903
0.266778685039446,1684.56422251903
0.257047632142329,1684.57422251903
0.246609432209821,1684.58422251903
0.236557525518742,1684.59422251903
0.225747806495288,1684.60422251903
0.214910813677068,1684.61422251903
0.203553339327728,1684.62422251903
0.192796980303221,1684.63422251903
0.182236933253212,1684.64422251903
0.172233584341532,1684.65422251903
0.163082805130974,1684.66422251903
0.153898827493604,1684.67422251903
0.145203918259371,1684.68422251903
0.136258320493028,1684.69422251903
0.127311147277283,1684.70422251903
0.118195310574796,1684.71422251903
0.108999170964877,1684.72422251903
0.100250522684556,1684.73422251903
0.0914155805842549,1684.74422251903
0.0830246286682448,1684.75422251903
0.0750489591199004,1684.76422251903
0.0667453787092071,1684.77422251903
0.0584011687105542,1684.78422251903
0.0505150675501233,1684.79422251903
0.0426918492502895,1684.80422251903
0.034653036658469,1684.81422251903
0.0265629484278794,1684.82422251903
0.0182292752512919,1684.83422251903
0.0102645410059192,1684.84422251903
0.00238581047297665,1684.85422251903
-0.00496261702243019,1684.86422251903
-0.0116675058612986,1684.87422251903
-0.0181124842626832,1684.88422251903
-0.0234966808443456,1684.89422251903
-0.0257385364610589,1684.90422251903
-0.0213136696348019,1684.91422251903
-0.00630642852714828,1684.92422251903
0.0226620001734588,1684.93422251903
0.0658588857750819,1684.94422251903
0.121253940921042,1684.95422251903
0.185362379165153,1684.96422251903
0.252601121149796,1684.97422251903
0.318100870349754,1684.98422251903
0.377128610564425,1684.99422251903
0.427562728986579,1685.00422251903
0.46743650332308,1685.01422251903
0.49709957625665,1685.02422251903
0.516585631724708,1685.03422251903
0.528019316232211,1685.04422251903
0.532626387112561,1685.05422251903
0.532721461889314,1685.06422251903
0.529066521615637,1685.07422251903
0.523215209755446,1685.08422251903
0.515681638166985,1685.09422251903
0.507535059916005,1685.10422251903
0.499084084958369,1685.11422251903
0.490603683287601,1685.12422251903
0.483340222912642,1685.13422251903
0.477243348904258,1685.14422251903
0.471901402137255,1685.15422251903
0.466817230776557,1685.16422251903
0.461882298351216,1685.17422251903
0.455960588741319,1685.18422251903
0.448345040251748,1685.19422251903
0.439779764131024,1685.20422251903
0.429949614981187,1685.21422251903
0.420129796135865,1685.22422251903
0.410797797773798,1685.23422251903
0.402740050789475,1685.24422251903
0.396287553659993,1685.25422251903
0.391480221737915,1685.26422251903
0.388240309101386,1685.27422251903
0.387282387785378,1685.28422251903
0.387670389837013,1685.29422251903
0.389207863387504,1685.30422251903
0.391942065952011,1685.31422251903
0.393912749862873,1685.32422251903
0.395674805472411,1685.33422251903
0.396705742794297,1685.34422251903
0.39692762695642,1685.35422251903
0.395594547825738,1685.36422251903
0.392622891315383,1685.37422251903
0.387915474538264,1685.38422251903
0.382167493799434,1685.39422251903
0.375435371810662,1685.40422251903
0.368510139741421,1685.41422251903
0.361426097470545,1685.42422251903
0.354367367646774,1685.43422251903
0.346989638784287,1685.44422251903
0.33938482993369,1685.45422251903
0.331248311796269,1685.46422251903
0.322442289290166,1685.47422251903
0.313216205830745,1685.48422251903
0.303686430479296,1685.49422251903
0.294017691370674,1685.50422251903
0.284938812737227,1685.51422251903
0.275584579393047,1685.52422251903
0.266303208439362,1685.53422251903
0.257391748536613,1685.54422251903
0.247697479468702,1685.55422251903
0.237623262450005,1685.56422251903
0.227014701246426,1685.57422251903
0.216660528890414,1685.58422251903
0.206748292307329,1685.59422251903
0.198365610908828,1685.60422251903
0.1911531077711,1685.61422251903
0.184156889543343,1685.62422251903
0.177217598070081,1685.63422251903
0.16986139021824,1685.64422251903
0.161918388025752,1685.65422251903
0.154015140707507,1685.66422251903
0.14581794176157,1685.67422251903
0.137616221728796,1685.68422251903
0.129410601211571,1685.69422251903
0.121302720980331,1685.70422251903
0.113711633308138,1685.71422251903
0.10705470781615,1685.72422251903
0.100965585657217,1685.73422251903
0.0948381345674872,1685.74422251903
0.0884791453194722,1685.75422251903
0.082402094231769,1685.76422251903
0.0764760855272971,1685.77422251903
0.0702610097777215,1685.78422251903
0.0633172081233148,1685.79422251903
0.0561562394290645,1685.80422251903
0.0494730867960125,1685.81422251903
0.0455587933700105,1685.82422251903
0.0471539320718279,1685.83422251903
0.0584936828887844,1685.84422251903
0.0830221701628358,1685.85422251903
0.122362024595073,1685.86422251903
0.175751164742563,1685.87422251903
0.239920823638928,1685.88422251903
0.309408001125359,1685.89422251903
0.37973267123727,1685.90422251903
0.445789309548812,1685.91422251903
0.503981309339151,1685.92422251903
0.551857353732566,1685.93422251903
0.58813330178554,1685.94422251903
0.61257442748364,1685.95422251903
0.626979756248989,1685.96422251903
0.632623069640964,1685.97422251903
0.631651197993981,1685.98422251903
0.626478251632657,1685.99422251903
0.618028193178676,1686.00422251903
0.60880052821069,1686.01422251903
0.599126234741128,1686.02422251903
0.589800117603225,1686.03422251903
0.581398008807601,1686.04422251903
0.573301845265788,1686.05422251903
0.566249112260165,1686.06422251903
0.559683770988042,1686.07422251903
0.554051211382292,1686.08422251903
0.5477403713969,1686.09422251903
0.540776337151241,1686.10422251903
0.532710403296148,1686.11422251903
0.523174551352497,1686.12422251903
0.513919096966422,1686.13422251903
0.504785647516699,1686.14422251903
0.49628215705563,1686.15422251903
0.489375828732476,1686.16422251903
0.48432179481377,1686.17422251903
0.481715801224779,1686.18422251903
0.481306783111755,1686.19422251903
0.48182474874994,1686.20422251903
0.48365075682149,1686.21422251903
0.485993247037843,1686.22422251903
0.488765810189453,1686.23422251903
0.491704730075799,1686.24422251903
0.493728916497104,1686.25422251903
0.49503328198729,1686.26422251903
0.495278439527798,1686.27422251903
0.494423974330803,1686.28422251903
0.492506568108269,1686.29422251903
0.489342129394296,1686.30422251903
0.484522505806654,1686.31422251903
0.478541692306028,1686.32422251903
0.471414469694207,1686.33422251903
0.463262831672521,1686.34422251903
0.454179295117689,1686.35422251903
0.445018719204889,1686.36422251903
0.435518413392059,1686.37422251903
0.425939751694583,1686.38422251903
0.416332297611913,1686.39422251903
0.406321528117816,1686.40422251903
0.396241002648968,1686.41422251903
0.385710738481704,1686.42422251903
0.375143742169409,1686.43422251903
0.364613411547739,1686.44422251903
0.35401674738787,1686.45422251903
0.34388641183074,1686.46422251903
0.334375843432205,1686.47422251903
0.324985704127763,1686.48422251903
0.315877193208509,1686.49422251903
0.306736726537123,1686.50422251903
0.297357268650417,1686.51422251903
0.288324728452136,1686.52422251903
0.279658384389741,1686.53422251903
0.271443415238921,1686.54422251903
0.263052577724595,1686.55422251903
0.254589950060589,1686.56422251903
0.246492702766662,1686.57422251903
0.238292214170397,1686.58422251903
0.230370604270786,1686.59422251903
0.223323144050913,1686.60422251903
0.215940199782834,1686.61422251903
0.20887225534199,1686.62422251903
0.201558742821393,1686.63422251903
0.194391679036905,1686.64422251903
0.187418150827517,1686.65422251903
0.181081691795638,1686.66422251903
0.174962577596817,1686.67422251903
0.16910231941839,1686.68422251903
0.162987502927437,1686.69422251903
0.156401533456613,1686.70422251903
0.149361214732894,1686.71422251903
0.143233514013762,1686.72422251903
0.140726965680557,1686.73422251903
0.145673127996415,1686.74422251903
0.16353283158308,1686.75422251903
0.196825244555031,1686.76422251903
0.247283001616763,1686.77422251903
0.313013740743032,1686.78422251903
0.390100147035894,1686.79422251903
0.473904481887124,1686.80422251903
0.557972834028004,1686.81422251903
0.636583692116182,1686.82422251903
0.705045952306977,1686.83422251903
0.760195259072348,1686.84422251903
0.800301531265558,1686.85422251903
0.825924586842721,1686.86422251903
0.838907195053415,1686.87422251903
0.842731939418434,1686.88422251903
0.840429143900029,1686.89422251903
0.834871010986482,1686.90422251903
0.828612629229412,1686.91422251903
0.822141332103525,1686.92422251903
0.816443385479832,1686.93422251903
0.811667763511323,1686.94422251903
0.808005164745304,1686.95422251903
0.804501956916716,1686.96422251903
0.801773996740889,1686.97422251903
0.799190564670653,1686.98422251903
0.795776426832869,1686.99422251903
0.791915750841568,1687.00422251903
0.78728438397917,1687.01422251903
0.780310758064237,1687.02422251903
0.771917943918211,1687.03422251903
0.76164803546278,1687.04422251903
0.750271464614625,1687.05422251903
0.738692869864598,1687.06422251903
0.727690790168524,1687.07422251903
0.717844577034821,1687.08422251903
0.709424626945857,1687.09422251903
0.702742100076298,1687.10422251903
0.697888985525867,1687.11422251903
0.69491899970717,1687.12422251903
0.694059757638167,1687.13422251903
0.693989357529777,1687.14422251903
0.694740738055427,1687.15422251903
0.695984605040667,1687.16422251903
0.696433323676064,1687.17422251903
0.696271464312401,1687.18422251903
0.695122767223837,1687.19422251903
0.691816715353042,1687.20422251903
0.687773751273236,1687.21422251903
0.682431643963565,1687.22422251903
0.675890269646961,1687.23422251903
0.667676472092056,1687.24422251903
0.65933643443935,1687.25422251903
0.649961760217213,1687.26422251903
0.64014385357026,1687.27422251903
0.63005179985461,1687.28422251903
0.618860649663479,1687.29422251903
0.607080529497177,1687.30422251903
0.594807125594319,1687.31422251903
0.582536345745001,1687.32422251903
0.570104371110605,1687.33422251903
0.558312670376127,1687.34422251903
0.546117824884447,1687.35422251903
0.53427933381878,1687.36422251903
0.522491748024075,1687.37422251903
0.510161674492044,1687.38422251903
0.498110727147334,1687.39422251903
0.48573654256224,1687.40422251903
0.472935582066777,1687.41422251903
0.460342320077646,1687.42422251903
0.447430254667061,1687.43422251903
0.435167766986062,1687.44422251903
0.424018272342374,1687.45422251903
0.413633478818528,1687.46422251903
0.403731420531431,1687.47422251903
0.394868458010621,1687.48422251903
0.386128866794476,1687.49422251903
0.378238297784925,1687.50422251903
0.370101211109967,1687.51422251903
0.361092713595783,1687.52422251903
0.351843907582,1687.53422251903
0.341716734350292,1687.54422251903
0.331695510221873,1687.55422251903
0.322423828530909,1687.56422251903
0.31344511390279,1687.57422251903
0.304760654328091,1687.58422251903
0.296112937635742,1687.59422251903
0.287088883593865,1687.60422251903
0.278010717503876,1687.61422251903
0.26867566715242,1687.62422251903
0.259923188070238,1687.63422251903
0.251264973383038,1687.64422251903
0.243833076257593,1687.65422251903
0.240007676692944,1687.66422251903
0.244283638693738,1687.67422251903
0.260968241730901,1687.68422251903
0.295186057436439,1687.69422251903
0.348567086002953,1687.70422251903
0.420259947165815,1687.71422251903
0.506283726034609,1687.72422251903
0.601200236555433,1687.73422251903
0.697257020979474,1687.74422251903
0.786953199682633,1687.75422251903
0.864282405802224,1687.76422251903
0.924186440395602,1687.77422251903
0.965462345602801,1687.78422251903
0.989606981617953,1687.79422251903
0.999969000724841,1687.80422251903
1.00039708580436,1687.81422251903
0.994930588220448,1687.82422251903
0.9860121204462,1687.83422251903
0.976289571846117,1687.84422251903
0.966497044597324,1687.85422251903
0.957317022892422,1687.86422251903
0.949607403468736,1687.87422251903
0.943411984570824,1687.88422251903
0.938474966895474,1687.89422251903
0.934229669677004,1687.90422251903
0.930018411540766,1687.91422251903
0.925297675873489,1687.92422251903
0.919881610642735,1687.93422251903
0.912888114040566,1687.94422251903
0.904397888642932,1687.95422251903
0.893972635193646,1687.96422251903
0.881885438314802,1687.97422251903
0.868649723377181,1687.98422251903
0.854825448410277,1687.99422251903
0.841034181561497,1688.00422251903
0.828383197416353,1688.01422251903
0.818162425622143,1688.02422251903
0.810399468393864,1688.03422251903
0.804983565993848,1688.04422251903
0.800998867506183,1688.05422251903
0.798497500272396,1688.06422251903
0.797174193091492,1688.07422251903
0.795852370746819,1688.08422251903
0.795180753219489,1688.09422251903
0.79367643951402,1688.10422251903
0.791254734744182,1688.11422251903
0.787215721894866,1688.12422251903
0.782475683782455,1688.13422251903
0.776630654975607,1688.14422251903
0.770554514645015,1688.15422251903
0.763882238738049,1688.16422251903
0.755508162782334,1688.17422251903
0.746540953031856,1688.18422251903
0.735987795971266,1688.19422251903
0.724040190267243,1688.20422251903
0.710471156424032,1688.21422251903
0.696083769765757,1688.22422251903
0.68121692835535,1688.23422251903
0.665271447348273,1688.24422251903
0.649297000453914,1688.25422251903
0.632683539662005,1688.26422251903
0.615886535759443,1688.27422251903
0.599015518576474,1688.28422251903
0.582320841661909,1688.29422251903
0.566054789469043,1688.30422251903
0.550574182402612,1688.31422251903
0.534860914719258,1688.32422251903
0.519784824231579,1688.33422251903
0.505268245947738,1688.34422251903
0.491034446896659,1688.35422251903
0.47755907701882,1688.36422251903
0.464372373733392,1688.37422251903
0.451278099046678,1688.38422251903
0.438252154448058,1688.39422251903
0.425290270102084,1688.40422251903
0.41287266920266,1688.41422251903
0.400731777569372,1688.42422251903
0.388522973762175,1688.43422251903
0.376402932715941,1688.44422251903
0.36432413321131,1688.45422251903
0.353104375554059,1688.46422251903
0.342003212830094,1688.47422251903
0.331509724023093,1688.48422251903
0.321200682089186,1688.49422251903
0.310773599300285,1688.50422251903
0.300847267678517,1688.51422251903
0.290842413221535,1688.52422251903
0.281184079470844,1688.53422251903
0.271270212562184,1688.54422251903
0.261089046805839,1688.55422251903
0.250958772803978,1688.56422251903
0.240834257751824,1688.57422251903
0.230517355830633,1688.58422251903
0.220460077933793,1688.59422251903
0.211179641094187,1688.60422251903
0.202635125198221,1688.61422251903
0.196703381120581,1688.62422251903
0.197198740917455,1688.63422251903
0.208455729085978,1688.64422251903
0.235690174823008,1688.65422251903
0.281415206942133,1688.66422251903
0.346810901743021,1688.67422251903
0.429260268069675,1688.68422251903
0.523058285683584,1688.69422251903
0.621109909523117,1688.70422251903
0.714004385338049,1688.71422251903
0.794649258685945,1688.72422251903
0.857567840374486,1688.73422251903
0.900921861342487,1688.74422251903
0.925946084881959,1688.75422251903
0.936103777643113,1688.76422251903
0.934613605647424,1688.77422251903
0.925495784479974,1688.78422251903
0.91178377481224,1688.79422251903
0.895948277921493,1688.80422251903
0.879292212402536,1688.81422251903
0.863189437811226,1688.82422251903
0.848906483711524,1688.83422251903
0.836579727033416,1688.84422251903
0.826968101373685,1688.85422251903
0.819699958826964,1688.86422251903
0.813929498468186,1688.87422251903
0.808440452771124,1688.88422251903
0.802235347885726,1688.89422251903
0.793787596143362,1688.90422251903
0.7842033158259,1688.91422251903
0.77243488616051,1688.92422251903
0.759731450347074,1688.93422251903
0.746128253567331,1688.94422251903
0.732833604025715,1688.95422251903
0.720148964992373,1688.96422251903
0.708833091223445,1688.97422251903
0.699186983705097,1688.98422251903
0.692050894024525,1688.99422251903
0.687089178178448,1689.00422251903
0.683615571017354,1689.01422251903
0.68175084930637,1689.02422251903
0.680856512725352,1689.03422251903
0.680988407532086,1689.04422251903
0.681367348016283,1689.05422251903
0.681098957304615,1689.06422251903
0.679975237188066,1689.07422251903
0.677336278879678,1689.08422251903
0.673171021075881,1689.09422251903
0.667526619419351,1689.10422251903
0.660845060207648,1689.11422251903
0.652891142634068,1689.12422251903
0.644308855094941,1689.13422251903
0.634801239210974,1689.14422251903
0.624462819632759,1689.15422251903
0.612846542884785,1689.16422251903
0.601173183412111,1689.17422251903
0.588942944359611,1689.18422251903
0.575858944025084,1689.19422251903
0.562526107338295,1689.20422251903
0.548494079806644,1689.21422251903
0.533707323204278,1689.22422251903
0.518345088342893,1689.23422251903
0.502778325004614,1689.24422251903
0.48741678920494,1689.25422251903
0.472269819024615,1689.26422251903
0.457217820207623,1689.27422251903
0.442082714156303,1689.28422251903
0.427188731826115,1689.29422251903
0.412264756016044,1689.30422251903
0.398213393997827,1689.31422251903
0.384638230589978,1689.32422251903
0.371603660156949,1689.33422251903
0.358863116575517,1689.34422251903
0.346425685371799,1689.35422251903
0.334420008719094,1689.36422251903
0.322706171138592,1689.37422251903
0.311184260635481,1689.38422251903
0.299851264222516,1689.39422251903
0.288387503131523,1689.40422251903
0.276845093349323,1689.41422251903
0.265542321931964,1689.42422251903
0.254251916340582,1689.43422251903
0.243512718080204,1689.44422251903
0.233015064420078,1689.45422251903
0.222530682598563,1689.46422251903
0.212520800133538,1689.47422251903
0.202677400536106,1689.48422251903
0.192992648125334,1689.49422251903
0.183944169003545,1689.50422251903
0.175103872686647,1689.51422251903
0.166431107138061,1689.52422251903
0.157489580078607,1689.53422251903
0.148679058611478,1689.54422251903
0.140402576210959,1689.55422251903
0.134280896963694,1689.56422251903
0.133166013902996,1689.57422251903
0.142000000945881,1689.58422251903
0.164993297314481,1689.59422251903
0.205292519536578,1689.60422251903
0.263574739917337,1689.61422251903
