PPG,time
0.225122532673955,1349.6236479686
0.435050015499978,1349.6336479686
0.368885626074441,1349.6436479686
0.386057270377154,1349.6536479686
0.356708210194904,1349.6636479686
0.35676145199672,1349.6736479686
0.337934862765846,1349.6836479686
0.330684597325765,1349.6936479686
0.316526393205365,1349.7036479686
0.306123693239666,1349.7136479686
0.293597793412308,1349.7236479686
0.281079630386037,1349.7336479686
0.26867224628573,1349.7436479686
0.256997085983532,1349.7536479686
0.245185002757566,1349.7636479686
0.233809833039022,1349.7736479686
0.222767969848205,1349.7836479686
0.210863610363331,1349.7936479686
0.19900915352856,1349.8036479686
0.187085469084767,1349.8136479686
0.175128338840886,1349.8236479686
0.163521754064912,1349.8336479686
0.151936159503627,1349.8436479686
0.139643590225393,1349.8536479686
0.127121307526674,1349.8636479686
0.114656932266795,1349.8736479686
0.102670624272584,1349.8836479686
0.0903831014635926,1349.8936479686
0.0779923635999126,1349.9036479686
0.0654603990377969,1349.9136479686
0.0525058207674274,1349.9236479686
0.0400405084148555,1349.9336479686
0.0276337221197889,1349.9436479686
0.015645707397093,1349.9536479686
0.00356304463650503,1349.9636479686
-0.00908668846599214,1349.9736479686
-0.0228614924808802,1349.9836479686
-0.0373628211651532,1349.9936479686
-0.051579265731861,1350.0036479686
-0.0663561782102373,1350.0136479686
-0.0813170682738319,1350.0236479686
-0.0945143801649631,1350.0336479686
-0.104406331201214,1350.0436479686
-0.107479737369462,1350.0536479686
-0.0988182074052875,1350.0636479686
-0.0737087761929619,1350.0736479686
-0.0294605576603126,1350.0836479686
0.0359766536378189,1350.0936479686
0.119491895359996,1350.1036479686
0.21709869562929,1350.1136479686
0.321315864745052,1350.1236479686
0.424722983737806,1350.1336479686
0.519702158663103,1350.1436479686
0.600153764680262,1350.1536479686
0.663125413388242,1350.1636479686
0.707225448888808,1350.1736479686
0.73481482734883,1350.1836479686
0.74811620012234,1350.1936479686
0.750892041489965,1350.2036479686
0.747320196483121,1350.2136479686
0.739965448326675,1350.2236479686
0.731694903930028,1350.2336479686
0.723666644457817,1350.2436479686
0.716209487438383,1350.2536479686
0.709409045170251,1350.2636479686
0.702461417678631,1350.2736479686
0.695151351451309,1350.2836479686
0.687957054220489,1350.2936479686
0.680180888566814,1350.3036479686
0.671021585924229,1350.3136479686
0.659545654314576,1350.3236479686
0.644503018214197,1350.3336479686
0.62618790499133,1350.3436479686
0.605316697995248,1350.3536479686
0.583107602950991,1350.3636479686
0.560702967523245,1350.3736479686
0.539368605649749,1350.3836479686
0.519904391472994,1350.3936479686
0.504031071648132,1350.4036479686
0.491150209651515,1350.4136479686
0.48205935199003,1350.4236479686
0.476386337868859,1350.4336479686
0.473069675248546,1350.4436479686
0.471144680011607,1350.4536479686
0.469272958816154,1350.4636479686
0.46694422695349,1350.4736479686
0.463608823764337,1350.4836479686
0.459042441984149,1350.4936479686
0.453083149011399,1350.5036479686
0.444796070956583,1350.5136479686
0.435021419414573,1350.5236479686
0.423331938407301,1350.5336479686
0.410175301217921,1350.5436479686
0.396846633311339,1350.5536479686
0.382908387793729,1350.5636479686
0.368901648024253,1350.5736479686
0.354897842180586,1350.5836479686
0.341212328910158,1350.5936479686
0.326872342501188,1350.6036479686
0.312309043496878,1350.6136479686
0.296749811687651,1350.6236479686
0.280786080024993,1350.6336479686
0.264785166284925,1350.6436479686
0.248468764337578,1350.6536479686
0.232177726966152,1350.6636479686
0.216390522096954,1350.6736479686
0.20086828084059,1350.6836479686
0.185530106952447,1350.6936479686
0.171218099614646,1350.7036479686
0.157493593770065,1350.7136479686
0.144097372520125,1350.7236479686
0.131066944796396,1350.7336479686
0.118921126899762,1350.7436479686
0.107625425886527,1350.7536479686
0.0964290680936518,1350.7636479686
0.0857890291091963,1350.7736479686
0.0754034500163327,1350.7836479686
0.0654290937038248,1350.7936479686
0.0561030288105319,1350.8036479686
0.047007150026239,1350.8136479686
0.0375677563603032,1350.8236479686
0.0278104842769477,1350.8336479686
0.0180102477099956,1350.8436479686
0.00747655841915402,1350.8536479686
-0.00214927346485204,1350.8636479686
-0.0117789677880385,1350.8736479686
-0.0211840720946723,1350.8836479686
-0.0305776124665482,1350.8936479686
-0.0396898962342136,1350.9036479686
-0.0493720313009007,1350.9136479686
-0.0591762061531884,1350.9236479686
-0.0687979907486125,1350.9336479686
-0.0788125438237203,1350.9436479686
-0.0878105064175445,1350.9536479686
-0.0959901649644451,1350.9636479686
-0.104574097594334,1350.9736479686
-0.113054706659951,1350.9836479686
-0.122566755901673,1350.9936479686
-0.133214129002462,1351.0036479686
-0.144223198055996,1351.0136479686
-0.155339523153898,1351.0236479686
-0.165348237394828,1351.0336479686
-0.171070020712137,1351.0436479686
-0.168752272832399,1351.0536479686
-0.154302664907508,1351.0636479686
-0.122900452087084,1351.0736479686
-0.0722171566965391,1351.0836479686
-0.00269876410103506,1351.0936479686
0.0822398010157108,1351.1036479686
0.177574339544523,1351.1136479686
0.276393695267608,1351.1236479686
0.370726533772975,1351.1336479686
0.454212017766593,1351.1436479686
0.522335161514954,1351.1536479686
0.572926198595056,1351.1636479686
0.606587872437897,1351.1736479686
0.625838785284896,1351.1836479686
0.634094157123253,1351.1936479686
0.634999051862666,1351.2036479686
0.630913066088295,1351.2136479686
0.624491657495477,1351.2236479686
0.616483231159405,1351.2336479686
0.607857548928256,1351.2436479686
0.59919022817691,1351.2536479686
0.590868381852762,1351.2636479686
0.583487459074256,1351.2736479686
0.576915650242053,1351.2836479686
0.570695008866169,1351.2936479686
0.563448878527033,1351.3036479686
0.553956698357043,1351.3136479686
0.541112657161322,1351.3236479686
0.524637601741036,1351.3336479686
0.505075794045582,1351.3436479686
0.483747026948904,1351.3536479686
0.462869429645832,1351.3636479686
0.444102322654538,1351.3736479686
0.429623015329515,1351.3836479686
0.419229361818671,1351.3936479686
0.414226086485836,1351.4036479686
0.413858212829203,1351.4136479686
0.416855088402537,1351.4236479686
0.42202240315027,1351.4336479686
0.428575361113442,1351.4436479686
0.435479261005744,1351.4536479686
0.440647204673253,1351.4636479686
0.443915759917574,1351.4736479686
0.444972985583251,1351.4836479686
0.443767312029002,1351.4936479686
0.440588678708807,1351.5036479686
0.435659107597587,1351.5136479686
0.429550331046328,1351.5236479686
0.422275729369275,1351.5336479686
0.413431180703404,1351.5436479686
0.404151149954761,1351.5536479686
0.393653770977622,1351.5636479686
0.382148878861326,1351.5736479686
0.370449730276087,1351.5836479686
0.357520450038069,1351.5936479686
0.344204040202578,1351.6036479686
0.330420950452991,1351.6136479686
0.316153298018558,1351.6236479686
0.301823318214608,1351.6336479686
0.288039484661437,1351.6436479686
0.27493301677009,1351.6536479686
0.262423363790895,1351.6636479686
0.250162357322064,1351.6736479686
0.237678512770056,1351.6836479686
0.224760179440602,1351.6936479686
0.211766878235268,1351.7036479686
0.198569665263621,1351.7136479686
0.185701507001638,1351.7236479686
0.1736940224551,1351.7336479686
0.162505259629069,1351.7436479686
0.152010954533737,1351.7536479686
0.142289535239758,1351.7636479686
0.132786501871562,1351.7736479686
0.122794363080153,1351.7836479686
0.112876716915831,1351.7936479686
0.102743161424381,1351.8036479686
0.0920349537163322,1351.8136479686
0.082086813546691,1351.8236479686
0.0720026140249253,1351.8336479686
0.0625179694640298,1351.8436479686
0.0541688002568965,1351.8536479686
0.0490450869991922,1351.8636479686
0.0501975292400763,1351.8736479686
0.0609513464866122,1351.8836479686
0.0858661780456907,1351.8936479686
0.127644781879039,1351.9036479686
0.188369216511769,1351.9136479686
0.265236212264611,1351.9236479686
0.354012538284314,1351.9336479686
0.448859642404005,1351.9436479686
0.542064215285175,1351.9536479686
0.627902086636891,1351.9636479686
0.701096992870347,1351.9736479686
0.75913607950675,1351.9836479686
0.801012344017558,1351.9936479686
0.828336366574824,1352.0036479686
0.844308632462164,1352.0136479686
0.851726999560122,1352.0236479686
0.854331016063566,1352.0336479686
0.854393454518801,1352.0436479686
0.853828313911969,1352.0536479686
0.853119434800325,1352.0636479686
0.852044741032266,1352.0736479686
0.851100932005227,1352.0836479686
0.849475457488308,1352.0936479686
0.847254835808095,1352.1036479686
0.843993482219124,1352.1136479686
0.838992991101762,1352.1236479686
0.831492321958545,1352.1336479686
0.82096859041179,1352.1436479686
0.806512936448819,1352.1536479686
0.788414204819843,1352.1636479686
0.768422871100517,1352.1736479686
0.746998954154835,1352.1836479686
0.726212984690487,1352.1936479686
0.707804769549334,1352.2036479686
0.691919739145456,1352.2136479686
0.679806217483849,1352.2236479686
0.670995738945168,1352.2336479686
0.665083341432097,1352.2436479686
0.661559417674688,1352.2536479686
0.660059236104237,1352.2636479686
0.659470822178309,1352.2736479686
0.658814945396073,1352.2836479686
0.657544988067328,1352.2936479686
0.655218093036131,1352.3036479686
0.651323551259233,1352.3136479686
0.645949461284296,1352.3236479686
0.639224407258558,1352.3336479686
0.631344530695384,1352.3436479686
0.622323147123911,1352.3536479686
0.611953693734107,1352.3636479686
0.601480871672909,1352.3736479686
0.589740231280861,1352.3836479686
0.576792462103196,1352.3936479686
0.563092090963172,1352.4036479686
0.548320346393417,1352.4136479686
0.532865078499882,1352.4236479686
0.517502097476483,1352.4336479686
0.501550238252094,1352.4436479686
0.485707251017538,1352.4536479686
0.469164963390681,1352.4636479686
0.452933124939512,1352.4736479686
0.436757458736208,1352.4836479686
0.420977168966134,1352.4936479686
0.406362947668709,1352.5036479686
0.392414402206778,1352.5136479686
0.379258264581761,1352.5236479686
0.366748283702489,1352.5336479686
0.354824663358461,1352.5436479686
0.342645923409854,1352.5536479686
0.330243229097765,1352.5636479686
0.317870931025637,1352.5736479686
0.305296863499997,1352.5836479686
0.292922858524615,1352.5936479686
0.279915673822738,1352.6036479686
0.266116472587486,1352.6136479686
0.252444633198692,1352.6236479686
0.239273633113265,1352.6336479686
0.227716355232917,1352.6436479686
0.21932002974217,1352.6536479686
0.217025449002486,1352.6636479686
0.224437661617827,1352.6736479686
0.245014472063752,1352.6836479686
0.28144097120355,1352.6936479686
0.33499023782837,1352.7036479686
0.404225385476527,1352.7136479686
0.485263716462774,1352.7236479686
0.572087304555828,1352.7336479686
0.657610839221876,1352.7436479686
0.735770018693417,1352.7536479686
0.802098167594372,1352.7636479686
0.853048556871312,1352.7736479686
0.88838045797202,1352.7836479686
0.90927096783994,1352.7936479686
0.918958710828518,1352.8036479686
0.921142776665096,1352.8136479686
0.918678612942359,1352.8236479686
0.914122001362739,1352.8336479686
0.908747163290355,1352.8436479686
0.903017526251754,1352.8536479686
0.897555761408584,1352.8636479686
0.893407518615231,1352.8736479686
0.889052706171748,1352.8836479686
0.884531182785371,1352.8936479686
0.878817584552546,1352.9036479686
0.870927536526201,1352.9136479686
0.860236740998419,1352.9236479686
0.845617759590408,1352.9336479686
0.827805418554403,1352.9436479686
0.807087399858203,1352.9536479686
0.784380699143364,1352.9636479686
0.761442206479721,1352.9736479686
0.739533970829043,1352.9836479686
0.719732518799319,1352.9936479686
0.703048113712243,1353.0036479686
0.689753920246958,1353.0136479686
0.679619110094702,1353.0236479686
0.671918326066468,1353.0336479686
0.666025934672237,1353.0436479686
0.661517903527888,1353.0536479686
0.658288491592517,1353.0636479686
0.654886838779668,1353.0736479686
0.651742400727986,1353.0836479686
0.647476771714967,1353.0936479686
0.641615327751707,1353.1036479686
0.634381639374713,1353.1136479686
0.625828217147117,1353.1236479686
0.615909856679079,1353.1336479686
0.604615802579255,1353.1436479686
0.591756343999425,1353.1536479686
0.578042972499543,1353.1636479686
0.563230373242444,1353.1736479686
0.548062114529946,1353.1836479686
0.532117444656612,1353.1936479686
0.516202886546451,1353.2036479686
0.500011182757929,1353.2136479686
0.483287224092465,1353.2236479686
0.466589682012576,1353.2336479686
0.449707727006967,1353.2436479686
0.432992933610248,1353.2536479686
0.416722166303637,1353.2636479686
0.40106567391056,1353.2736479686
0.385142200959091,1353.2836479686
0.36953054346004,1353.2936479686
0.35428033740372,1353.3036479686
0.339407223618705,1353.3136479686
0.324624862925358,1353.3236479686
0.310638218289371,1353.3336479686
0.297108206603201,1353.3436479686
0.284084414554074,1353.3536479686
0.271390322275442,1353.3636479686
0.258523891342905,1353.3736479686
0.245812134771589,1353.3836479686
0.23312493134286,1353.3936479686
0.219534028270931,1353.4036479686
0.205721556975429,1353.4136479686
0.191440073077362,1353.4236479686
0.176393255942789,1353.4336479686
0.16074119754219,1353.4436479686
0.145050978944739,1353.4536479686
0.130379870798744,1353.4636479686
0.117482380398824,1353.4736479686
0.109360852644411,1353.4836479686
0.108043824830073,1353.4936479686
0.117927279529604,1353.5036479686
0.141788740196603,1353.5136479686
0.181729803983755,1353.5236479686
0.237470743953789,1353.5336479686
0.305860089138759,1353.5436479686
0.382666842098256,1353.5536479686
0.462338260113877,1353.5636479686
0.538918176151459,1353.5736479686
0.607381224948039,1353.5836479686
0.664202512972367,1353.5936479686
0.707162805739862,1353.6036479686
0.73648601101531,1353.6136479686
0.753836481130342,1353.6236479686
0.76190662071572,1353.6336479686
0.763343862501598,1353.6436479686
0.760935088106735,1353.6536479686
0.757230761246046,1353.6636479686
0.753322059839698,1353.6736479686
0.750210618620954,1353.6836479686
0.747500433700261,1353.6936479686
0.744463572850743,1353.7036479686
0.74173592919016,1353.7136479686
0.738256537068001,1353.7236479686
0.733094986882613,1353.7336479686
0.725489570309176,1353.7436479686
0.714246646170574,1353.7536479686
0.698250369495269,1353.7636479686
0.678541702040216,1353.7736479686
0.655967212019559,1353.7836479686
0.632828810543858,1353.7936479686
0.610027253645318,1353.8036479686
0.589488631383755,1353.8136479686
0.571481687104968,1353.8236479686
0.556962922694916,1353.8336479686
0.545189244549819,1353.8436479686
0.535338002970675,1353.8536479686
0.527484587284627,1353.8636479686
0.520930801178351,1353.8736479686
0.51498880897234,1353.8836479686
0.508958505000134,1353.8936479686
0.503640014969088,1353.9036479686
0.497561684627022,1353.9136479686
0.490206896819758,1353.9236479686
0.481835684183358,1353.9336479686
0.472121896389753,1353.9436479686
0.460828912488571,1353.9536479686
0.448054606594583,1353.9636479686
0.433990540916953,1353.9736479686
0.419175432893813,1353.9836479686
0.403070827247345,1353.9936479686
0.386918352129763,1354.0036479686
0.370584750748116,1354.0136479686
0.354439184003731,1354.0236479686
0.338196246013475,1354.0336479686
0.321105615133066,1354.0436479686
0.303621660251729,1354.0536479686
0.285513008786845,1354.0636479686
0.266910550497684,1354.0736479686
0.248505943870086,1354.0836479686
0.229857424436748,1354.0936479686
0.212003039485943,1354.1036479686
0.19471577098866,1354.1136479686
0.177687411126367,1354.1236479686
0.16103115641597,1354.1336479686
0.144749733250221,1354.1436479686
0.128644601366634,1354.1536479686
0.112973039141607,1354.1636479686
0.0973675694735075,1354.1736479686
0.0825126172060922,1354.1836479686
0.0681967490978395,1354.1936479686
0.0536559302617503,1354.2036479686
0.0397555293793407,1354.2136479686
0.0256936469029084,1354.2236479686
0.0119549307136308,1354.2336479686
-0.00150797226512328,1354.2436479686
-0.0147158948117842,1354.2536479686
-0.0277242222356088,1354.2636479686
-0.0403294963645748,1354.2736479686
-0.052374256474141,1354.2836479686
-0.0642467112471886,1354.2936479686
-0.0763050893124607,1354.3036479686
-0.0885307949839832,1354.3136479686
-0.100958605602272,1354.3236479686
-0.113074371163636,1354.3336479686
-0.125400960727592,1354.3436479686
-0.138406173042494,1354.3536479686
-0.15113920017038,1354.3636479686
-0.164673478886543,1354.3736479686
-0.178716613899884,1354.3836479686
-0.192702410277606,1354.3936479686
-0.206148785181249,1354.4036479686
-0.216408962207526,1354.4136479686
-0.22159301257565,1354.4236479686
-0.218972680367189,1354.4336479686
-0.206489210363365,1354.4436479686
-0.18230833102057,1354.4536479686
-0.145419978065143,1354.4636479686
-0.0962078353392123,1354.4736479686
-0.0370278325785997,1354.4836479686
0.0284557530173747,1354.4936479686
0.0953409022702094,1354.5036479686
0.159245292756653,1354.5136479686
0.216567436584356,1354.5236479686
0.265170998108637,1354.5336479686
0.303093250309214,1354.5436479686
0.331723424358219,1354.5536479686
0.350396650922377,1354.5636479686
0.361489190523362,1354.5736479686
0.366285913318809,1354.5836479686
0.366819772687875,1354.5936479686
0.365003067594595,1354.6036479686
0.361743161746001,1354.6136479686
0.358466280246534,1354.6236479686
0.355260703612585,1354.6336479686
0.352448819998112,1354.6436479686
0.349407781400247,1354.6536479686
0.345917140386675,1354.6636479686
0.339752773646042,1354.6736479686
0.331447457309487,1354.6836479686
0.319712763365586,1354.6936479686
0.305351383187518,1354.7036479686
0.287742762625599,1354.7136479686
0.268687683059747,1354.7236479686
0.248875940847206,1354.7336479686
0.229219568317398,1354.7436479686
0.210626240939011,1354.7536479686
0.194132824889918,1354.7636479686
0.179622877610207,1354.7736479686
0.166846024547338,1354.7836479686
0.15667258361932,1354.7936479686
0.148618318542872,1354.8036479686
0.141208683219786,1354.8136479686
0.134121661754444,1354.8236479686
0.126920542906718,1354.8336479686
0.119317262726595,1354.8436479686
0.110905756297231,1354.8536479686
0.10126202193205,1354.8636479686
0.0905457783159116,1354.8736479686
0.0788961366344278,1354.8836479686
0.0664785581019354,1354.8936479686
0.0534056476012088,1354.9036479686
0.0399989985260571,1354.9136479686
0.0264041930406167,1354.9236479686
0.012363233227114,1354.9336479686
-0.0021334441291405,1354.9436479686
-0.0173145092105657,1354.9536479686
-0.0329010105291496,1354.9636479686
-0.0490995233180015,1354.9736479686
-0.0658658025167775,1354.9836479686
-0.0834428319977126,1354.9936479686
-0.101171645724541,1355.0036479686
-0.119480343517973,1355.0136479686
-0.137800997784267,1355.0236479686
-0.156660020283031,1355.0336479686
-0.175155904935983,1355.0436479686
-0.19296464073593,1355.0536479686
-0.210010678964051,1355.0636479686
-0.226499387783586,1355.0736479686
-0.242884911866115,1355.0836479686
-0.258765752000707,1355.0936479686
-0.275002670661552,1355.1036479686
-0.291327053450972,1355.1136479686
-0.307174036697115,1355.1236479686
-0.322735453475439,1355.1336479686
-0.338187022380982,1355.1436479686
-0.353657516023365,1355.1536479686
-0.368748365284723,1355.1636479686
-0.384396726417681,1355.1736479686
-0.400533188412858,1355.1836479686
-0.416498468623635,1355.1936479686
-0.432395265137789,1355.2036479686
-0.447497675406309,1355.2136479686
-0.461896719559856,1355.2236479686
-0.47527531528499,1355.2336479686
-0.489374832125529,1355.2436479686
-0.504046943391375,1355.2536479686
-0.518497525338002,1355.2636479686
-0.532899662069119,1355.2736479686
-0.547227569466859,1355.2836479686
-0.560776529066369,1355.2936479686
-0.574200603022259,1355.3036479686
-0.587402036267145,1355.3136479686
-0.600611242835963,1355.3236479686
-0.61372507687876,1355.3336479686
-0.626673800702623,1355.3436479686
-0.63960905065101,1355.3536479686
-0.652395123093773,1355.3636479686
-0.665119462553808,1355.3736479686
-0.67805829182868,1355.3836479686
-0.691156034129994,1355.3936479686
-0.704907784437043,1355.4036479686
-0.718453453693358,1355.4136479686
-0.731822644478512,1355.4236479686
-0.743411778224188,1355.4336479686
-0.750591957199001,1355.4436479686
-0.752037003433344,1355.4536479686
-0.744335699067657,1355.4636479686
-0.726391424547921,1355.4736479686
-0.696692643154378,1355.4836479686
-0.655858496435859,1355.4936479686
-0.606062971553736,1355.5036479686
-0.549939615127338,1355.5136479686
-0.491409370384019,1355.5236479686
-0.434134268832768,1355.5336479686
-0.381093543604108,1355.5436479686
-0.33461168552382,1355.5536479686
-0.296028371303013,1355.5636479686
-0.265196134922168,1355.5736479686
-0.241169639298343,1355.5836479686
-0.222910636788721,1355.5936479686
-0.209541446321687,1355.6036479686
-0.200051970089269,1355.6136479686
-0.193553380387105,1355.6236479686
-0.1893457146331,1355.6336479686
-0.186516732848565,1355.6436479686
-0.18420349770451,1355.6536479686
-0.182146241141001,1355.6636479686
-0.18101656092371,1355.6736479686
-0.180743125924222,1355.6836479686
-0.182383700601274,1355.6936479686
-0.186406969467002,1355.7036479686
-0.192698872333899,1355.7136479686
-0.201486903804146,1355.7236479686
-0.211634556581816,1355.7336479686
-0.222901086292251,1355.7436479686
-0.233572006623528,1355.7536479686
-0.243533918679765,1355.7636479686
-0.251133466015691,1355.7736479686
-0.25653845496492,1355.7836479686
-0.259652148506144,1355.7936479686
-0.261100175928799,1355.8036479686
-0.260783026489714,1355.8136479686
-0.259269602457077,1355.8236479686
-0.25780580924772,1355.8336479686
-0.256011357370927,1355.8436479686
-0.25493912846198,1355.8536479686
-0.254194998618038,1355.8636479686
-0.254487353121509,1355.8736479686
-0.256428018821904,1355.8836479686
-0.259734623557873,1355.8936479686
-0.264410594507873,1355.9036479686
-0.270291714082051,1355.9136479686
-0.277229258673487,1355.9236479686
-0.285308013477616,1355.9336479686
-0.293942592210665,1355.9436479686
-0.303232695962998,1355.9536479686
-0.31244506121457,1355.9636479686
-0.321864581104401,1355.9736479686
-0.331572668259908,1355.9836479686
-0.342463995051174,1355.9936479686
-0.353478925900553,1356.0036479686
-0.364436463974811,1356.0136479686
-0.375113984983435,1356.0236479686
-0.385277659905953,1356.0336479686
-0.395025930861298,1356.0436479686
-0.404653816458464,1356.0536479686
-0.414207115966048,1356.0636479686
-0.423744484901747,1356.0736479686
-0.433235837980768,1356.0836479686
-0.44290696275104,1356.0936479686
-0.452013381009644,1356.1036479686
-0.461092178710563,1356.1136479686
-0.470066285543178,1356.1236479686
-0.478495706891544,1356.1336479686
-0.487349221643209,1356.1436479686
-0.495995084461164,1356.1536479686
-0.505121920279104,1356.1636479686
-0.514002888850507,1356.1736479686
-0.522690321705894,1356.1836479686
-0.530508851555016,1356.1936479686
-0.537747157716941,1356.2036479686
-0.544479719084791,1356.2136479686
-0.551330874351949,1356.2236479686
-0.557917386164635,1356.2336479686
-0.564057477367726,1356.2436479686
-0.57037608287206,1356.2536479686
-0.576634015930664,1356.2636479686
-0.583156849293797,1356.2736479686
-0.590021752791144,1356.2836479686
-0.597332393200839,1356.2936479686
-0.604542254120751,1356.3036479686
-0.611793717775708,1356.3136479686
-0.618670004033415,1356.3236479686
-0.626299939372815,1356.3336479686
-0.633790383487591,1356.3436479686
-0.642004994459475,1356.3536479686
-0.649600120882166,1356.3636479686
-0.65582749439559,1356.3736479686
-0.657945388698818,1356.3836479686
-0.653590190445962,1356.3936479686
-0.640587896256144,1356.4036479686
-0.617332843819153,1356.4136479686
-0.58337376012748,1356.4236479686
-0.539706190981138,1356.4336479686
-0.489291144952559,1356.4436479686
-0.43353267564566,1356.4536479686
-0.375990752596375,1356.4636479686
-0.318882333573981,1356.4736479686
-0.264521439770605,1356.4836479686
-0.215441751732703,1356.4936479686
-0.172021143129818,1356.5036479686
-0.135415814787401,1356.5136479686
-0.104498704161127,1356.5236479686
-0.0796918650899475,1356.5336479686
-0.0593192020135522,1356.5436479686
-0.0431463731501719,1356.5536479686
-0.030142596676228,1356.5636479686
-0.0200568623049865,1356.5736479686
-0.0115246071341526,1356.5836479686
-0.00378443815923469,1356.5936479686
0.0034527552146841,1356.6036479686
0.0107302781661755,1356.6136479686
0.0170214715422987,1356.6236479686
0.0218205848162027,1356.6336479686
0.0239934028607752,1356.6436479686
0.0236388255919518,1356.6536479686
0.0204371573711839,1356.6636479686
0.0146807810928196,1356.6736479686
0.00835986933582179,1356.6836479686
0.00186177914893665,1356.6936479686
-0.0035270410429528,1356.7036479686
-0.00765388303812577,1356.7136479686
-0.0104508487558294,1356.7236479686
-0.0117697534127085,1356.7336479686
-0.0113577094910157,1356.7436479686
-0.0092865175373388,1356.7536479686
-0.0054257786534094,1356.7636479686
0.000541224406378288,1356.7736479686
0.00713452649701749,1356.7836479686
0.0139038968748847,1356.7936479686
0.0206653596665856,1356.8036479686
0.0268493981763196,1356.8136479686
0.0323845090191346,1356.8236479686
0.0378734899798015,1356.8336479686
0.0438143979392939,1356.8436479686
0.0502481452039025,1356.8536479686
0.0570534527861631,1356.8636479686
0.063895276494585,1356.8736479686
0.0700247059568371,1356.8836479686
0.0756325270103838,1356.8936479686
0.0806220596340269,1356.9036479686
0.0848288837027504,1356.9136479686
0.0882495790355541,1356.9236479686
0.0899678086435505,1356.9336479686
0.0891596341779851,1356.9436479686
0.08540771127981,1356.9536479686
0.0793769949289326,1356.9636479686
0.0719919840840678,1356.9736479686
0.0634794411114843,1356.9836479686
0.0538232202359446,1356.9936479686
0.0442441048601379,1357.0036479686
0.0353659023604665,1357.0136479686
0.0279590203321809,1357.0236479686
0.0219458588321484,1357.0336479686
0.0177093842039061,1357.0436479686
0.0145637939582114,1357.0536479686
0.0122946983193414,1357.0636479686
0.0107742136428064,1357.0736479686
0.00954544617353837,1357.0836479686
0.00876368196838299,1357.0936479686
0.00876501638165633,1357.1036479686
0.00983677741514943,1357.1136479686
0.011597648898223,1357.1236479686
0.0143417984327602,1357.1336479686
0.018871571198555,1357.1436479686
0.0247168094811457,1357.1536479686
0.0319054982669165,1357.1636479686
0.0399378627454454,1357.1736479686
0.0487524924551531,1357.1836479686
0.0591897693729334,1357.1936479686
0.0710114421181744,1357.2036479686
0.0843208722352554,1357.2136479686
0.0991814635725942,1357.2236479686
0.11573564216201,1357.2336479686
0.133516980690398,1357.2436479686
0.151141516941795,1357.2536479686
0.168363867202836,1357.2636479686
0.18407759553493,1357.2736479686
0.198412440805006,1357.2836479686
0.211281456738666,1357.2936479686
0.222881125432102,1357.3036479686
0.234586668324595,1357.3136479686
0.246144007961959,1357.3236479686
0.256698530548028,1357.3336479686
0.267232806682167,1357.3436479686
0.278025005088387,1357.3536479686
0.287590218147782,1357.3636479686
0.29595045884569,1357.3736479686
0.30257931915241,1357.3836479686
0.307073469447034,1357.3936479686
0.309789385611801,1357.4036479686
0.312265703794426,1357.4136479686
0.315486409336028,1357.4236479686
0.323091354742923,1357.4336479686
0.339748415486293,1357.4436479686
0.370605351541177,1357.4536479686
0.417848189761311,1357.4636479686
0.481304553479928,1357.4736479686
0.557714686059853,1357.4836479686
0.642669442827719,1357.4936479686
0.731781399414399,1357.5036479686
0.820640701553976,1357.5136479686
0.904639631906796,1357.5236479686
0.98215507188428,1357.5336479686
1.05113308606482,1357.5436479686
1.1117461568265,1357.5536479686
1.16514469905272,1357.5636479686
1.21208429599963,1357.5736479686
1.25499774710125,1357.5836479686
1.29417453147994,1357.5936479686
1.33143816998291,1357.6036479686
1.36682288465839,1357.6136479686
1.40067211819831,1357.6236479686
1.43261562024873,1357.6336479686
1.46180356789766,1357.6436479686
1.48901189820985,1357.6536479686
1.51313487196361,1357.6636479686
1.53396136743708,1357.6736479686
1.5511104605442,1357.6836479686
1.56466323042501,1357.6936479686
1.57456040175776,1357.7036479686
1.58117656279597,1357.7136479686
1.5845257681223,1357.7236479686
1.584640131661,1357.7336479686
1.58177429018405,1357.7436479686
1.5757540607244,1357.7536479686
1.56831212238759,1357.7636479686
1.56049389601946,1357.7736479686
1.55376662868503,1357.7836479686
1.54821089049823,1357.7936479686
1.5445525428956,1357.8036479686
1.54195789127705,1357.8136479686
1.54052656243176,1357.8236479686
1.53984326028436,1357.8336479686
1.53954546969268,1357.8436479686
1.53900008272013,1357.8536479686
1.53816644778849,1357.8636479686
1.53670781293246,1357.8736479686
1.53481735921243,1357.8836479686
1.53045300675221,1357.8936479686
1.52340548732249,1357.9036479686
1.51293111168458,1357.9136479686
1.4989433195139,1357.9236479686
1.48138180049384,1357.9336479686
1.46053214227746,1357.9436479686
1.43714537971165,1357.9536479686
1.41148769902951,1357.9636479686
1.38344952697268,1357.9736479686
1.35346786776138,1357.9836479686
1.32128339832619,1357.9936479686
1.2868831854287,1358.0036479686
1.25004281036116,1358.0136479686
1.21158186498271,1358.0236479686
1.17141517989239,1358.0336479686
1.13032720959693,1358.0436479686
1.08868106330365,1358.0536479686
1.04735894561353,1358.0636479686
1.00668450142195,1358.0736479686
0.96717110803724,1358.0836479686
0.929044871890428,1358.0936479686
0.892216895674759,1358.1036479686
0.856503374250035,1358.1136479686
0.82087265588245,1358.1236479686
0.785016718186455,1358.1336479686
0.748492154675322,1358.1436479686
0.711238658090237,1358.1536479686
0.673444235546608,1358.1636479686
0.635646189228822,1358.1736479686
0.597687306310294,1358.1836479686
0.560183904022615,1358.1936479686
0.523158014288234,1358.2036479686
0.487093105699371,1358.2136479686
0.452492605053848,1358.2236479686
0.420290328549531,1358.2336479686
0.390011844707753,1358.2436479686
0.361854744378715,1358.2536479686
0.336078735024525,1358.2636479686
0.312430843269275,1358.2736479686
0.290806515171512,1358.2836479686
0.270815705349629,1358.2936479686
0.252727326468989,1358.3036479686
0.236606374794933,1358.3136479686
0.222559942863895,1358.3236479686
0.210054514710743,1358.3336479686
0.199059907540288,1358.3436479686
0.188764248307297,1358.3536479686
0.17926487578249,1358.3636479686
0.170647939545735,1358.3736479686
0.163810144083187,1358.3836479686
0.157419519180333,1358.3936479686
0.152611934071361,1358.4036479686
0.150491509328454,1358.4136479686
0.152031033099619,1358.4236479686
0.159961336546292,1358.4336479686
0.177121227697052,1358.4436479686
0.206854690577777,1358.4536479686
0.251444788423952,1358.4636479686
0.312528768254644,1358.4736479686
0.387543041539759,1358.4836479686
0.472111079975769,1358.4936479686
0.561141182153344,1358.5036479686
0.648722315463965,1358.5136479686
0.730928562537588,1358.5236479686
0.8050856446029,1358.5336479686
0.870294333977359,1358.5436479686
0.925126574926872,1358.5536479686
0.970839225364398,1358.5636479686
1.0086782150167,1358.5736479686
1.0395538367796,1358.5836479686
1.06518077923933,1358.5936479686
1.0855920468807,1358.6036479686
1.10197938815655,1358.6136479686
1.11463131791148,1358.6236479686
1.12417567031622,1358.6336479686
1.13135021788143,1358.6436479686
1.13775895313929,1358.6536479686
1.14437310029822,1358.6636479686
1.15104821073017,1358.6736479686
1.15715071996704,1358.6836479686
1.16170331765386,1358.6936479686
1.16392563875127,1358.7036479686
1.16328297998838,1358.7136479686
1.15995690179665,1358.7236479686
1.15446407669511,1358.7336479686
1.14651454399092,1358.7436479686
1.13536424693041,1358.7536479686
1.12014669010312,1358.7636479686
1.098765026902,1358.7736479686
1.06990909539809,1358.7836479686
1.03290767951051,1358.7936479686
0.987044015506159,1358.8036479686
0.934141818665887,1358.8136479686
0.876691552959172,1358.8236479686
0.81625654192851,1358.8336479686
0.754727055443744,1358.8436479686
0.692382301562119,1358.8536479686
0.630070961756044,1358.8636479686
0.567885613136032,1358.8736479686
0.506441300332503,1358.8836479686
0.445214500892559,1358.8936479686
0.385119889416223,1358.9036479686
0.326275715769088,1358.9136479686
0.269463610652224,1358.9236479686
0.213783968594484,1358.9336479686
0.158057321528511,1358.9436479686
0.1022739014035,1358.9536479686
0.0461522883823572,1358.9636479686
-0.0125952758255184,1358.9736479686
-0.074194567507592,1358.9836479686
-0.139766972670703,1358.9936479686
-0.212152401799541,1359.0036479686
-0.293571056810727,1359.0136479686
-0.384596673734963,1359.0236479686
-0.484761604436944,1359.0336479686
-0.592762527831365,1359.0436479686
-0.704927916043648,1359.0536479686
-0.817872486115278,1359.0636479686
-0.929345784277853,1359.0736479686
-1.03691602756697,1359.0836479686
-1.13980376694749,1359.0936479686
-1.23833949854403,1359.1036479686
-1.33260141484356,1359.1136479686
-1.42320772865886,1359.1236479686
-1.51106167895377,1359.1336479686
-1.59590792736875,1359.1436479686
-1.67820776812044,1359.1536479686
-1.75639987750073,1359.1636479686
-1.83129461133514,1359.1736479686
-1.90276095346291,1359.1836479686
-1.97275014253504,1359.1936479686
-2.04064755256623,1359.2036479686
-2.10801616249736,1359.2136479686
-2.17607384719514,1359.2236479686
-2.24687099874218,1359.2336479686
-2.32102767610834,1359.2436479686
-2.39798917829202,1359.2536479686
-2.47431294188497,1359.2636479686
-2.54388777051788,1359.2736479686
-2.60189635867944,1359.2836479686
-2.64511567850677,1359.2936479686
-2.67444576128014,1359.3036479686
-2.69164243584743,1359.3136479686
-2.70008318851626,1359.3236479686
-2.70164936729418,1359.3336479686
-2.69894163482351,1359.3436479686
-2.69245942777446,1359.3536479686
-2.68344851448439,1359.3636479686
-2.67266918396835,1359.3736479686
-2.6591730451863,1359.3836479686
-2.64386973348818,1359.3936479686
-2.62749275257653,1359.4036479686
-2.60996391556634,1359.4136479686
-2.59182371859238,1359.4236479686
-2.57305182670143,1359.4336479686
-2.55308976170878,1359.4436479686
-2.53125221297472,1359.4536479686
-2.5077769358467,1359.4636479686
-2.4839150990989,1359.4736479686
-2.46173220097494,1359.4836479686
-2.4433038097514,1359.4936479686
-2.42839651540096,1359.5036479686
-2.41496625894608,1359.5136479686
-2.39988771689812,1359.5236479686
-2.38044404921969,1359.5336479686
-2.35555370759297,1359.5436479686
-2.32570779995042,1359.5536479686
-2.29130041036954,1359.5636479686
-2.25378089468003,1359.5736479686
-2.21358839168646,1359.5836479686
-2.16995101739779,1359.5936479686
-2.12200363381567,1359.6036479686
-2.068409509356,1359.6136479686
-2.00927649950494,1359.6236479686
-1.94350509944721,1359.6336479686
-1.87067401401886,1359.6436479686
-1.789954914908,1359.6536479686
-1.70118622481537,1359.6636479686
-1.60329400903783,1359.6736479686
-1.49623417149232,1359.6836479686
-1.38051611858707,1359.6936479686
-1.25661734055558,1359.7036479686
-1.12553236800842,1359.7136479686
-0.98918525616415,1359.7236479686
-0.849177527664883,1359.7336479686
-0.708326009599469,1359.7436479686
-0.569467570011839,1359.7536479686
-0.435850293298964,1359.7636479686
-0.310121110925669,1359.7736479686
-0.193617314041212,1359.7836479686
-0.0860664516234574,1359.7936479686
0.0142336842287251,1359.8036479686
0.109046827612077,1359.8136479686
0.201249205650166,1359.8236479686
0.292881644913593,1359.8336479686
0.386012630756171,1359.8436479686
0.481705961192595,1359.8536479686
0.581071999851817,1359.8636479686
0.682943247011265,1359.8736479686
0.786034061433546,1359.8836479686
0.888473264330817,1359.8936479686
0.989053763436987,1359.9036479686
1.08662830376593,1359.9136479686
1.18012686201037,1359.9236479686
1.2688652497091,1359.9336479686
1.35209886658503,1359.9436479686
1.42974019619987,1359.9536479686
1.50051146904767,1359.9636479686
1.56344983713011,1359.9736479686
1.61851620065583,1359.9836479686
1.66695281161267,1359.9936479686
1.7105587342725,1360.0036479686
1.7508504701175,1360.0136479686
1.78924048649781,1360.0236479686
1.82549512910278,1360.0336479686
1.8587735694907,1360.0436479686
1.88764912272245,1360.0536479686
1.91115111021305,1360.0636479686
1.92990792194664,1360.0736479686
1.94687985654704,1360.0836479686
1.96496375175975,1360.0936479686
1.98701421026247,1360.1036479686
2.01321651919883,1360.1136479686
2.04158433840065,1360.1236479686
2.06965584988864,1360.1336479686
2.09392230564777,1360.1436479686
2.11211016272175,1360.1536479686
2.1236900897048,1360.1636479686
2.12955755471268,1360.1736479686
2.13002261921567,1360.1836479686
2.12591029551327,1360.1936479686
2.11700647589762,1360.2036479686
2.10443256093178,1360.2136479686
2.09019801160198,1360.2236479686
2.07528559673726,1360.2336479686
2.05991058818016,1360.2436479686
2.04316149851993,1360.2536479686
2.02464398183401,1360.2636479686
2.00394404702376,1360.2736479686
1.9815945247953,1360.2836479686
1.95786802468884,1360.2936479686
1.93334098046238,1360.3036479686
1.90956181378256,1360.3136479686
1.88866232603066,1360.3236479686
1.87156517566108,1360.3336479686
1.85888174598683,1360.3436479686
1.85091556698472,1360.3536479686
1.85053767825192,1360.3636479686
1.85982366106173,1360.3736479686
1.87984726265748,1360.3836479686
1.90748632227035,1360.3936479686
1.93588133640358,1360.4036479686
1.95872561963447,1360.4136479686
1.96980456981161,1360.4236479686
1.96763210922969,1360.4336479686
1.95348441512414,1360.4436479686
1.92904499475652,1360.4536479686
1.89526025008876,1360.4636479686
1.84904307000787,1360.4736479686
1.78633564397877,1360.4836479686
1.70248614212779,1360.4936479686
1.59406239244524,1360.5036479686
1.46048243791729,1360.5136479686
1.30396316257373,1360.5236479686
1.12851753344167,1360.5336479686
0.940763559891666,1360.5436479686
0.74674550573053,1360.5536479686
0.550526754317883,1360.5636479686
0.354276428515729,1360.5736479686
0.15648920966487,1360.5836479686
-0.0454163092723497,1360.5936479686
-0.253971697741203,1360.6036479686
-0.468736177552945,1360.6136479686
-0.685829031693464,1360.6236479686
-0.90088542944168,1360.6336479686
-1.10953810894547,1360.6436479686
-1.3082617157013,1360.6536479686
-1.49550110801348,1360.6636479686
-1.66909498593573,1360.6736479686
-1.82697194059163,1360.6836479686
-1.9677499637823,1360.6936479686
-2.09198758312052,1360.7036479686
-2.20065488022367,1360.7136479686
-2.296096699013,1360.7236479686
-2.37954678652226,1360.7336479686
-2.45161531439766,1360.7436479686
-2.51409777691342,1360.7536479686
-2.56738030553793,1360.7636479686
-2.61324435571847,1360.7736479686
-2.65339335056979,1360.7836479686
-2.69045226811568,1360.7936479686
-2.72749338673603,1360.8036479686
-2.76744668711293,1360.8136479686
-2.81341331883317,1360.8236479686
-2.86827403156998,1360.8336479686
-2.93450212581923,1360.8436479686
-3.01174465728864,1360.8536479686
-3.10008093582936,1360.8636479686
-3.19663926760783,1360.8736479686
-3.2978311564443,1360.8836479686
-3.39996866028413,1360.8936479686
-3.49769294914299,1360.9036479686
-3.58722991794071,1360.9136479686
-3.66566828173676,1360.9236479686
-3.73075056349155,1360.9336479686
-3.7817130305578,1360.9436479686
-3.8184236156942,1360.9536479686
-3.84186070164394,1360.9636479686
-3.85280711832716,1360.9736479686
-3.85398341261577,1360.9836479686
-3.8470325815047,1360.9936479686
-3.83455096907057,1361.0036479686
-3.81726167467885,1361.0136479686
-3.79562459911473,1361.0236479686
-3.77028537901419,1361.0336479686
-3.74319335469409,1361.0436479686
-3.71752940697479,1361.0536479686
-3.69574905816465,1361.0636479686
-3.68091797822091,1361.0736479686
-3.67425207302225,1361.0836479686
-3.6750597319296,1361.0936479686
-3.68228972666749,1361.1036479686
-3.69419855216436,1361.1136479686
-3.70797268393137,1361.1236479686
-3.72039219715674,1361.1336479686
-3.72757698683074,1361.1436479686
-3.72465673206502,1361.1536479686
-3.70717675404622,1361.1636479686
-3.67165648571222,1361.1736479686
-3.61742274985299,1361.1836479686
-3.54657004041855,1361.1936479686
-3.46411574792054,1361.2036479686
-3.37680495815033,1361.2136479686
-3.2932368138958,1361.2236479686
-3.22194614231991,1361.2336479686
-3.16826506601592,1361.2436479686
-3.13555617000975,1361.2536479686
-3.12417385560959,1361.2636479686
-3.13302510901128,1361.2736479686
-3.15897197377907,1361.2836479686
-3.19752928423798,1361.2936479686
-3.24626456231446,1361.3036479686
-3.3024555790784,1361.3136479686
-3.36779223785637,1361.3236479686
-3.44167261951584,1361.3336479686
-3.52433090091088,1361.3436479686
-3.61861962867171,1361.3536479686
-3.72799481796248,1361.3636479686
-3.8568788865717,1361.3736479686
-4.00542540502506,1361.3836479686
-4.17110400975943,1361.3936479686
-4.3486468525909,1361.4036479686
-4.53120054983072,1361.4136479686
-4.71023004673432,1361.4236479686
-4.87735713424901,1361.4336479686
-5.02580596733881,1361.4436479686
-5.15275554135119,1361.4536479686
-5.25569951257809,1361.4636479686
-5.33570966141763,1361.4736479686
-5.39476700646372,1361.4836479686
-5.43597305163956,1361.4936479686
-5.46218661099846,1361.5036479686
-5.47544212068884,1361.5136479686
-5.47706974143316,1361.5236479686
-5.46696354229606,1361.5336479686
-5.44464789286212,1361.5436479686
-5.40867101965868,1361.5536479686
-5.35915066539221,1361.5636479686
-5.29609495120116,1361.5736479686
-5.21919052039632,1361.5836479686
-5.129581713512,1361.5936479686
-5.02909265312007,1361.6036479686
-4.92062184302707,1361.6136479686
-4.80720593692172,1361.6236479686
-4.6922747504299,1361.6336479686
-4.58012543642751,1361.6436479686
-4.47437458139725,1361.6536479686
-4.37833800565247,1361.6636479686
-4.29370592525843,1361.6736479686
-4.22041772880768,1361.6836479686
-4.15857501328064,1361.6936479686
-4.10603471753113,1361.7036479686
-4.06110886857215,1361.7136479686
-4.02037168142088,1361.7236479686
-3.98087805872027,1361.7336479686
-3.94042880750484,1361.7436479686
-3.89599618860177,1361.7536479686
-3.84704661943669,1361.7636479686
-3.79215898809646,1361.7736479686
-3.73267267636871,1361.7836479686
-3.66829002020299,1361.7936479686
-3.60067361801986,1361.8036479686
-3.53082853886065,1361.8136479686
-3.4603920019298,1361.8236479686
-3.38996771574168,1361.8336479686
-3.32070750860679,1361.8436479686
-3.25390916179084,1361.8536479686
-3.19011045922799,1361.8636479686
-3.13109503833386,1361.8736479686
-3.07735538285547,1361.8836479686
-3.02899033761344,1361.8936479686
-2.98540132244328,1361.9036479686
-2.94531512867806,1361.9136479686
-2.90609580485141,1361.9236479686
-2.86488441006613,1361.9336479686
-2.81815758622972,1361.9436479686
-2.76136618559777,1361.9536479686
-2.69033345394753,1361.9636479686
-2.60221963121902,1361.9736479686
-2.49581767061187,1361.9836479686
-2.37297797342955,1361.9936479686
-2.23730855434227,1362.0036479686
-2.09598054083621,1362.0136479686
-1.95691572237751,1362.0236479686
-1.82484582910259,1362.0336479686
-1.70477717249571,1362.0436479686
-1.59740874174912,1362.0536479686
-1.50386269877714,1362.0636479686
-1.42342248926716,1362.0736479686
-1.35374126177228,1362.0836479686
-1.29165490745534,1362.0936479686
-1.23461469015294,1362.1036479686
-1.18108180983799,1362.1136479686
-1.13098963018894,1362.1236479686
-1.08500752010367,1362.1336479686
-1.04221972272842,1362.1436479686
-1.00134385437098,1362.1536479686
-0.961519761563807,1362.1636479686
-0.92200407513985,1362.1736479686
-0.88188712051325,1362.1836479686
-0.843314192951224,1362.1936479686
-0.809257002531074,1362.2036479686
-0.782959061980409,1362.2136479686
-0.767137101647167,1362.2236479686
-0.761849845463041,1362.2336479686
-0.7673207827152,1362.2436479686
-0.78061785362261,1362.2536479686
-0.800148040001439,1362.2636479686
-0.822183816875829,1362.2736479686
-0.844211405683745,1362.2836479686
-0.864928887218199,1362.2936479686
-0.882647362579591,1362.3036479686
-0.897055401645376,1362.3136479686
-0.910667318553336,1362.3236479686
-0.926069948733989,1362.3336479686
-0.945624841036534,1362.3436479686
-0.970524225414125,1362.3536479686
-0.99931340214175,1362.3636479686
-1.03089923764539,1362.3736479686
-1.06299425299672,1362.3836479686
-1.09432119266145,1362.3936479686
-1.12376272413443,1362.4036479686
-1.1511122097728,1362.4136479686
-1.17661208039713,1362.4236479686
-1.19868007049681,1362.4336479686
-1.21627326646863,1362.4436479686
-1.22913917407532,1362.4536479686
-1.23865232527919,1362.4636479686
-1.24714249567143,1362.4736479686
-1.25611174243831,1362.4836479686
-1.26658142906861,1362.4936479686
-1.27859620486287,1362.5036479686
-1.29070851087592,1362.5136479686
-1.30224175306242,1362.5236479686
-1.3111831316786,1362.5336479686
-1.31671671532422,1362.5436479686
-1.31751510066208,1362.5536479686
-1.30963221181738,1362.5636479686
-1.28978051409298,1362.5736479686
-1.25800831991114,1362.5836479686
-1.21764060811226,1362.5936479686
-1.1717095223966,1362.6036479686
-1.12402919843173,1362.6136479686
-1.07597532581527,1362.6236479686
-1.02508360658055,1362.6336479686
-0.968558680971577,1362.6436479686
-0.905429900144448,1362.6536479686
-0.839473079945358,1362.6636479686
-0.776064606368422,1362.6736479686
-0.720777155135987,1362.6836479686
-0.673822245554745,1362.6936479686
-0.63401082263311,1362.7036479686
-0.599033082334257,1362.7136479686
-0.564899730368828,1362.7236479686
-0.527816471717323,1362.7336479686
-0.481876985144143,1362.7436479686
-0.423480365566291,1362.7536479686
-0.349814316138685,1362.7636479686
-0.26321723806515,1362.7736479686
-0.16778767598338,1362.7836479686
-0.0655637921914401,1362.7936479686
0.0440054434247618,1362.8036479686
0.162947824596904,1362.8136479686
0.293382853648627,1362.8236479686
0.435357047939748,1362.8336479686
0.587376827844407,1362.8436479686
0.746640975928565,1362.8536479686
0.910960456719105,1362.8636479686
1.07725076752311,1362.8736479686
1.24105537475077,1362.8836479686
1.39741608612134,1362.8936479686
1.54065749087672,1362.9036479686
1.6682161787882,1362.9136479686
1.77980228045528,1362.9236479686
1.87562263085794,1362.9336479686
1.95855781939598,1362.9436479686
2.03140981016004,1362.9536479686
2.09575642149793,1362.9636479686
2.15181940954301,1362.9736479686
2.19748252340277,1362.9836479686
2.23112968816954,1362.9936479686
2.25028021678243,1363.0036479686
2.25449668323628,1363.0136479686
2.24493764387435,1363.0236479686
2.22391860955502,1363.0336479686
2.19495845457646,1363.0436479686
2.15957624869679,1363.0536479686
2.11682361683744,1363.0636479686
2.06511278910571,1363.0736479686
2.00388610870531,1363.0836479686
1.9330185633769,1363.0936479686
1.85419213446161,1363.1036479686
1.7692838361504,1363.1136479686
1.67958541372199,1363.1236479686
1.58562489192591,1363.1336479686
1.48856362360893,1363.1436479686
1.3899657559108,1363.1536479686
1.29354182928571,1363.1636479686
1.20179581135218,1363.1736479686
1.11371869430429,1363.1836479686
1.02747029135826,1363.1936479686
0.940086759468826,1363.2036479686
0.851631839603924,1363.2136479686
0.764477554904496,1363.2236479686
0.685176555489818,1363.2336479686
0.617534059290549,1363.2436479686
0.561312200933497,1363.2536479686
0.51139034176616,1363.2636479686
0.459384138048517,1363.2736479686
0.398376895111631,1363.2836479686
0.322999638084961,1363.2936479686
0.229607730911606,1363.3036479686
0.117025367580072,1363.3136479686
-0.0123117702396743,1363.3236479686
-0.154879483248829,1363.3336479686
-0.305280481066381,1363.3436479686
-0.458289723137384,1363.3536479686
-0.609608071468105,1363.3636479686
-0.756729380579669,1363.3736479686
-0.896886252823684,1363.3836479686
-1.02710142129938,1363.3936479686
-1.14445305611786,1363.4036479686
-1.24708839184593,1363.4136479686
-1.33601782394276,1363.4236479686
-1.41249079170465,1363.4336479686
-1.47985570285216,1363.4436479686
-1.54270279879628,1363.4536479686
-1.60492355631494,1363.4636479686
-1.6701363617591,1363.4736479686
-1.73948009248226,1363.4836479686
-1.81355144203813,1363.4936479686
-1.89027081977492,1363.5036479686
-1.96894409364549,1363.5136479686
-2.0483503209765,1363.5236479686
-2.1291152413882,1363.5336479686
-2.21178347153199,1363.5436479686
-2.29644945610741,1363.5536479686
-2.38133088923069,1363.5636479686
-2.46681521606127,1363.5736479686
-2.55303591054859,1363.5836479686
-2.63902849721437,1363.5936479686
-2.72267636477685,1363.6036479686
-2.80141908805776,1363.6136479686
-2.87104322926592,1363.6236479686
-2.92998960301798,1363.6336479686
-2.97619615389834,1363.6436479686
-3.01261811874627,1363.6536479686
-3.0410222263066,1363.6636479686
-3.06541220954619,1363.6736479686
-3.08770538952105,1363.6836479686
-3.10884592434101,1363.6936479686
-3.12939355515044,1363.7036479686
-3.14777645472765,1363.7136479686
-3.16159497765187,1363.7236479686
-3.16645041896823,1363.7336479686
-3.15652966126165,1363.7436479686
-3.12791205514739,1363.7536479686
-3.07924244698043,1363.7636479686
-3.0110177972794,1363.7736479686
-2.92888944565287,1363.7836479686
-2.83989158291943,1363.7936479686
-2.75121916665385,1363.8036479686
-2.66908329092321,1363.8136479686
-2.5966093202907,1363.8236479686
-2.53530877911501,1363.8336479686
-2.48608043955766,1363.8436479686
-2.44931308338787,1363.8536479686
-2.42536247877177,1363.8636479686
-2.41318091469148,1363.8736479686
-2.41050589570543,1363.8836479686
-2.413341735367,1363.8936479686
-2.41762230717102,1363.9036479686
-2.41901356196921,1363.9136479686
-2.41404437158794,1363.9236479686
-2.40045565310112,1363.9336479686
-2.37852087884522,1363.9436479686
-2.35028267719793,1363.9536479686
-2.3181039277291,1363.9636479686
-2.28284021711124,1363.9736479686
-2.24474964002114,1363.9836479686
-2.20343812456891,1363.9936479686
-2.15953071667207,1364.0036479686
-2.11473806677661,1364.0136479686
-2.07085793740085,1364.0236479686
-2.0280143198929,1364.0336479686
-1.98537999678828,1364.0436479686
-1.94189000875177,1364.0536479686
-1.89601844577774,1364.0636479686
-1.84641346178688,1364.0736479686
-1.79261757428617,1364.0836479686
-1.73474647904104,1364.0936479686
-1.67235314639126,1364.1036479686
-1.60640135064709,1364.1136479686
-1.5371220439131,1364.1236479686
-1.46622411667748,1364.1336479686
-1.39483785390054,1364.1436479686
-1.32524485485369,1364.1536479686
-1.2597034094977,1364.1636479686
-1.20079154223427,1364.1736479686
-1.15140001401833,1364.1836479686
-1.11295286073528,1364.1936479686
-1.08768740018375,1364.2036479686
-1.07575856191857,1364.2136479686
-1.07576770226346,1364.2236479686
-1.08578124168028,1364.2336479686
-1.10171170265832,1364.2436479686
-1.12101404978413,1364.2536479686
-1.1411625163242,1364.2636479686
-1.16259211733979,1364.2736479686
-1.18498863984919,1364.2836479686
-1.20933071466746,1364.2936479686
-1.23581302138615,1364.3036479686
-1.26591548609317,1364.3136479686
-1.30005615868934,1364.3236479686
-1.33899083130202,1364.3336479686
-1.38221143576453,1364.3436479686
-1.42911454328538,1364.3536479686
-1.47992601150758,1364.3636479686
-1.53386826422643,1364.3736479686
-1.58917972745124,1364.3836479686
-1.64620220648556,1364.3936479686
-1.70343755834273,1364.4036479686
-1.76092865888889,1364.4136479686
-1.81840733607132,1364.4236479686
-1.87472952299174,1364.4336479686
-1.92994723439991,1364.4436479686
-1.98350020703741,1364.4536479686
-2.0331972292712,1364.4636479686
-2.07979189184379,1364.4736479686
-2.12304091470756,1364.4836479686
-2.16300161831447,1364.4936479686
-2.19973955675451,1364.5036479686
-2.23392030601018,1364.5136479686
-2.2646814519831,1364.5236479686
-2.29206036339714,1364.5336479686
-2.31531902193764,1364.5436479686
-2.33468780469036,1364.5536479686
-2.35030588956408,1364.5636479686
-2.36166274051953,1364.5736479686
-2.3687000953645,1364.5836479686
-2.36964014861784,1364.5936479686
-2.3621700792167,1364.6036479686
-2.34132808228247,1364.6136479686
-2.30157629988822,1364.6236479686
-2.23912840617128,1364.6336479686
-2.15258478934187,1364.6436479686
-2.04136899888739,1364.6536479686
-1.91000021161528,1364.6636479686
-1.76361261117663,1364.6736479686
-1.61061900379635,1364.6836479686
-1.46154463768848,1364.6936479686
-1.32465040228883,1364.7036479686
-1.20444168090766,1364.7136479686
-1.10096456345366,1364.7236479686
-1.0115713998238,1364.7336479686
-0.934597074104776,1364.7436479686
-0.869565331709056,1364.7536479686
-0.817480590313308,1364.7636479686
-0.780218398012212,1364.7736479686
-0.757957425030334,1364.7836479686
-0.751621095955498,1364.7936479686
-0.760672055181511,1364.8036479686
-0.785311177701136,1364.8136479686
-0.825549540736942,1364.8236479686
-0.880259264369424,1364.8336479686
-0.948971515065821,1364.8436479686
-1.03069832016771,1364.8536479686
-1.12446897185289,1364.8636479686
-1.22776921139516,1364.8736479686
-1.3387753846137,1364.8836479686
-1.45351958825431,1364.8936479686
-1.56729914409455,1364.9036479686
-1.67559837846528,1364.9136479686
-1.77520893013736,1364.9236479686
-1.86538825136966,1364.9336479686
-1.94589768326486,1364.9436479686
-2.01851337456302,1364.9536479686
-2.08391918238709,1364.9636479686
-2.1443052549979,1364.9736479686
-2.19904041087314,1364.9836479686
-2.24947354808612,1364.9936479686
-2.29477031912888,1365.0036479686
-2.33516097255246,1365.0136479686
-2.37039092621032,1365.0236479686
-2.40076579697152,1365.0336479686
-2.42688088229692,1365.0436479686
-2.45007108083464,1365.0536479686
-2.4717988138385,1365.0636479686
-2.4938433881487,1365.0736479686
-2.51735732348291,1365.0836479686
-2.54340900776118,1365.0936479686
-2.57284467915818,1365.1036479686
-2.60541751010694,1365.1136479686
-2.6399383827499,1365.1236479686
-2.67678719341052,1365.1336479686
-2.71552709295759,1365.1436479686
-2.75641080680345,1365.1536479686
-2.79969784319143,1365.1636479686
-2.84527233631185,1365.1736479686
-2.89257012963725,1365.1836479686
-2.94147538386042,1365.1936479686
-2.99126936640931,1365.2036479686
-3.04234905281014,1365.2136479686
-3.09304276124275,1365.2236479686
-3.14186988231287,1365.2336479686
-3.18811555954617,1365.2436479686
-3.23119874102399,1365.2536479686
-3.2702302636683,1365.2636479686
-3.30637000658132,1365.2736479686
-3.33984040190452,1365.2836479686
-3.3714741369708,1365.2936479686
-3.40127427445901,1365.3036479686
-3.4287335529447,1365.3136479686
-3.45459267486654,1365.3236479686
-3.47869717925123,1365.3336479686
-3.50206369448102,1365.3436479686
-3.52474183032527,1365.3536479686
-3.54644007819125,1365.3636479686
-3.56808357763954,1365.3736479686
-3.58889706957702,1365.3836479686
-3.60806182091084,1365.3936479686
-3.62706288161503,1365.4036479686
-3.64530763941957,1365.4136479686
-3.66240831567665,1365.4236479686
-3.67837331144189,1365.4336479686
-3.69158585402599,1365.4436479686
-3.7011291187228,1365.4536479686
-3.70459114110648,1365.4636479686
-3.69956829811221,1365.4736479686
-3.68345984532677,1365.4836479686
-3.65409166552172,1365.4936479686
-3.61197520668831,1365.5036479686
-3.55864546154832,1365.5136479686
-3.49671337416384,1365.5236479686
-3.43037327843502,1365.5336479686
-3.36216361924977,1365.5436479686
-3.29511347169573,1365.5536479686
-3.23079091220034,1365.5636479686
-3.16928012528362,1365.5736479686
-3.1112172242847,1365.5836479686
-3.05558572624594,1365.5936479686
-3.00121102662193,1365.6036479686
-2.94854999722472,1365.6136479686
-2.89639944134135,1365.6236479686
-2.84407902090754,1365.6336479686
-2.79132551992807,1365.6436479686
-2.73741598178446,1365.6536479686
-2.68184761395094,1365.6636479686
-2.62491621448551,1365.6736479686
-2.56592877892307,1365.6836479686
-2.5051921248124,1365.6936479686
-2.44123770072843,1365.7036479686
-2.37369141013006,1365.7136479686
-2.30159083602748,1365.7236479686
-2.22391303648809,1365.7336479686
-2.14108816992305,1365.7436479686
-2.05341670382955,1365.7536479686
-1.96310647272426,1365.7636479686
-1.87141594640877,1365.7736479686
-1.78056807555565,1365.7836479686
-1.69092154461798,1365.7936479686
-1.60255410515092,1365.8036479686
-1.51503496554408,1365.8136479686
-1.42707896634126,1365.8236479686
-1.33783623800216,1365.8336479686
-1.24627540928219,1365.8436479686
-1.15242960038274,1365.8536479686
-1.05576155905442,1365.8636479686
-0.955865129044011,1365.8736479686
-0.854234437172422,1365.8836479686
-0.750714175513169,1365.8936479686
-0.646997880696845,1365.9036479686
-0.544509054329354,1365.9136479686
-0.444404650500707,1365.9236479686
-0.346126008523446,1365.9336479686
-0.24717275904565,1365.9436479686
-0.143424923908556,1365.9536479686
-0.0325238365197298,1365.9636479686
0.0856133390475544,1365.9736479686
0.209408440082611,1365.9836479686
0.332613526276869,1365.9936479686
0.449661207767889,1366.0036479686
0.556493400182935,1366.0136479686
0.652010256309536,1366.0236479686
0.738685049090862,1366.0336479686
0.820749320044002,1366.0436479686
0.901078029688599,1366.0536479686
0.98099839409749,1366.0636479686
1.06070537393887,1366.0736479686
1.13878676754427,1366.0836479686
1.21398796254113,1366.0936479686
1.28581282056056,1366.1036479686
1.35431543966444,1366.1136479686
1.41894321849357,1366.1236479686
1.4803611982835,1366.1336479686
1.53775870009783,1366.1436479686
1.59143674165565,1366.1536479686
1.64099776403329,1366.1636479686
1.68669815966984,1366.1736479686
1.72968985758473,1366.1836479686
1.77014804735856,1366.1936479686
1.80803661628875,1366.2036479686
1.84403144811927,1366.2136479686
1.87842777154824,1366.2236479686
1.91051940796734,1366.2336479686
1.94052141274697,1366.2436479686
1.96830926647063,1366.2536479686
1.99392862975499,1366.2636479686
2.01748521214985,1366.2736479686
2.04029397753201,1366.2836479686
2.06233975826848,1366.2936479686
2.08483114927056,1366.3036479686
2.10956064953645,1366.3136479686
2.13737469128091,1366.3236479686
2.1715908096896,1366.3336479686
2.21392520369332,1366.3436479686
2.26542374627829,1366.3536479686
2.32727816720202,1366.3636479686
2.3987519784763,1366.3736479686
2.47719094563407,1366.3836479686
2.55873762754718,1366.3936479686
2.63973263354279,1366.4036479686
2.71746721130067,1366.4136479686
2.78975737230894,1366.4236479686
2.85411795718201,1366.4336479686
2.90899691283252,1366.4436479686
2.95445038435281,1366.4536479686
2.99038150883018,1366.4636479686
3.01906228187276,1366.4736479686
3.04297041228227,1366.4836479686
3.06361029390849,1366.4936479686
3.08232939352095,1366.5036479686
3.09968982923554,1366.5136479686
3.11616352836194,1366.5236479686
3.13128155248998,1366.5336479686
3.14399221793689,1366.5436479686
3.15388333765003,1366.5536479686
3.16063722458099,1366.5636479686
3.16392137776411,1366.5736479686
3.1631502622905,1366.5836479686
3.15909479490898,1366.5936479686
3.15379441518974,1366.6036479686
3.1480123114314,1366.6136479686
3.14361988474091,1366.6236479686
3.14214256212467,1366.6336479686
3.1443028208638,1366.6436479686
3.1507999003913,1366.6536479686
3.1607666121813,1366.6636479686
3.1719632495838,1366.6736479686
3.18403787903796,1366.6836479686
3.19506624549224,1366.6936479686
3.20392596942414,1366.7036479686
3.21063914526967,1366.7136479686
3.21463981148994,1366.7236479686
3.2153235761255,1366.7336479686
3.21311142742092,1366.7436479686
3.20721149506234,1366.7536479686
3.19851269165119,1366.7636479686
3.18728062277929,1366.7736479686
3.17485230426904,1366.7836479686
3.16177753599836,1366.7936479686
3.14850948917934,1366.8036479686
3.13417751412345,1366.8136479686
3.11883007755371,1366.8236479686
3.1023506523187,1366.8336479686
3.08380150457334,1366.8436479686
3.06258084794619,1366.8536479686
3.03930531240875,1366.8636479686
3.01349287596193,1366.8736479686
2.98574380510046,1366.8836479686
2.95544478494536,1366.8936479686
2.9225338793053,1366.9036479686
2.88709926520044,1366.9136479686
2.84831780115289,1366.9236479686
2.80688735685641,1366.9336479686
2.76212168518761,1366.9436479686
2.71552342026008,1366.9536479686
2.66809583608776,1366.9636479686
2.62107121843204,1366.9736479686
2.57645724401512,1366.9836479686
2.53451714176758,1366.9936479686
2.49613629333107,1367.0036479686
2.46155013958662,1367.0136479686
2.43024698436495,1367.0236479686
2.40134918433061,1367.0336479686
2.37428445181118,1367.0436479686
2.3481491405561,1367.0536479686
2.32293559337045,1367.0636479686
2.29773885295978,1367.0736479686
2.2727393699915,1367.0836479686
2.2479230483974,1367.0936479686
2.22382474101249,1367.1036479686
2.20023455072757,1367.1136479686
2.17808871921149,1367.1236479686
2.15982804219173,1367.1336479686
2.14676377147481,1367.1436479686
2.14159301571796,1367.1536479686
2.14709703435842,1367.1636479686
2.1642217120277,1367.1736479686
2.19350199283748,1367.1836479686
2.23394869216248,1367.1936479686
2.28305820756715,1367.2036479686
2.33815092407781,1367.2136479686
2.39585086757648,1367.2236479686
2.45180556978344,1367.2336479686
2.50333644102231,1367.2436479686
2.54806251762005,1367.2536479686
2.58532348741434,1367.2636479686
2.61474503634247,1367.2736479686
2.63690643533047,1367.2836479686
2.65316677970677,1367.2936479686
2.66410042998561,1367.3036479686
2.67097633001792,1367.3136479686
2.6741329934563,1367.3236479686
2.67393848583691,1367.3336479686
2.67043189725791,1367.3436479686
2.66436822890317,1367.3536479686
2.65518471187381,1367.3636479686
2.64300146461215,1367.3736479686
2.62743870737664,1367.3836479686
2.60880203974142,1367.3936479686
2.58762102826421,1367.4036479686
2.56379811866489,1367.4136479686
2.53766897507459,1367.4236479686
2.50990369327954,1367.4336479686
2.48114273937669,1367.4436479686
2.45294798614445,1367.4536479686
2.42539145176265,1367.4636479686
2.399647580932,1367.4736479686
2.37662008247196,1367.4836479686
2.35585933447359,1367.4936479686
2.33734670717053,1367.5036479686
2.32074420369724,1367.5136479686
2.30458965726003,1367.5236479686
2.28826318045429,1367.5336479686
2.27077239040645,1367.5436479686
2.25054776894199,1367.5536479686
2.22841787440906,1367.5636479686
2.20298509944509,1367.5736479686
2.17494075717072,1367.5836479686
2.14467124199131,1367.5936479686
2.11132043938536,1367.6036479686
2.07557660876008,1367.6136479686
2.03657805815307,1367.6236479686
1.99531490810638,1367.6336479686
1.95279724427259,1367.6436479686
1.90989660822988,1367.6536479686
1.86713729570667,1367.6636479686
1.82577868419432,1367.6736479686
1.78543441525342,1367.6836479686
1.74716094794335,1367.6936479686
1.71105592198328,1367.7036479686
1.67730100938128,1367.7136479686
1.6464530533287,1367.7236479686
1.61740445248385,1367.7336479686
1.59022759192294,1367.7436479686
1.56367077195309,1367.7536479686
1.53825209719118,1367.7636479686
1.51397674928375,1367.7736479686
1.49017926234084,1367.7836479686
1.46722968696815,1367.7936479686
1.44589112447887,1367.8036479686
1.42657356870247,1367.8136479686
1.41042351607451,1367.8236479686
1.39778834446858,1367.8336479686
1.38849337180846,1367.8436479686
1.3835692199351,1367.8536479686
1.38239018657598,1367.8636479686
1.38565601944787,1367.8736479686
1.393204912117,1367.8836479686
1.4056874022883,1367.8936479686
1.4218779973136,1367.9036479686
1.44018318526703,1367.9136479686
1.4606049027122,1367.9236479686
1.48459435766437,1367.9336479686
1.51526428197579,1367.9436479686
1.55646994039142,1367.9536479686
1.61016932769794,1367.9636479686
1.67801400579225,1367.9736479686
1.76088340319586,1367.9836479686
1.85761618629312,1367.9936479686
1.96524875627,1368.0036479686
2.08081825136695,1368.0136479686
2.20061587899562,1368.0236479686
2.32188735669091,1368.0336479686
2.44073488403076,1368.0436479686
2.55325993060002,1368.0536479686
2.65683348818042,1368.0636479686
2.74965359159528,1368.0736479686
2.83096209199791,1368.0836479686
2.90054964881444,1368.0936479686
2.96020018470863,1368.1036479686
3.00956776152672,1368.1136479686
3.05038138040765,1368.1236479686
3.08200374477261,1368.1336479686
3.10538038697012,1368.1436479686
3.1215379147933,1368.1536479686
3.13176921021588,1368.1636479686
3.13569749962747,1368.1736479686
3.13512088369947,1368.1836479686
3.13011807291977,1368.1936479686
3.12042072855361,1368.2036479686
3.10771951140492,1368.2136479686
3.091106122024,1368.2236479686
3.07192083617163,1368.2336479686
3.05056316433384,1368.2436479686
3.02676935058808,1368.2536479686
3.00204511670366,1368.2636479686
2.97591005283549,1368.2736479686
2.94954530843072,1368.2836479686
2.9242174402002,1368.2936479686
2.9005588574451,1368.3036479686
2.87880846937473,1368.3136479686
2.85913983319874,1368.3236479686
2.84064486002462,1368.3336479686
2.8239183150088,1368.3436479686
2.80832995400731,1368.3536479686
2.79421874496433,1368.3636479686
2.78201245840864,1368.3736479686
2.77078043441256,1368.3836479686
2.75962837951534,1368.3936479686
2.7485740129782,1368.4036479686
2.7367141007854,1368.4136479686
2.72404568748447,1368.4236479686
2.71002479476792,1368.4336479686
2.69515663117641,1368.4436479686
2.6786573393472,1368.4536479686
2.66113563340898,1368.4636479686
2.64193794915909,1368.4736479686
2.62204181810003,1368.4836479686
2.60188772231982,1368.4936479686
2.58098129871291,1368.5036479686
2.56050966322224,1368.5136479686
2.54012009632107,1368.5236479686
2.51949767420017,1368.5336479686
2.49931213431348,1368.5436479686
2.47847051432595,1368.5536479686
2.45749732830626,1368.5636479686
2.43594276167756,1368.5736479686
2.41378197630884,1368.5836479686
2.39175723221881,1368.5936479686
2.37043088101361,1368.6036479686
2.34918103371918,1368.6136479686
2.32833922023237,1368.6236479686
2.30801436932852,1368.6336479686
2.28789906471412,1368.6436479686
2.26792212934557,1368.6536479686
2.24814433192254,1368.6636479686
2.22887160732772,1368.6736479686
2.21071798728041,1368.6836479686
2.19365909868067,1368.6936479686
2.17785962978528,1368.7036479686
2.16324038708373,1368.7136479686
2.14956191804159,1368.7236479686
2.13647030514217,1368.7336479686
2.1236952325838,1368.7436479686
2.1114219946062,1368.7536479686
2.09864111140295,1368.7636479686
2.0864204034919,1368.7736479686
2.07381502867074,1368.7836479686
2.06115357873565,1368.7936479686
2.04817896283242,1368.8036479686
2.03549030521232,1368.8136479686
2.02464349581352,1368.8236479686
2.01751907642386,1368.8336479686
2.01617305536055,1368.8436479686
2.02273000893774,1368.8536479686
2.0378049868892,1368.8636479686
2.06056387392176,1368.8736479686
2.08998784322821,1368.8836479686
2.12337952025639,1368.8936479686
2.16006925865865,1368.9036479686
2.19804892621563,1368.9136479686
2.23614055092631,1368.9236479686
2.27186257789673,1368.9336479686
2.30332288313695,1368.9436479686
2.32994073462773,1368.9536479686
2.3508817844923,1368.9636479686
2.3655760999837,1368.9736479686
2.37524263686662,1368.9836479686
2.38101177798108,1368.9936479686
2.38322030265951,1369.0036479686
2.38312803648528,1369.0136479686
2.38155998945,1369.0236479686
2.37878024979375,1369.0336479686
2.37518757963778,1369.0436479686
2.37041268435822,1369.0536479686
2.36489516443775,1369.0636479686
2.35816571585897,1369.0736479686
2.35070147670124,1369.0836479686
2.34065731070216,1369.0936479686
2.32788484800515,1369.1036479686
2.31216221081983,1369.1136479686
2.29357077341613,1369.1236479686
2.27276752533582,1369.1336479686
2.2516817736651,1369.1436479686
2.23128917674323,1369.1536479686
2.21196154485365,1369.1636479686
2.19449989922641,1369.1736479686
2.17866583876208,1369.1836479686
2.16481329874629,1369.1936479686
2.15236114487535,1369.2036479686
2.1410512347913,1369.2136479686
2.13016751541291,1369.2236479686
2.12010282728375,1369.2336479686
2.11038956768825,1369.2436479686
2.10014671357275,1369.2536479686
2.0896581704379,1369.2636479686
2.07884191687752,1369.2736479686
2.06796861789223,1369.2836479686
2.05638835837156,1369.2936479686
2.0439777020625,1369.3036479686
2.03103021220573,1369.3136479686
2.01686860039797,1369.3236479686
2.00130082350182,1369.3336479686
1.9842410114114,1369.3436479686
1.96626443685376,1369.3536479686
1.94798301786422,1369.3636479686
1.9303072639656,1369.3736479686
1.91281130646091,1369.3836479686
1.89544171140155,1369.3936479686
1.87766320085487,1369.4036479686
1.85967680033435,1369.4136479686
1.84080044695813,1369.4236479686
1.82141427985999,1369.4336479686
1.8023905506374,1369.4436479686
1.78236347189887,1369.4536479686
1.76228979893396,1369.4636479686
1.74222445799969,1369.4736479686
1.72246306628468,1369.4836479686
1.70307168745457,1369.4936479686
1.68406195697352,1369.5036479686
1.66566185899012,1369.5136479686
1.64790855437999,1369.5236479686
1.63042160672754,1369.5336479686
1.61310140674644,1369.5436479686
1.59608926320856,1369.5536479686
1.57870727453571,1369.5636479686
1.56127605922077,1369.5736479686
1.54356535206278,1369.5836479686
1.52598908308235,1369.5936479686
1.50862127200699,1369.6036479686
1.49115293504614,1369.6136479686
1.47391345526932,1369.6236479686
1.45698039078906,1369.6336479686
1.44105456996683,1369.6436479686
1.42567880248169,1369.6536479686
1.41098582780937,1369.6636479686
1.39696748201868,1369.6736479686
1.38385982754793,1369.6836479686
1.37157022351132,1369.6936479686
1.36005395013735,1369.7036479686
1.34858340948059,1369.7136479686
1.33742076306281,1369.7236479686
1.32558853213687,1369.7336479686
1.31374114634493,1369.7436479686
1.30212522476502,1369.7536479686
1.29091328522229,1369.7636479686
1.27914959152038,1369.7736479686
1.26699572351208,1369.7836479686
1.25498450461026,1369.7936479686
1.24216603914688,1369.8036479686
1.22865689419029,1369.8136479686
1.21506885966822,1369.8236479686
1.20132521644045,1369.8336479686
1.18818893787048,1369.8436479686
1.17619043836792,1369.8536479686
1.16688317586692,1369.8636479686
1.1620327381503,1369.8736479686
1.1638611504286,1369.8836479686
1.17419971510331,1369.8936479686
1.19444082466067,1369.9036479686
1.22321320870449,1369.9136479686
1.25949113055597,1369.9236479686
1.30151176240994,1369.9336479686
1.34480355305871,1369.9436479686
1.38795511642783,1369.9536479686
1.42808078914147,1369.9636479686
1.4638254006769,1369.9736479686
1.4936905411836,1369.9836479686
1.51742318766394,1369.9936479686
1.53562001287985,1370.0036479686
1.54845694573559,1370.0136479686
1.55671487479156,1370.0236479686
1.5615851785382,1370.0336479686
1.56411144429006,1370.0436479686
1.56421250135824,1370.0536479686
1.5635678324897,1370.0636479686
1.56171279968807,1370.0736479686
1.55926229068869,1370.0836479686
1.55674379379058,1370.0936479686
1.5533287697858,1370.1036479686
1.54916406720432,1370.1136479686
1.54430211009462,1370.1236479686
1.53744290956354,1370.1336479686
1.5285559621055,1370.1436479686
1.51723841566343,1370.1536479686
1.50406220073102,1370.1636479686
1.48927451837242,1370.1736479686
1.47423203706035,1370.1836479686
1.46013446636909,1370.1936479686
1.44725690812493,1370.2036479686
1.435580855592,1370.2136479686
1.42555232962307,1370.2236479686
1.41606809105015,1370.2336479686
1.40791642823729,1370.2436479686
1.40075040890651,1370.2536479686
1.39414763075971,1370.2636479686
1.38792779379196,1370.2736479686
1.38222588452055,1370.2836479686
1.3757135835068,1370.2936479686
1.36833357252457,1370.3036479686
1.35988511447478,1370.3136479686
1.35029186414416,1370.3236479686
1.33961037930851,1370.3336479686
1.32784996605675,1370.3436479686
1.31550124773434,1370.3536479686
1.3031859323621,1370.3636479686
1.29038317425704,1370.3736479686
1.27770394636216,1370.3836479686
1.26467342218742,1370.3936479686
1.25057334741868,1370.4036479686
1.23640463463488,1370.4136479686
1.22180912749358,1370.4236479686
1.20637341561423,1370.4336479686
1.19092363861109,1370.4436479686
1.17406860633341,1370.4536479686
1.15599171381655,1370.4636479686
1.13705364504145,1370.4736479686
1.11649727416657,1370.4836479686
1.0952645019475,1370.4936479686
1.07362408079398,1370.5036479686
1.05176000929103,1370.5136479686
1.0301510552235,1370.5236479686
1.00942324604433,1370.5336479686
0.988569189483636,1370.5436479686
0.967525828679522,1370.5536479686
0.946872923318882,1370.5636479686
0.926220984390904,1370.5736479686
0.906254509584147,1370.5836479686
0.887082683806524,1370.5936479686
0.868507981816672,1370.6036479686
0.850289962969283,1370.6136479686
0.832607645494085,1370.6236479686
0.815218993251971,1370.6336479686
0.798824746639645,1370.6436479686
0.78206503448189,1370.6536479686
0.764775372105707,1370.6636479686
0.746984482660717,1370.6736479686
0.728258753723709,1370.6836479686
0.708456983890745,1370.6936479686
0.688417650378409,1370.7036479686
0.66880999149043,1370.7136479686
0.650342481394552,1370.7236479686
0.63339686545496,1370.7336479686
0.617880621517943,1370.7436479686
0.603703316936956,1370.7536479686
0.590175033989377,1370.7636479686
0.577640745591568,1370.7736479686
0.565563555207299,1370.7836479686
0.553545299444359,1370.7936479686
0.542180881948322,1370.8036479686
0.531004536011759,1370.8136479686
0.52105652747977,1370.8236479686
0.513616540174532,1370.8336479686
0.509786417594877,1370.8436479686
0.512338468690704,1370.8536479686
0.522472186840785,1370.8636479686
0.540950245037026,1370.8736479686
0.566514087508356,1370.8836479686
0.598514750398661,1370.8936479686
0.63448206740945,1370.9036479686
0.67179804881029,1370.9136479686
0.708663653773895,1370.9236479686
0.742480043520158,1370.9336479686
0.772285752303857,1370.9436479686
0.79650887621937,1370.9536479686
0.815330875731804,1370.9636479686
0.827549601227247,1370.9736479686
0.834427260126841,1370.9836479686
0.837805880432822,1370.9936479686
0.838490982077026,1371.0036479686
0.837564221955039,1371.0136479686
0.836247214577706,1371.0236479686
0.835074063304498,1371.0336479686
0.833639186200714,1371.0436479686
0.83230292304132,1371.0536479686
0.829993298034758,1371.0636479686
0.827121302094595,1371.0736479686
0.822794347398731,1371.0836479686
0.816183710222534,1371.0936479686
0.807649490745102,1371.1036479686
0.7963686963403,1371.1136479686
0.782483144139825,1371.1236479686
0.766489007507275,1371.1336479686
0.748455021931699,1371.1436479686
0.729341918133675,1371.1536479686
0.70978774203799,1371.1636479686
0.690335186405591,1371.1736479686
0.671193181988459,1371.1836479686
0.651845794036669,1371.1936479686
0.633204056881303,1371.2036479686
0.613446490118022,1371.2136479686
0.593481338193123,1371.2236479686
0.572743084006639,1371.2336479686
0.55150819721057,1371.2436479686
0.52988344194125,1371.2536479686
0.508172122700916,1371.2636479686
0.486718495800515,1371.2736479686
0.46532262259692,1371.2836479686
0.444501449346058,1371.2936479686
0.423480538797744,1371.3036479686
0.402191320066781,1371.3136479686
0.380755433081006,1371.3236479686
0.358090873517469,1371.3336479686
0.335026967705128,1371.3436479686
0.310976365313282,1371.3536479686
0.286542666080125,1371.3636479686
0.262083264118711,1371.3736479686
0.237695202136715,1371.3836479686
0.213256269749533,1371.3936479686
0.188963651480509,1371.4036479686
0.164936072020496,1371.4136479686
0.14139773355429,1371.4236479686
0.118224872603653,1371.4336479686
0.0957608786721753,1371.4436479686
0.0739135571695772,1371.4536479686
0.0526124678996002,1371.4636479686
0.0317325795313979,1371.4736479686
0.0113319659192496,1371.4836479686
-0.00927559571060817,1371.4936479686
-0.0298187352090951,1371.5036479686
-0.0504253627354087,1371.5136479686
-0.071006740199539,1371.5236479686
-0.0911371863057579,1371.5336479686
-0.110229648785441,1371.5436479686
-0.128489360718284,1371.5536479686
-0.14578453934261,1371.5636479686
-0.162515304538718,1371.5736479686
-0.178712319517812,1371.5836479686
-0.194559280955835,1371.5936479686
-0.210881755371737,1371.6036479686
-0.226496976973927,1371.6136479686
-0.242135492085203,1371.6236479686
-0.257577760854594,1371.6336479686
-0.272824688701751,1371.6436479686
-0.288326467336768,1371.6536479686
-0.304337227765679,1371.6636479686
-0.320919632540909,1371.6736479686
-0.337298213511279,1371.6836479686
-0.353908470966613,1371.6936479686
-0.370361773836065,1371.7036479686
-0.387541175294658,1371.7136479686
-0.404839631399923,1371.7236479686
-0.421934283399045,1371.7336479686
-0.439023740234814,1371.7436479686
-0.45617687940493,1371.7536479686
-0.473609438324421,1371.7636479686
-0.491370037894697,1371.7736479686
-0.509704897088211,1371.7836479686
-0.528298593841847,1371.7936479686
-0.546271678066506,1371.8036479686
-0.564238709332122,1371.8136479686
-0.579586318894858,1371.8236479686
-0.59000137671972,1371.8336479686
-0.592823319503803,1371.8436479686
-0.585761153687232,1371.8536479686
-0.566931225874957,1371.8636479686
-0.536552212081001,1371.8736479686
-0.49563272265297,1371.8836479686
-0.446854995032411,1371.8936479686
-0.392540785313388,1371.9036479686
-0.336667931470001,1371.9136479686
-0.282368054139864,1371.9236479686
-0.232159184417219,1371.9336479686
-0.18784500653511,1371.9436479686
-0.150614493933583,1371.9536479686
-0.120764225596804,1371.9636479686
-0.0981824372776169,1371.9736479686
-0.0816650496812907,1371.9836479686
-0.070867261009472,1371.9936479686
-0.0643128810409519,1372.0036479686
-0.0617058722505304,1372.0136479686
-0.0618942916959383,1372.0236479686
-0.0640431808067543,1372.0336479686
-0.0676009126734335,1372.0436479686
-0.0721061850545582,1372.0536479686
-0.0776346803511418,1372.0636479686
-0.0842626317036525,1372.0736479686
-0.0921040126211057,1372.0836479686
-0.102471108887568,1372.0936479686
-0.1145090310007,1372.1036479686
-0.127938283577033,1372.1136479686
-0.14295347245515,1372.1236479686
-0.15801369418303,1372.1336479686
-0.173330984394563,1372.1436479686
-0.188345644230127,1372.1536479686
-0.201843009624148,1372.1636479686
-0.213466247125003,1372.1736479686
-0.223260691490157,1372.1836479686
-0.230577985935144,1372.1936479686
-0.236465909005374,1372.2036479686
-0.240242918990551,1372.2136479686
-0.243128590605089,1372.2236479686
-0.245511964348687,1372.2336479686
-0.247539679244283,1372.2436479686
-0.249862832549742,1372.2536479686
-0.252627857960345,1372.2636479686
-0.25598184662635,1372.2736479686
-0.260157319321852,1372.2836479686
-0.264992843338641,1372.2936479686
-0.270708887698079,1372.3036479686
-0.276903067045003,1372.3136479686
-0.283108657213015,1372.3236479686
-0.288856125795463,1372.3336479686
-0.29460337202462,1372.3436479686
-0.30058338215862,1372.3536479686
-0.306685957819632,1372.3636479686
-0.313258833305916,1372.3736479686
-0.320215084850103,1372.3836479686
-0.327309949647273,1372.3936479686
-0.334750496210716,1372.4036479686
-0.342685726542825,1372.4136479686
-0.351315307513782,1372.4236479686
-0.360699757421294,1372.4336479686
-0.370223691862092,1372.4436479686
-0.38027550228511,1372.4536479686
-0.390972701212266,1372.4636479686
-0.402041949096321,1372.4736479686
-0.41297091206754,1372.4836479686
-0.423748755556356,1372.4936479686
-0.434289399127689,1372.5036479686
-0.444101509918502,1372.5136479686
-0.453845872021067,1372.5236479686
-0.46337526069438,1372.5336479686
-0.472883001539317,1372.5436479686
-0.482814287024993,1372.5536479686
-0.492485996625314,1372.5636479686
-0.502196014931788,1372.5736479686
-0.511642174778359,1372.5836479686
-0.520145984936371,1372.5936479686
-0.528804407510854,1372.6036479686
-0.537043252350472,1372.6136479686
-0.545552318459197,1372.6236479686
-0.554258931757923,1372.6336479686
-0.563844819818482,1372.6436479686
-0.573397053017154,1372.6536479686
-0.583305062909784,1372.6636479686
-0.593839038143418,1372.6736479686
-0.604536446098993,1372.6836479686
-0.615329373116418,1372.6936479686
-0.626206778436175,1372.7036479686
-0.636821974191036,1372.7136479686
-0.646488392330307,1372.7236479686
-0.654637238522976,1372.7336479686
-0.658700415317583,1372.7436479686
-0.656291799810877,1372.7536479686
-0.644714242401003,1372.7636479686
-0.62224383834519,1372.7736479686
-0.588166760238548,1372.7836479686
-0.542275924142299,1372.7936479686
-0.487102226164662,1372.8036479686
-0.425442741391684,1372.8136479686
-0.360716661208507,1372.8236479686
-0.297277975571476,1372.8336479686
-0.237672320689952,1372.8436479686
-0.183949699960186,1372.8536479686
-0.138258699521256,1372.8636479686
-0.100446748529183,1372.8736479686
-0.0698590478460539,1372.8836479686
-0.0460039361739401,1372.8936479686
-0.0275629811198491,1372.9036479686
-0.0130357319666296,1372.9136479686
-0.0010375087317528,1372.9236479686
0.00879258888365525,1372.9336479686
0.0181131558193614,1372.9436479686
0.0269827874097843,1372.9536479686
0.0346419949864566,1372.9636479686
0.0408894270934694,1372.9736479686
0.0449917295792332,1372.9836479686
0.0465725860037091,1372.9936479686
0.0450295002669252,1373.0036479686
0.0408507994421243,1373.0136479686
0.0340298348497885,1373.0236479686
0.0249455859619736,1373.0336479686
0.0138055065790337,1373.0436479686
0.00177992790021225,1373.0536479686
-0.0107098583393646,1373.0636479686
-0.0233486103592629,1373.0736479686
-0.03568461713935,1373.0836479686
-0.0471076238851613,1373.0936479686
-0.0575527074203244,1373.1036479686
-0.0670317723258218,1373.1136479686
-0.0752192043515394,1373.1236479686
-0.0819686265467947,1373.1336479686
-0.0871803780698304,1373.1436479686
-0.0913183195358377,1373.1536479686
-0.0941291800812003,1373.1636479686
-0.0960413522881,1373.1736479686
-0.0970451383452794,1373.1836479686
-0.0982491082468954,1373.1936479686
-0.100467753185277,1373.2036479686
-0.102698757090185,1373.2136479686
-0.105714901802742,1373.2236479686
-0.109268894697832,1373.2336479686
-0.113436116440371,1373.2436479686
-0.117990212425264,1373.2536479686
-0.123684662881382,1373.2636479686
-0.130348331460878,1373.2736479686
-0.13814751771181,1373.2836479686
-0.146596437447681,1373.2936479686
-0.155374994667248,1373.3036479686
-0.164918512527132,1373.3136479686
-0.175127122081766,1373.3236479686
-0.185971708892695,1373.3336479686
-0.19758623356264,1373.3436479686
-0.209380470291781,1373.3536479686
-0.222334682081927,1373.3636479686
-0.23574366654703,1373.3736479686
-0.248769745673506,1373.3836479686
-0.261771479111584,1373.3936479686
-0.273727455480541,1373.4036479686
-0.284985472583455,1373.4136479686
-0.295047271208153,1373.4236479686
-0.304079090948469,1373.4336479686
-0.312630401974896,1373.4436479686
-0.320486614175161,1373.4536479686
-0.327722177767709,1373.4636479686
-0.335025398354442,1373.4736479686
-0.342429971272482,1373.4836479686
-0.349680486962837,1373.4936479686
-0.356808435594722,1373.5036479686
-0.363557868900942,1373.5136479686
-0.369623616765137,1373.5236479686
-0.37562017845221,1373.5336479686
-0.381489291340209,1373.5436479686
-0.387480776814102,1373.5536479686
-0.39407858732642,1373.5636479686
-0.401033288027424,1373.5736479686
-0.408187808555345,1373.5836479686
-0.415434549861005,1373.5936479686
-0.422531054322725,1373.6036479686
-0.429385934406001,1373.6136479686
-0.435601367276635,1373.6236479686
-0.44134754642923,1373.6336479686
-0.445854316794354,1373.6436479686
-0.448369050588772,1373.6536479686
-0.446665577503485,1373.6636479686
-0.438333336868897,1373.6736479686
-0.420391373637351,1373.6836479686
-0.39015654699227,1373.6936479686
-0.347900583564084,1373.7036479686
-0.293666809231393,1373.7136479686
-0.230025201041169,1373.7236479686
-0.161077578756369,1373.7336479686
-0.0913348373729636,1373.7436479686
-0.0249202694321984,1373.7536479686
0.0352264495698266,1373.7636479686
0.0864370182797032,1373.7736479686
0.127994916906644,1373.7836479686
0.161816687190957,1373.7936479686
0.188310774992825,1373.8036479686
0.208802065068704,1373.8136479686
0.224862138538878,1373.8236479686
0.237473521887759,1373.8336479686
0.246572571847419,1373.8436479686
0.253133583341668,1373.8536479686
0.257763262931693,1373.8636479686
0.260168471529072,1373.8736479686
0.261134253890518,1373.8836479686
0.25956740018465,1373.8936479686
0.256315164312543,1373.9036479686
0.250821026801887,1373.9136479686
0.242182227897737,1373.9236479686
0.229834923488842,1373.9336479686
0.213605561321861,1373.9436479686
0.193698441586598,1373.9536479686
0.171404038791765,1373.9636479686
0.147502726813482,1373.9736479686
0.123439408152997,1373.9836479686
0.10108676729256,1373.9936479686
0.0803017624923893,1374.0036479686
0.0623136394081061,1374.0136479686
0.0478524316024018,1374.0236479686
0.0362490513044765,1374.0336479686
0.0269367243288532,1374.0436479686
0.0204979337248247,1374.0536479686
0.0153970688351008,1374.0636479686
0.0113041324167739,1374.0736479686
0.00763325577308577,1374.0836479686
0.00349693758330332,1374.0936479686
-0.00162649912153602,1374.1036479686
-0.00723826409382397,1374.1136479686
-0.0137097387444881,1374.1236479686
-0.0210341329692996,1374.1336479686
-0.0292204532954621,1374.1436479686
-0.0381951617291693,1374.1536479686
-0.0473893286106302,1374.1636479686
-0.0570569477828961,1374.1736479686
-0.0678409938036509,1374.1836479686
-0.0791260926023564,1374.1936479686
-0.0912024473750606,1374.2036479686
-0.103667071447276,1374.2136479686
-0.117068277714686,1374.2236479686
-0.131140080614579,1374.2336479686
-0.146882381925869,1374.2436479686
-0.163679200129215,1374.2536479686
-0.18195383217187,1374.2636479686
-0.20122273574233,1374.2736479686
-0.220413168966527,1374.2836479686
-0.24041621334214,1374.2936479686
-0.260240697777238,1374.3036479686
-0.281239644641247,1374.3136479686
-0.302741687542578,1374.3236479686
-0.325014544369424,1374.3336479686
-0.347030359364139,1374.3436479686
-0.368403521504459,1374.3536479686
-0.38933895820809,1374.3636479686
-0.408869597856648,1374.3736479686
-0.426982385907757,1374.3836479686
-0.443556835617333,1374.3936479686
-0.459095836790177,1374.4036479686
-0.47341497237286,1374.4136479686
-0.48749023374853,1374.4236479686
-0.500613978422899,1374.4336479686
-0.512903306623975,1374.4436479686
-0.524169124940978,1374.4536479686
-0.533959611268673,1374.4636479686
-0.543033498266065,1374.4736479686
-0.551312010107824,1374.4836479686
-0.55960096532237,1374.4936479686
-0.568338928642321,1374.5036479686
-0.576961547451042,1374.5136479686
-0.584300025868351,1374.5236479686
-0.588339915551557,1374.5336479686
-0.586458377502139,1374.5436479686
-0.574862291109415,1374.5536479686
-0.551332832907169,1374.5636479686
-0.514348148211211,1374.5736479686
-0.464265129144281,1374.5836479686
-0.402393813385596,1374.5936479686
-0.333003530147834,1374.6036479686
-0.259787013002967,1374.6136479686
-0.187135085050698,1374.6236479686
-0.120133552816922,1374.6336479686
-0.0608076650756735,1374.6436479686
-0.0115717587947557,1374.6536479686
0.0269900445123849,1374.6636479686
0.056493928930532,1374.6736479686
0.0779258807185705,1374.6836479686
0.0928910738022409,1374.6936479686
0.103613324025247,1374.7036479686
0.110346796501146,1374.7136479686
0.114560620252455,1374.7236479686
0.116565900665059,1374.7336479686
0.116661689896041,1374.7436479686
0.115215430200332,1374.7536479686
0.111581982939627,1374.7636479686
0.106496964419852,1374.7736479686
0.0988812203831833,1374.7836479686
0.0887083479795452,1374.7936479686
0.0752690140288555,1374.8036479686
0.0589426109669048,1374.8136479686
0.0401313447136003,1374.8236479686
0.019431483894091,1374.8336479686
-0.000988599472393662,1374.8436479686
-0.0201686257850441,1374.8536479686
-0.0367762714940949,1374.8636479686
-0.0500927250141646,1374.8736479686
-0.059913507332883,1374.8836479686
-0.0668737240742209,1374.8936479686
-0.0712133016036635,1374.9036479686
-0.0737069444558813,1374.9136479686
-0.0748426975784725,1374.9236479686
-0.0751094709882695,1374.9336479686
-0.0750960733617155,1374.9436479686
-0.0751834943882687,1374.9536479686
-0.0767702254476513,1374.9636479686
-0.0803456395784146,1374.9736479686
-0.0855502301580995,1374.9836479686
-0.0922534002472253,1374.9936479686
-0.100407638029568,1375.0036479686
-0.110234424054418,1375.0136479686
-0.121170989542841,1375.0236479686
-0.133456014192647,1375.0336479686
-0.145819451075446,1375.0436479686
-0.159135667261479,1375.0536479686
-0.172861476323048,1375.0636479686
-0.187812292135094,1375.0736479686
-0.203235103171098,1375.0836479686
-0.219330678405495,1375.0936479686
-0.236494044846838,1375.1036479686
-0.253572432895184,1375.1136479686
-0.270832173026593,1375.1236479686
-0.288177012614075,1375.1336479686
-0.305059626728146,1375.1436479686
-0.322175297644123,1375.1536479686
-0.339061471525982,1375.1636479686
-0.355858798615671,1375.1736479686
-0.371423531646722,1375.1836479686
-0.386040898538219,1375.1936479686
-0.399459765982755,1375.2036479686
-0.411729210824966,1375.2136479686
-0.423377799633304,1375.2236479686
-0.434554494156608,1375.2336479686
-0.444980288036379,1375.2436479686
-0.454883267635019,1375.2536479686
-0.464888466950858,1375.2636479686
-0.47523350300867,1375.2736479686
-0.48695524908858,1375.2836479686
-0.498829075385308,1375.2936479686
-0.510900599842784,1375.3036479686
-0.522837644214927,1375.3136479686
-0.534162440253207,1375.3236479686
-0.545902803491599,1375.3336479686
-0.557035980135478,1375.3436479686
-0.567999504191688,1375.3536479686
-0.578936364928229,1375.3636479686
-0.58922478098807,1375.3736479686
-0.598911582892624,1375.3836479686
-0.606319605851864,1375.3936479686
-0.60938197689518,1375.4036479686
-0.604501492984035,1375.4136479686
-0.588323419806611,1375.4236479686
-0.558066287778425,1375.4336479686
-0.512345039542644,1375.4436479686
-0.452069025448618,1375.4536479686
-0.379652469804303,1375.4636479686
-0.300012395187167,1375.4736479686
-0.21765349017146,1375.4836479686
-0.137979843737444,1375.4936479686
-0.065507478790154,1375.5036479686
-0.00344094552559995,1375.5136479686
0.0463721671193697,1375.5236479686
0.0846097877841863,1375.5336479686
0.112442730697049,1375.5436479686
0.131997171381151,1375.5536479686
0.145163158034885,1375.5636479686
0.153760262080211,1375.5736479686
0.159359590791623,1375.5836479686
0.162844957729667,1375.5936479686
0.165202007699877,1375.6036479686
0.166344565448305,1375.6136479686
0.165810743255482,1375.6236479686
0.163892369392503,1375.6336479686
0.1592895369527,1375.6436479686
0.15156657276149,1375.6536479686
0.139994556313976,1375.6636479686
0.124709722068762,1375.6736479686
0.105978487798381,1375.6836479686
0.0854920987193055,1375.6936479686
0.0643896838762669,1375.7036479686
0.0439842124624441,1375.7136479686
0.0254311899871758,1375.7236479686
0.0100000883376004,1375.7336479686
-0.00300664329470879,1375.7436479686
-0.01241027054105,1375.7536479686
-0.0186869595187764,1375.7636479686
-0.022036244822137,1375.7736479686
-0.02335851733152,1375.7836479686
-0.0238512636703351,1375.7936479686
-0.0234787421765169,1375.8036479686
-0.0233287909162503,1375.8136479686
-0.0242034341951006,1375.8236479686
-0.0263691531075419,1375.8336479686
-0.0308652221615189,1375.8436479686
-0.0367621986231498,1375.8536479686
-0.0443114502263033,1375.8636479686
-0.0519853979880848,1375.8736479686
-0.0597954437164942,1375.8836479686
-0.0681755140136329,1375.8936479686
-0.0763528179048312,1375.9036479686
-0.0853252960632688,1375.9136479686
-0.0952815493080046,1375.9236479686
-0.106115406674589,1375.9336479686
-0.118074157303594,1375.9436479686
-0.131330282907901,1375.9536479686
-0.144852495269393,1375.9636479686
-0.158877861666613,1375.9736479686
-0.172549792997702,1375.9836479686
-0.186001824740598,1375.9936479686
-0.19904666573428,1376.0036479686
-0.210993298342955,1376.0136479686
-0.222620218050414,1376.0236479686
-0.233986867551885,1376.0336479686
-0.24504077485855,1376.0436479686
-0.255805386364655,1376.0536479686
-0.266160371380189,1376.0636479686
-0.276145371630111,1376.0736479686
-0.285327702863494,1376.0836479686
-0.294291319417429,1376.0936479686
-0.303149344414085,1376.1036479686
-0.312361029106731,1376.1136479686
-0.321444394334936,1376.1236479686
-0.330599030258666,1376.1336479686
-0.340005467739325,1376.1436479686
-0.349811941704663,1376.1536479686
-0.36007712226398,1376.1636479686
-0.371019537205632,1376.1736479686
-0.382760521543601,1376.1836479686
-0.394654951949913,1376.1936479686
-0.405159019766551,1376.2036479686
-0.414180317806273,1376.2136479686
-0.418146373477875,1376.2236479686
-0.413938052940262,1376.2336479686
-0.398469480771243,1376.2436479686
-0.368487618418834,1376.2536479686
-0.323348953409454,1376.2636479686
-0.263463604877093,1376.2736479686
-0.192174451643982,1376.2836479686
-0.113333274486712,1376.2936479686
-0.0329021992000173,1376.3036479686
0.0444832534920288,1376.3136479686
0.114553491059961,1376.3236479686
0.174926247149587,1376.3336479686
0.224323351017039,1376.3436479686
0.263618648863029,1376.3536479686
0.293340233244488,1376.3636479686
0.315391862211014,1376.3736479686
0.331044372583843,1376.3836479686
0.342068815931107,1376.3936479686
0.349156679400934,1376.4036479686
0.353858818683829,1376.4136479686
0.35737591855739,1376.4236479686
0.360224043071977,1376.4336479686
0.362764243189333,1376.4436479686
0.363868950350907,1376.4536479686
0.363430605767028,1376.4636479686
0.360237602325831,1376.4736479686
0.354644783133837,1376.4836479686
0.34641793346499,1376.4936479686
0.335474414715148,1376.5036479686
0.322458454635772,1376.5136479686
0.308507858152143,1376.5236479686
0.295339774493484,1376.5336479686
0.284310865183945,1376.5436479686
0.275716800987163,1376.5536479686
0.271178619974324,1376.5636479686
0.26975998407691,1376.5736479686
0.271681902813288,1376.5836479686
0.276268527325941,1376.5936479686
0.28213800681812,1376.6036479686
0.288852150486191,1376.6136479686
0.295397623414889,1376.6236479686
0.302103307685036,1376.6336479686
0.307297595838406,1376.6436479686
0.310833505301719,1376.6536479686
0.31286737238355,1376.6636479686
0.313992920916244,1376.6736479686
0.314198275617997,1376.6836479686
0.313657026787715,1376.6936479686
0.311039715596661,1376.7036479686
0.306747318636061,1376.7136479686
0.300370650257781,1376.7236479686
0.291980788141148,1376.7336479686
0.28317763154492,1376.7436479686
0.273910872810721,1376.7536479686
0.265254541479815,1376.7636479686
0.256905907805136,1376.7736479686
0.24867271565232,1376.7836479686
0.240831402084851,1376.7936479686
0.232503670618042,1376.8036479686
0.224110930025893,1376.8136479686
0.21587763386077,1376.8236479686
0.208213955313059,1376.8336479686
0.201221631508089,1376.8436479686
0.194478339522391,1376.8536479686
0.188824989501066,1376.8636479686
0.181861846534363,1376.8736479686
0.175592419984774,1376.8836479686
0.169639555315294,1376.8936479686
0.163880255678958,1376.9036479686
0.159213890228973,1376.9136479686
0.155278890425716,1376.9236479686
0.152262432063451,1376.9336479686
0.149409157973062,1376.9436479686
0.147284326263733,1376.9536479686
0.144948925161331,1376.9636479686
0.141805621909819,1376.9736479686
0.138607187670798,1376.9836479686
0.136019617697042,1376.9936479686
0.135918178184197,1377.0036479686
0.141283925027057,1377.0136479686
0.154782991781316,1377.0236479686
0.181125816866867,1377.0336479686
0.222291575304242,1377.0436479686
0.279037973035779,1377.0536479686
0.350244414314065,1377.0636479686
0.431669144943471,1377.0736479686
0.518617857627833,1377.0836479686
0.605740769721707,1377.0936479686
0.688278014588518,1377.1036479686
0.762406880815925,1377.1136479686
0.82605712106116,1377.1236479686
0.877985527442844,1377.1336479686
0.917905889153421,1377.1436479686
0.947402170619677,1377.1536479686
0.967252922276789,1377.1636479686
0.979411937236299,1377.1736479686
0.984923202795469,1377.1836479686
0.985202305511012,1377.1936479686
0.981526542554417,1377.2036479686
0.975090894450931,1377.2136479686
0.966268855419339,1377.2236479686
0.954534410357465,1377.2336479686
0.940943879663716,1377.2436479686
0.92448359277055,1377.2536479686
0.905232741019604,1377.2636479686
0.882604312745696,1377.2736479686
0.855976812747438,1377.2836479686
0.825800285746337,1377.2936479686
0.792658254234371,1377.3036479686
0.758297501976439,1377.3136479686
0.72439666409049,1377.3236479686
0.692607681696035,1377.3336479686
0.664213249999855,1377.3436479686
0.638992853912218,1377.3536479686
0.617080195935622,1377.3636479686
0.59800366456254,1377.3736479686
0.581141636758208,1377.3836479686
0.566195827721914,1377.3936479686
0.55237165972639,1377.4036479686
0.537828583191852,1377.4136479686
0.523064186308104,1377.4236479686
0.506870794066807,1377.4336479686
0.489545196781043,1377.4436479686
0.47073546336553,1377.4536479686
0.450542844285827,1377.4636479686
0.429032263426953,1377.4736479686
0.406898823810965,1377.4836479686
0.384163415049739,1377.4936479686
0.360649143240905,1377.5036479686
0.337043011403832,1377.5136479686
0.312946034353541,1377.5236479686
0.288672831498604,1377.5336479686
0.263952884360225,1377.5436479686
0.238983097040315,1377.5536479686
0.212998488791516,1377.5636479686
0.187356059650007,1377.5736479686
0.16240221257582,1377.5836479686
0.138342982067728,1377.5936479686
0.115489348550859,1377.6036479686
0.0935845162926412,1377.6136479686
0.0727603918551532,1377.6236479686
0.0530206613118284,1377.6336479686
0.032822967080244,1377.6436479686
0.0129797915920425,1377.6536479686
-0.00707737879723653,1377.6636479686
-0.0276922305269044,1377.6736479686
-0.0489218402053787,1377.6836479686
-0.070040108305807,1377.6936479686
-0.0911612803021579,1377.7036479686
-0.111863160802835,1377.7136479686
-0.132084065337893,1377.7236479686
-0.15248716222558,1377.7336479686
-0.172891802790325,1377.7436479686
-0.193588037923672,1377.7536479686
-0.213656063077438,1377.7636479686
-0.231987874578901,1377.7736479686
-0.247240945943141,1377.7836479686
-0.255247268040287,1377.7936479686
-0.253518578136978,1377.8036479686
-0.239646779146549,1377.8136479686
-0.211886839601672,1377.8236479686
-0.171030272246376,1377.8336479686
-0.119637830820968,1377.8436479686
-0.0614614805023813,1377.8536479686
-0.000654236786770311,1377.8636479686
0.0586242000666598,1377.8736479686
0.112706200281348,1377.8836479686
0.159395738963432,1377.8936479686
0.197539475800805,1377.9036479686
0.22750222889026,1377.9136479686
0.249797347422472,1377.9236479686
0.265674290170843,1377.9336479686
0.277115214390216,1377.9436479686
0.284880366205532,1377.9536479686
0.28982780172382,1377.9636479686
0.291988832571598,1377.9736479686
0.292832656879117,1377.9836479686
0.291925678957436,1377.9936479686
0.288910632931059,1378.0036479686
0.283988261308889,1378.0136479686
0.2769686835404,1378.0236479686
0.267660608473606,1378.0336479686
0.255150594546611,1378.0436479686
0.240162837348604,1378.0536479686
0.222437492617155,1378.0636479686
0.202153204624933,1378.0736479686
0.179616188217761,1378.0836479686
0.155346495175928,1378.0936479686
0.130822734329551,1378.1036479686
0.106825187492573,1378.1136479686
0.0841235702942464,1378.1236479686
0.0638345766787924,1378.1336479686
0.046649462785173,1378.1436479686
0.0321409935531641,1378.1536479686
0.0198657113835012,1378.1636479686
0.00877478531518239,1378.1736479686
-0.00200936192365213,1378.1836479686
-0.0130787388030311,1378.1936479686
-0.0245673055700645,1378.2036479686
-0.0368124782928888,1378.2136479686
-0.0494193189190602,1378.2236479686
-0.0636683676014845,1378.2336479686
-0.0785652719055399,1378.2436479686
-0.0939467761641274,1378.2536479686
-0.110754317427533,1378.2636479686
-0.128184643152627,1378.2736479686
-0.146312930094549,1378.2836479686
-0.164902988294739,1378.2936479686
-0.184336110152275,1378.3036479686
-0.204174281134834,1378.3136479686
-0.225043686813835,1378.3236479686
-0.246397444701964,1378.3336479686
-0.268502519398072,1378.3436479686
-0.290129511355772,1378.3536479686
-0.31164926310299,1378.3636479686
-0.332809632593258,1378.3736479686
-0.353408023002323,1378.3836479686
-0.373265418815299,1378.3936479686
-0.393603618354419,1378.4036479686
-0.413855709424987,1378.4136479686
-0.434151369869778,1378.4236479686
-0.454110702915194,1378.4336479686
-0.473901429477716,1378.4436479686
-0.492947518331653,1378.4536479686
-0.51149323573293,1378.4636479686
-0.529301658514561,1378.4736479686
-0.547047815123289,1378.4836479686
-0.56454539683933,1378.4936479686
-0.582508656867514,1378.5036479686
-0.600077966571223,1378.5136479686
-0.615631834965894,1378.5236479686
-0.628085557002689,1378.5336479686
-0.635671443407911,1378.5436479686
-0.63642404604478,1378.5536479686
-0.628652347595287,1378.5636479686
-0.61122970105119,1378.5736479686
-0.583935169664697,1378.5836479686
-0.548470299815753,1378.5936479686
-0.50718417080284,1378.6036479686
-0.462650433107902,1378.6136479686
-0.417823460670008,1378.6236479686
-0.374761567442365,1378.6336479686
-0.336143295107144,1378.6436479686
-0.302454486518443,1378.6536479686
-0.273747593573006,1378.6636479686
-0.25084030333047,1378.6736479686
-0.232198456153425,1378.6836479686
-0.217492521466479,1378.6936479686
-0.206052871722204,1378.7036479686
-0.196836645513534,1378.7136479686
-0.189233291806624,1378.7236479686
-0.18356804986774,1378.7336479686
-0.180249394906704,1378.7436479686
-0.178963721565561,1378.7536479686
-0.179594679745425,1378.7636479686
-0.182230446511953,1378.7736479686
-0.18662223880663,1378.7836479686
-0.193927064711416,1378.7936479686
-0.204058405166476,1378.8036479686
-0.217269001767366,1378.8136479686
-0.232806466677011,1378.8236479686
-0.250205403062613,1378.8336479686
-0.268607787227153,1378.8436479686
-0.287613172065067,1378.8536479686
-0.306591789098883,1378.8636479686
-0.324489378822558,1378.8736479686
-0.340447878002265,1378.8836479686
-0.354920347648382,1378.8936479686
-0.366680948201044,1378.9036479686
-0.377389076046348,1378.9136479686
-0.387235588924781,1378.9236479686
-0.396259877293411,1378.9336479686
-0.405188703852925,1378.9436479686
-0.41361564382057,1378.9536479686
-0.421805836311574,1378.9636479686
-0.430746591900771,1378.9736479686
-0.439361868077994,1378.9836479686
-0.448485476688997,1378.9936479686
-0.458075099415784,1379.0036479686
-0.468340578440798,1379.0136479686
-0.479998156194876,1379.0236479686
-0.49235873356383,1379.0336479686
-0.505616726154814,1379.0436479686
-0.519803133913444,1379.0536479686
-0.534238008853416,1379.0636479686
-0.549117023833358,1379.0736479686
-0.564847759908341,1379.0836479686
-0.580540971234324,1379.0936479686
-0.596696395000554,1379.1036479686
-0.613214724447787,1379.1136479686
-0.630072990785837,1379.1236479686
-0.64625000802532,1379.1336479686
-0.66265352947851,1379.1436479686
-0.678705008456663,1379.1536479686
-0.693784735782865,1379.1636479686
-0.709001698448149,1379.1736479686
-0.723454181607784,1379.1836479686
-0.737549546386899,1379.1936479686
-0.752325383921596,1379.2036479686
-0.766786110072337,1379.2136479686
-0.780965568451517,1379.2236479686
-0.795417261957094,1379.2336479686
-0.809849714946111,1379.2436479686
-0.823458424241556,1379.2536479686
-0.836538426252439,1379.2636479686
-0.849562768750952,1379.2736479686
-0.862055168416042,1379.2836479686
-0.87437969749011,1379.2936479686
-0.886898161030622,1379.3036479686
-0.899270843898925,1379.3136479686
-0.911397733627644,1379.3236479686
-0.923742283946831,1379.3336479686
-0.935439528975367,1379.3436479686
-0.947215398015389,1379.3536479686
-0.959304353765813,1379.3636479686
-0.970826760216909,1379.3736479686
-0.982098457236855,1379.3836479686
-0.993096918747656,1379.3936479686
-1.00387567213972,1379.4036479686
-1.01420646799299,1379.4136479686
-1.02213207615813,1379.4236479686
-1.02628669435886,1379.4336479686
-1.02513171443281,1379.4436479686
-1.015794262366,1379.4536479686
-0.998592498802433,1379.4636479686
-0.973453465729979,1379.4736479686
-0.942542726682083,1379.4836479686
-0.907472964527674,1379.4936479686
-0.870744934392593,1379.5036479686
-0.834518423358849,1379.5136479686
-0.799713547386751,1379.5236479686
-0.7684164004602,1379.5336479686
-0.740327623021847,1379.5436479686
-0.715740796616681,1379.5536479686
-0.694846222428259,1379.5636479686
-0.676809223857548,1379.5736479686
-0.661367541826972,1379.5836479686
-0.647951530246836,1379.5936479686
-0.635960567032102,1379.6036479686
-0.625623704921271,1379.6136479686
-0.616784262668282,1379.6236479686
-0.608812882332937,1379.6336479686
-0.602072044325228,1379.6436479686
-0.596515489238179,1379.6536479686
-0.593077497213334,1379.6636479686
-0.591654878131393,1379.6736479686
-0.59263718400933,1379.6836479686
-0.597010808571101,1379.6936479686
-0.604610961622824,1379.7036479686
-0.615110936235554,1379.7136479686
-0.627217904071009,1379.7236479686
-0.639818692105517,1379.7336479686
-0.652288999453583,1379.7436479686
-0.664012287396738,1379.7536479686
-0.674761117213533,1379.7636479686
-0.685096898646037,1379.7736479686
-0.694182637479792,1379.7836479686
-0.703166171190366,1379.7936479686
-0.711641634318438,1379.8036479686
-0.71953806138272,1379.8136479686
-0.727027655209458,1379.8236479686
-0.734295798551894,1379.8336479686
-0.741951721421442,1379.8436479686
-0.750182685541379,1379.8536479686
-0.758948299853602,1379.8636479686
-0.768416944181907,1379.8736479686
-0.778554822664736,1379.8836479686
-0.78886093588737,1379.8936479686
-0.799852661317816,1379.9036479686
-0.811675566149529,1379.9136479686
-0.824036470051796,1379.9236479686
-0.836714689401002,1379.9336479686
-0.849927605131212,1379.9436479686
-0.863727065348089,1379.9536479686
-0.877446247213409,1379.9636479686
-0.891887082968636,1379.9736479686
-0.906360071605698,1379.9836479686
-0.920633030585667,1379.9936479686
-0.935257893685418,1380.0036479686
-0.949970727877635,1380.0136479686
-0.964774469758811,1380.0236479686
-0.980515001099475,1380.0336479686
-0.997073873780401,1380.0436479686
-1.01460421534089,1380.0536479686
-1.03235528126911,1380.0636479686
-1.04994953788865,1380.0736479686
-1.06757406697045,1380.0836479686
-1.08487522307048,1380.0936479686
-1.10171789829969,1380.1036479686
-1.11826952805766,1380.1136479686
-1.13528630847679,1380.1236479686
-1.15230304720819,1380.1336479686
-1.16946473540376,1380.1436479686
-1.18657043478546,1380.1536479686
-1.20409233094903,1380.1636479686
-1.22138562573867,1380.1736479686
-1.23902999510561,1380.1836479686
-1.25605531650986,1380.1936479686
-1.27285829064656,1380.2036479686
-1.28873602038165,1380.2136479686
-1.30368581660417,1380.2236479686
-1.31893752652105,1380.2336479686
-1.33426296666622,1380.2436479686
-1.34942896632566,1380.2536479686
-1.36494259549773,1380.2636479686
-1.37987980733186,1380.2736479686
-1.39479669084868,1380.2836479686
-1.40923731482471,1380.2936479686
-1.42396604100934,1380.3036479686
-1.43905841891983,1380.3136479686
-1.4538988409599,1380.3236479686
-1.46798991257932,1380.3336479686
-1.48103483977032,1380.3436479686
-1.49316070779332,1380.3536479686
-1.5062943798788,1380.3636479686
-1.52068073312815,1380.3736479686
-1.53582565118019,1380.3836479686
-1.55055808635026,1380.3936479686
-1.56275118998064,1380.4036479686
-1.56990486201714,1380.4136479686
-1.57097421923468,1380.4236479686
-1.56685484952969,1380.4336479686
-1.55630322991237,1380.4436479686
-1.5401284722401,1380.4536479686
-1.51969637817645,1380.4636479686
-1.49558874208988,1380.4736479686
-1.46886124323317,1380.4836479686
-1.44268438312305,1380.4936479686
-1.41905402563339,1380.5036479686
-1.39963584361645,1380.5136479686
-1.38449360943002,1380.5236479686
-1.37307441694228,1380.5336479686
-1.36337046419471,1380.5436479686
-1.35370705096554,1380.5536479686
-1.34396268131713,1380.5636479686
-1.33701124398553,1380.5736479686
-1.33273986262385,1380.5836479686
-1.33051898942044,1380.5936479686
-1.32956346675329,1380.6036479686
-1.32823746501396,1380.6136479686
-1.32523771119444,1380.6236479686
-1.32203184790328,1380.6336479686
-1.3202506827512,1380.6436479686
-1.32194762712555,1380.6536479686
-1.32739046221355,1380.6636479686
-1.33558189909639,1380.6736479686
-1.34506680811673,1380.6836479686
-1.35375383668238,1380.6936479686
-1.3627846022416,1380.7036479686
-1.37256298918537,1380.7136479686
-1.38310310406993,1380.7236479686
-1.39405534188465,1380.7336479686
-1.40440419505051,1380.7436479686
-1.41264804471051,1380.7536479686
-1.41829994120523,1380.7636479686
-1.42191421958854,1380.7736479686
-1.42611279298885,1380.7836479686
-1.43078984469303,1380.7936479686
-1.43667299882385,1380.8036479686
-1.4442562448866,1380.8136479686
-1.45143666496389,1380.8236479686
-1.45756054678025,1380.8336479686
-1.46371160525006,1380.8436479686
-1.47132950085609,1380.8536479686
-1.48147650735808,1380.8636479686
-1.49361778006008,1380.8736479686
-1.50707940059585,1380.8836479686
-1.51971645940403,1380.8936479686
-1.53098510254158,1380.9036479686
-1.54158928807658,1380.9136479686
-1.5531498499066,1380.9236479686
-1.56633263837888,1380.9336479686
-1.58111229750926,1380.9436479686
-1.59604750831855,1380.9536479686
-1.61044421645576,1380.9636479686
-1.62281727638189,1380.9736479686
-1.63427265289586,1380.9836479686
-1.64640256866672,1380.9936479686
-1.6595537887615,1381.0036479686
-1.67426076268118,1381.0136479686
-1.68875294056845,1381.0236479686
-1.70199057204048,1381.0336479686
-1.71243565959161,1381.0436479686
-1.72090905730499,1381.0536479686
-1.72950011911164,1381.0636479686
-1.73926829644989,1381.0736479686
-1.74995963342985,1381.0836479686
-1.7611076185148,1381.0936479686
-1.77111539035569,1381.1036479686
-1.77997980888912,1381.1136479686
-1.78716998083363,1381.1236479686
-1.79414888225453,1381.1336479686
-1.80225242409467,1381.1436479686
-1.81046388865222,1381.1536479686
-1.81826831895479,1381.1636479686
-1.82463255767221,1381.1736479686
-1.82902752356832,1381.1836479686
-1.83194952486364,1381.1936479686
-1.83583735180493,1381.2036479686
-1.84115668963576,1381.2136479686
-1.84739087462574,1381.2236479686
-1.8541909867083,1381.2336479686
-1.86011961555678,1381.2436479686
-1.86356171970538,1381.2536479686
-1.86556024875867,1381.2636479686
-1.86799142076387,1381.2736479686
-1.87212874575605,1381.2836479686
-1.87740628411944,1381.2936479686
-1.88284498274006,1381.3036479686
-1.88694988084211,1381.3136479686
-1.88659582607037,1381.3236479686
-1.88156748428249,1381.3336479686
-1.87139672094485,1381.3436479686
-1.85650777887845,1381.3536479686
-1.83668468733408,1381.3636479686
-1.81231909170201,1381.3736479686
-1.78402975497443,1381.3836479686
-1.75143806573381,1381.3936479686
-1.71801920718234,1381.4036479686
-1.68563844725234,1381.4136479686
-1.65708951321961,1381.4236479686
-1.63281615601328,1381.4336479686
-1.6125321410291,1381.4436479686
-1.59417553967759,1381.4536479686
-1.57566043441896,1381.4636479686
-1.55761415079495,1381.4736479686
-1.54122511830693,1381.4836479686
-1.52627672845917,1381.4936479686
-1.51273626579884,1381.5036479686
-1.4997463316374,1381.5136479686
-1.4862668313304,1381.5236479686
-1.47201274934359,1381.5336479686
-1.45841483284378,1381.5436479686
-1.44713424239109,1381.5536479686
-1.43875530682472,1381.5636479686
-1.43317814393796,1381.5736479686
-1.43028458243153,1381.5836479686
-1.42852432346773,1381.5936479686
-1.42654187231966,1381.6036479686
-1.42414127488954,1381.6136479686
-1.42295381755528,1381.6236479686
-1.4221830916136,1381.6336479686
-1.42210014137611,1381.6436479686
-1.42237140168345,1381.6536479686
-1.42134383394669,1381.6636479686
-1.41793714670596,1381.6736479686
-1.41321975714569,1381.6836479686
-1.40896137331098,1381.6936479686
-1.40639586141965,1381.7036479686
-1.40570522443864,1381.7136479686
-1.4057330395254,1381.7236479686
-1.4050249548713,1381.7336479686
-1.4029983968564,1381.7436479686
-1.39974371933397,1381.7536479686
-1.39831362211955,1381.7636479686
-1.39867957537141,1381.7736479686
-1.40058690133301,1381.7836479686
-1.40318397402713,1381.7936479686
-1.40485021236189,1381.8036479686
-1.40515742888926,1381.8136479686
-1.4043527844127,1381.8236479686
-1.4048710193219,1381.8336479686
-1.40767533090247,1381.8436479686
-1.41248444913282,1381.8536479686
-1.41887282306835,1381.8636479686
-1.42446511516141,1381.8736479686
-1.42789740510432,1381.8836479686
-1.43037595125427,1381.8936479686
-1.4335885906479,1381.9036479686
-1.43773726006766,1381.9136479686
-1.44236009494067,1381.9236479686
-1.44741038303933,1381.9336479686
-1.451367875048,1381.9436479686
-1.45356104637896,1381.9536479686
-1.45431923537873,1381.9636479686
-1.45560568920662,1381.9736479686
-1.45824546937768,1381.9836479686
-1.46145218253626,1381.9936479686
-1.46511439587415,1382.0036479686
-1.46815301921231,1382.0136479686
-1.46942789718664,1382.0236479686
-1.46976529095822,1382.0336479686
-1.47063369843272,1382.0436479686
-1.47283116472909,1382.0536479686
-1.47574324140608,1382.0636479686
-1.47865514690664,1382.0736479686
-1.48066163449445,1382.0836479686
-1.48059976867538,1382.0936479686
-1.47944042264182,1382.1036479686
-1.47959052077334,1382.1136479686
-1.48169355523106,1382.1236479686
-1.48550402711867,1382.1336479686
-1.49024081324636,1382.1436479686
-1.49393561127891,1382.1536479686
-1.49556887644022,1382.1636479686
-1.49457614479734,1382.1736479686
-1.49257890386953,1382.1836479686
-1.48904638290937,1382.1936479686
-1.48178741291948,1382.2036479686
-1.46895425151852,1382.2136479686
-1.44854234253586,1382.2236479686
-1.4203850838615,1382.2336479686
-1.38576783015217,1382.2436479686
-1.34879976240183,1382.2536479686
-1.31245083443295,1382.2636479686
-1.27820502199478,1382.2736479686
-1.24615230521945,1382.2836479686
-1.21546845014554,1382.2936479686
-1.18559253983071,1382.3036479686
-1.15717212177359,1382.3136479686
-1.13131570126787,1382.3236479686
-1.10768398352676,1382.3336479686
-1.08652862806313,1382.3436479686
-1.06661506961116,1382.3536479686
-1.04700386582396,1382.3636479686
-1.02647446170053,1382.3736479686
-1.0063645526202,1382.3836479686
-0.987334582281021,1382.3936479686
-0.969609051025421,1382.4036479686
-0.953896059046201,1382.4136479686
-0.938818633765975,1382.4236479686
-0.923810512381889,1382.4336479686
-0.90807753552356,1382.4436479686
-0.893354615424392,1382.4536479686
-0.88146446144289,1382.4636479686
-0.873207319098719,1382.4736479686
-0.86811293952502,1382.4836479686
-0.864567906884254,1382.4936479686
-0.860387171089405,1382.5036479686
-0.854990631079104,1382.5136479686
-0.849020432838221,1382.5236479686
-0.843110748404444,1382.5336479686
-0.838660752331485,1382.5436479686
-0.834356331496667,1382.5536479686
-0.830266100830096,1382.5636479686
-0.825487044122066,1382.5736479686
-0.819529613587905,1382.5836479686
-0.813534173655563,1382.5936479686
-0.808621443858245,1382.6036479686
-0.805185491286917,1382.6136479686
-0.803537239619671,1382.6236479686
-0.803133034417503,1382.6336479686
-0.803290545356608,1382.6436479686
-0.802499524835065,1382.6536479686
-0.801589744297887,1382.6636479686
-0.801417439771349,1382.6736479686
-0.803347614305027,1382.6836479686
-0.806905764476261,1382.6936479686
-0.811688642145132,1382.7036479686
-0.816962648362251,1382.7136479686
-0.821760166484663,1382.7236479686
-0.826072452634578,1382.7336479686
-0.831837649564377,1382.7436479686
-0.839321499746166,1382.7536479686
-0.847164608744822,1382.7636479686
-0.855595228511736,1382.7736479686
-0.863038733936063,1382.7836479686
-0.868021470158023,1382.7936479686
-0.8719942591488,1382.8036479686
-0.876101911130231,1382.8136479686
-0.881324665100856,1382.8236479686
-0.888052852214655,1382.8336479686
-0.895187202992713,1382.8436479686
-0.902184778324021,1382.8536479686
-0.907760820230588,1382.8636479686
-0.912784120896949,1382.8736479686
-0.918782321285272,1382.8836479686
-0.925927498396593,1382.8936479686
-0.933601156087428,1382.9036479686
-0.940875336304567,1382.9136479686
-0.947635179662042,1382.9236479686
-0.952194771570327,1382.9336479686
-0.956357978548235,1382.9436479686
-0.961217121341078,1382.9536479686
-0.966510468108568,1382.9636479686
-0.972849138576496,1382.9736479686
-0.979065314229711,1382.9836479686
-0.984928686152952,1382.9936479686
-0.989175943678562,1383.0036479686
-0.992676652353868,1383.0136479686
-0.99665235261704,1383.0236479686
-1.00156996608124,1383.0336479686
-1.00709736641363,1383.0436479686
-1.01310481057088,1383.0536479686
-1.01804723134368,1383.0636479686
-1.02024878785541,1383.0736479686
-1.0214638011006,1383.0836479686
-1.02359372291166,1383.0936479686
-1.02734358418952,1383.1036479686
-1.03251713806851,1383.1136479686
-1.03849959038866,1383.1236479686
-1.04382924339181,1383.1336479686
-1.0472739033437,1383.1436479686
-1.04931596209052,1383.1536479686
-1.05147314784845,1383.1636479686
-1.05343189318288,1383.1736479686
-1.05431395566373,1383.1836479686
-1.05228257478381,1383.1936479686
-1.0432849953905,1383.2036479686
-1.02640057106021,1383.2136479686
-1.00145348311874,1383.2236479686
-0.971904103632945,1383.2336479686
-0.939401929927903,1383.2436479686
-0.905818506232886,1383.2536479686
-0.872484290973907,1383.2636479686
-0.840512152161547,1383.2736479686
-0.810892404707585,1383.2836479686
-0.784051965652015,1383.2936479686
-0.759749110377178,1383.3036479686
-0.738296507116579,1383.3136479686
-0.719531622940773,1383.3236479686
-0.702354113612409,1383.3336479686
-0.684104033321242,1383.3436479686
-0.666413558103078,1383.3536479686
-0.651585075255675,1383.3636479686
-0.640179409068749,1383.3736479686
-0.631894762815403,1383.3836479686
-0.625207721538412,1383.3936479686
-0.617591493144406,1383.4036479686
-0.607590925623873,1383.4136479686
-0.5962350760109,1383.4236479686
-0.586343150422397,1383.4336479686
-0.579106054663859,1383.4436479686
-0.57529815925502,1383.4536479686
-0.573727642482408,1383.4636479686
-0.572622487646898,1383.4736479686
-0.56969970954339,1383.4836479686
-0.565117313170579,1383.4936479686
-0.562249477963873,1383.5036479686
-0.562262451059321,1383.5136479686
-0.564467450421115,1383.5236479686
-0.566775007372172,1383.5336479686
-0.568155802764434,1383.5436479686
-0.566138256657333,1383.5536479686
-0.562226603141799,1383.5636479686
-0.559497824316982,1383.5736479686
-0.558034469700987,1383.5836479686
-0.558821241642231,1383.5936479686
-0.561259984612759,1383.6036479686
-0.563231416347479,1383.6136479686
-0.564631155159646,1383.6236479686
-0.565616293246027,1383.6336479686
-0.567946286098769,1383.6436479686
-0.573343029148596,1383.6536479686
-0.581726813177008,1383.6636479686
-0.590702699053273,1383.6736479686
-0.599214179601025,1383.6836479686
-0.605589792959694,1383.6936479686
-0.610777681448414,1383.7036479686
-0.617711064521549,1383.7136479686
-0.626817664219344,1383.7236479686
-0.638368156769272,1383.7336479686
-0.651094113610941,1383.7436479686
-0.663536225754131,1383.7536479686
-0.673347507919199,1383.7636479686
-0.681446122350835,1383.7736479686
-0.691454537608957,1383.7836479686
-0.704650923063616,1383.7936479686
-0.720373252108766,1383.8036479686
-0.737080349276472,1383.8136479686
-0.75286372116157,1383.8236479686
-0.765061557472845,1383.8336479686
-0.774511466397609,1383.8436479686
-0.785056678178507,1383.8536479686
-0.798102847117902,1383.8636479686
-0.813781988015284,1383.8736479686
-0.830834489626937,1383.8836479686
-0.84698989365549,1383.8936479686
-0.859595055921355,1383.9036479686
-0.86914975580274,1383.9136479686
-0.879486469293461,1383.9236479686
-0.892989544308554,1383.9336479686
-0.909121519486985,1383.9436479686
-0.926819178691338,1383.9536479686
-0.943272156061595,1383.9636479686
-0.956528839983773,1383.9736479686
-0.966974209431625,1383.9836479686
-0.978106469451399,1383.9936479686
-0.991445393570952,1384.0036479686
-1.00661010608133,1384.0136479686
-1.02320682275812,1384.0236479686
-1.03817036158322,1384.0336479686
-1.05029384010456,1384.0436479686
-1.06025708246547,1384.0536479686
-1.0707335194267,1384.0636479686
-1.08323294247701,1384.0736479686
-1.09739244601993,1384.0836479686
-1.11223332642194,1384.0936479686
-1.12620442430181,1384.1036479686
-1.13675368097883,1384.1136479686
-1.14525329734016,1384.1236479686
-1.15483859478825,1384.1336479686
-1.16693042468767,1384.1436479686
-1.18050583487485,1384.1536479686
-1.19445957696141,1384.1636479686
-1.20667061976188,1384.1736479686
-1.21602622558261,1384.1836479686
-1.22293372407027,1384.1936479686
-1.2292348350955,1384.2036479686
-1.23370671327057,1384.2136479686
-1.23466109932355,1384.2236479686
-1.22915926235103,1384.2336479686
-1.21596193361124,1384.2436479686
-1.19321711704285,1384.2536479686
-1.1642868279077,1384.2636479686
-1.13327197293044,1384.2736479686
-1.10424317965583,1384.2836479686
-1.07865283244814,1384.2936479686
-1.0568144033448,1384.3036479686
-1.03803880880919,1384.3136479686
-1.02195638782925,1384.3236479686
-1.00707044079083,1384.3336479686
-0.991874304854006,1384.3436479686
-0.977012706120831,1384.3536479686
-0.96540418034302,1384.3636479686
-0.957575097011953,1384.3736479686
-0.951941983636588,1384.3836479686
-0.947769502951733,1384.3936479686
-0.942868590375112,1384.4036479686
-0.935930384934327,1384.4136479686
-0.927698600169345,1384.4236479686
-0.920930323896576,1384.4336479686
-0.916537387374803,1384.4436479686
-0.915115155391797,1384.4536479686
-0.915779998423927,1384.4636479686
-0.917268052383443,1384.4736479686
-0.918099901085347,1384.4836479686
-0.918682747083405,1384.4936479686
-0.92062471750062,1384.5036479686
-0.923796849933974,1384.5136479686
-0.928363242510526,1384.5236479686
-0.932651690356953,1384.5336479686
-0.936130639780513,1384.5436479686
-0.936401227108881,1384.5536479686
-0.935283404564392,1384.5636479686
-0.934472009341637,1384.5736479686
-0.935558242709554,1384.5836479686
-0.938588017167215,1384.5936479686
-0.942189780254486,1384.6036479686
-0.945310180134329,1384.6136479686
-0.945714050004128,1384.6236479686
-0.944734067768609,1384.6336479686
-0.945240126593833,1384.6436479686
-0.948886104115117,1384.6536479686
-0.955077348596612,1384.6636479686
-0.962245341268521,1384.6736479686
-0.968868719017097,1384.6836479686
-0.971660774211074,1384.6936479686
-0.972571020559432,1384.7036479686
-0.974804522724229,1384.7136479686
-0.980206738473606,1384.7236479686
-0.988958617460109,1384.7336479686
-0.998938795892929,1384.7436479686
-1.00842194860557,1384.7536479686
-1.01427731713885,1384.7636479686
-1.01832221889588,1384.7736479686
