PPG,time
0.0945842352247135,1529.36498792704
0.192194968812866,1529.37498792704
0.176134936588588,1529.38498792704
0.192994230366779,1529.39498792704
0.189499454749547,1529.40498792704
0.197273947564386,1529.41498792704
0.195828633543939,1529.42498792704
0.198254753000827,1529.43498792704
0.196771277081656,1529.44498792704
0.196769716348042,1529.45498792704
0.195446514471863,1529.46498792704
0.193995409484462,1529.47498792704
0.192203740315724,1529.48498792704
0.190302444401722,1529.49498792704
0.187745666781397,1529.50498792704
0.185376976551779,1529.51498792704
0.182662553753955,1529.52498792704
0.179885287257458,1529.53498792704
0.176720122152487,1529.54498792704
0.17311342246739,1529.55498792704
0.169361100899767,1529.56498792704
0.163834786803403,1529.57498792704
0.15836260475041,1529.58498792704
0.153107876001617,1529.59498792704
0.147602484005503,1529.60498792704
0.142293366108191,1529.61498792704
0.136563461839734,1529.62498792704
0.130786573496248,1529.63498792704
0.125199620636269,1529.64498792704
0.119288862609181,1529.65498792704
0.113117243288405,1529.66498792704
0.10636712925858,1529.67498792704
0.0996577673627425,1529.68498792704
0.0932811572602501,1529.69498792704
0.0873354198638393,1529.70498792704
0.0819427317738489,1529.71498792704
0.0771731699573737,1529.72498792704
0.072025563695982,1529.73498792704
0.0663105335160185,1529.74498792704
0.0602339696154038,1529.75498792704
0.0539994723956887,1529.76498792704
0.0478980540606516,1529.77498792704
0.0413048675740665,1529.78498792704
0.0350917442624728,1529.79498792704
0.0287830660211512,1529.80498792704
0.0227150723562264,1529.81498792704
0.0166848758093527,1529.82498792704
0.0106446485118172,1529.83498792704
0.00488290420536884,1529.84498792704
-0.000761534806613265,1529.85498792704
-0.00619007095579758,1529.86498792704
-0.011539596028736,1529.87498792704
-0.0166351347422572,1529.88498792704
-0.0213080551814875,1529.89498792704
-0.0255449871575875,1529.90498792704
-0.0298337127181538,1529.91498792704
-0.0334165101603738,1529.92498792704
-0.0380459973773519,1529.93498792704
-0.0428050931269292,1529.94498792704
-0.0483665489350324,1529.95498792704
-0.0541014102969239,1529.96498792704
-0.0596861147210379,1529.97498792704
-0.0648765011828511,1529.98498792704
-0.0683961049959723,1529.99498792704
-0.0693683172218383,1530.00498792704
-0.0648465671916179,1530.01498792704
-0.0531899927996674,1530.02498792704
-0.0333282709929829,1530.03498792704
-0.00571319127680772,1530.04498792704
0.028431877039933,1530.05498792704
0.0672443610846431,1530.06498792704
0.107942006518337,1530.07498792704
0.148747704568912,1530.08498792704
0.18721911602392,1530.09498792704
0.221434704767388,1530.10498792704
0.250660457858705,1530.11498792704
0.274020074070053,1530.12498792704
0.291681071104001,1530.13498792704
0.304758983214657,1530.14498792704
0.314574197298119,1530.15498792704
0.321927305269415,1530.16498792704
0.327348043360639,1530.17498792704
0.331150989258597,1530.18498792704
0.333630656612734,1530.19498792704
0.335478667408036,1530.20498792704
0.336456134240741,1530.21498792704
0.337250060097712,1530.22498792704
0.337782990124638,1530.23498792704
0.33899474108877,1530.24498792704
0.340486528383224,1530.25498792704
0.341563707019919,1530.26498792704
0.342651735510711,1530.27498792704
0.342142563460333,1530.28498792704
0.340198243739837,1530.29498792704
0.337055794750612,1530.30498792704
0.332406921999815,1530.31498792704
0.327141468903347,1530.32498792704
0.322284537677172,1530.33498792704
0.318056271482012,1530.34498792704
0.315208361286153,1530.35498792704
0.313888324899387,1530.36498792704
0.314343712997979,1530.37498792704
0.317358397846435,1530.38498792704
0.321975216622418,1530.39498792704
0.328421477730583,1530.40498792704
0.336108950037047,1530.41498792704
0.344173752507306,1530.42498792704
0.352658576771613,1530.43498792704
0.361037315625755,1530.44498792704
0.368959849843613,1530.45498792704
0.375735960670104,1530.46498792704
0.381080431429939,1530.47498792704
0.384570268784777,1530.48498792704
0.386342143545583,1530.49498792704
0.386689697129045,1530.50498792704
0.385484658000341,1530.51498792704
0.383590686971386,1530.52498792704
0.38178878985498,1530.53498792704
0.379327798977159,1530.54498792704
0.376564939556306,1530.55498792704
0.373376254035904,1530.56498792704
0.370085496419554,1530.57498792704
0.366242073858902,1530.58498792704
0.362176182534523,1530.59498792704
0.357318583970547,1530.60498792704
0.352243771427643,1530.61498792704
0.346950466211749,1530.62498792704
0.341437801734443,1530.63498792704
0.33579881803851,1530.64498792704
0.329446176947782,1530.65498792704
0.323130402328366,1530.66498792704
0.316173826472006,1530.67498792704
0.308857344496625,1530.68498792704
0.301479772115072,1530.69498792704
0.294170851444525,1530.70498792704
0.287322776793436,1530.71498792704
0.280470713028801,1530.72498792704
0.273611658864352,1530.73498792704
0.266762706559318,1530.74498792704
0.25971222062828,1530.75498792704
0.252658045760719,1530.76498792704
0.245334299327118,1530.77498792704
0.237094865394058,1530.78498792704
0.228253189079495,1530.79498792704
0.219661624825582,1530.80498792704
0.211396846577873,1530.81498792704
0.203803931175753,1530.82498792704
0.196737063087821,1530.83498792704
0.190184827457073,1530.84498792704
0.183991285917671,1530.85498792704
0.177203584574604,1530.86498792704
0.170744361069467,1530.87498792704
0.16395943870529,1530.88498792704
0.157495430792767,1530.89498792704
0.150940599661713,1530.90498792704
0.144155140896648,1530.91498792704
0.137117574874251,1530.92498792704
0.130060623416592,1530.93498792704
0.123024880249006,1530.94498792704
0.116220149857765,1530.95498792704
0.110241997873339,1530.96498792704
0.104858500992232,1530.97498792704
0.0992759088897384,1530.98498792704
0.0936051504859118,1530.99498792704
0.0872171458510987,1531.00498792704
0.0808548302735864,1531.01498792704
0.0751622333437507,1531.02498792704
0.070453890634291,1531.03498792704
0.068725087246867,1531.04498792704
0.0706754150724571,1531.05498792704
0.0787970735705091,1531.06498792704
0.0941199031989538,1531.07498792704
0.117899709746257,1531.08498792704
0.14946548122742,1531.09498792704
0.187251842166048,1531.10498792704
0.229722467146457,1531.11498792704
0.273383294560988,1531.12498792704
0.316467241674465,1531.13498792704
0.357386594295037,1531.14498792704
0.393535768227474,1531.15498792704
0.423857603025682,1531.16498792704
0.448228081132644,1531.17498792704
0.466642178414251,1531.18498792704
0.479685029366796,1531.19498792704
0.488244372571176,1531.20498792704
0.492983978617677,1531.21498792704
0.494550260873973,1531.22498792704
0.493948341438152,1531.23498792704
0.491947748174976,1531.24498792704
0.489245919194195,1531.25498792704
0.486734028691018,1531.26498792704
0.483841842326622,1531.27498792704
0.480610284604744,1531.28498792704
0.477511555064396,1531.29498792704
0.473680877798592,1531.30498792704
0.469212786502947,1531.31498792704
0.464077329608305,1531.32498792704
0.457217849118975,1531.33498792704
0.449343480310943,1531.34498792704
0.440705108020961,1531.35498792704
0.432388377737245,1531.36498792704
0.42486776155872,1531.37498792704
0.419471890246322,1531.38498792704
0.415826911526858,1531.39498792704
0.414347366861861,1531.40498792704
0.415629700525801,1531.41498792704
0.419071189727319,1531.42498792704
0.42486208104112,1531.43498792704
0.432263021734565,1531.44498792704
0.440679217649839,1531.45498792704
0.449758551412189,1531.46498792704
0.458516746164048,1531.47498792704
0.466430507674373,1531.48498792704
0.473026323508011,1531.49498792704
0.478070295281578,1531.50498792704
0.480639532173162,1531.51498792704
0.482098870748916,1531.52498792704
0.482014378036649,1531.53498792704
0.480411110480967,1531.54498792704
0.478232839164392,1531.55498792704
0.475239829669593,1531.56498792704
0.471462303312698,1531.57498792704
0.467057193493526,1531.58498792704
0.461479153224228,1531.59498792704
0.455323093366792,1531.60498792704
0.448658378598793,1531.61498792704
0.442000550325717,1531.62498792704
0.435648964610428,1531.63498792704
0.429243780214936,1531.64498792704
0.42294797265816,1531.65498792704
0.416609860586543,1531.66498792704
0.410362723750717,1531.67498792704
0.403878665117571,1531.68498792704
0.396917243284924,1531.69498792704
0.388957848371378,1531.70498792704
0.380624163605729,1531.71498792704
0.372104520781154,1531.72498792704
0.364042801978789,1531.73498792704
0.356498659151276,1531.74498792704
0.348606915123756,1531.75498792704
0.340791338549221,1531.76498792704
0.332767643225563,1531.77498792704
0.32497146232025,1531.78498792704
0.317313176998956,1531.79498792704
0.309187575937571,1531.80498792704
0.301114948087417,1531.81498792704
0.29308246278486,1531.82498792704
0.284442044075736,1531.83498792704
0.275698858280528,1531.84498792704
0.267016844380202,1531.85498792704
0.258592884884722,1531.86498792704
0.25022163861904,1531.87498792704
0.242919007766013,1531.88498792704
0.236045899297966,1531.89498792704
0.229048121357268,1531.90498792704
0.222264410268804,1531.91498792704
0.214825944212193,1531.92498792704
0.207605687194014,1531.93498792704
0.200113521878332,1531.94498792704
0.192721192500682,1531.95498792704
0.185157569725813,1531.96498792704
0.17776260559581,1531.97498792704
0.170378064370725,1531.98498792704
0.163303305190067,1531.99498792704
0.156731551070098,1532.00498792704
0.150937048425346,1532.01498792704
0.147429356451974,1532.02498792704
0.147531452797795,1532.03498792704
0.154002051077635,1532.04498792704
0.169683289631773,1532.05498792704
0.195225982936882,1532.06498792704
0.231172925981228,1532.07498792704
0.275920177890362,1532.08498792704
0.326869385961417,1532.09498792704
0.381003680948075,1532.10498792704
0.434867986765857,1532.11498792704
0.485483893710792,1532.12498792704
0.530365615577594,1532.13498792704
0.568193485651866,1532.14498792704
0.598488495912114,1532.15498792704
0.620533070531203,1532.16498792704
0.635965171398863,1532.17498792704
0.646419014835913,1532.18498792704
0.651989438679123,1532.19498792704
0.655032234012839,1532.20498792704
0.655472733793259,1532.21498792704
0.65397145958624,1532.22498792704
0.651790028299713,1532.23498792704
0.649425322131963,1532.24498792704
0.646196948299273,1532.25498792704
0.642510235269071,1532.26498792704
0.639569783925597,1532.27498792704
0.636301742835367,1532.28498792704
0.632472373942857,1532.29498792704
0.627334527066127,1532.30498792704
0.62083776255555,1532.31498792704
0.613108789433895,1532.32498792704
0.603909207009413,1532.33498792704
0.594293173078143,1532.34498792704
0.585145840057685,1532.35498792704
0.576928763959899,1532.36498792704
0.570124973037982,1532.37498792704
0.565351693018201,1532.38498792704
0.562818810517779,1532.39498792704
0.562731816098697,1532.40498792704
0.564590996809286,1532.41498792704
0.568298897792141,1532.42498792704
0.573988804194349,1532.43498792704
0.581171704942476,1532.44498792704
0.589184524367544,1532.45498792704
0.596833617108357,1532.46498792704
0.603901704754481,1532.47498792704
0.609860727587474,1532.48498792704
0.613728974096831,1532.49498792704
0.616135617340066,1532.50498792704
0.6169177158335,1532.51498792704
0.61591450991107,1532.52498792704
0.613582498706372,1532.53498792704
0.609609394671776,1532.54498792704
0.604917004645423,1532.55498792704
0.599312369590002,1532.56498792704
0.593385265333374,1532.57498792704
0.58690424060574,1532.58498792704
0.579657717653038,1532.59498792704
0.572219619500358,1532.60498792704
0.564725886215205,1532.61498792704
0.55664574486156,1532.62498792704
0.548534167745417,1532.63498792704
0.539846310377569,1532.64498792704
0.531622709392988,1532.65498792704
0.522679092400495,1532.66498792704
0.514013859854042,1532.67498792704
0.505262610752481,1532.68498792704
0.496112339098154,1532.69498792704
0.486430669658216,1532.70498792704
0.475942106665974,1532.71498792704
0.465022060644118,1532.72498792704
0.453912797188679,1532.73498792704
0.443258846433427,1532.74498792704
0.432766855846987,1532.75498792704
0.422958325780867,1532.76498792704
0.412928147187437,1532.77498792704
0.403590012308475,1532.78498792704
0.394216621377248,1532.79498792704
0.384228679104695,1532.80498792704
0.374352145869123,1532.81498792704
0.36474876452253,1532.82498792704
0.355254768372731,1532.83498792704
0.345611446651106,1532.84498792704
0.336219310538811,1532.85498792704
0.326638068511924,1532.86498792704
0.316819312933396,1532.87498792704
0.306764623770361,1532.88498792704
0.296420547500381,1532.89498792704
0.287029127359754,1532.90498792704
0.277791188562483,1532.91498792704
0.268321864306881,1532.92498792704
0.260057455954425,1532.93498792704
0.251336793293236,1532.94498792704
0.243138089077158,1532.95498792704
0.235489749403024,1532.96498792704
0.227204937932825,1532.97498792704
0.218893728562253,1532.98498792704
0.210530749007234,1532.99498792704
0.202090236290092,1533.00498792704
0.193254396786277,1533.01498792704
0.184175805937932,1533.02498792704
0.174910145336955,1533.03498792704
0.165732816862996,1533.04498792704
0.157412682304276,1533.05498792704
0.150812773763665,1533.06498792704
0.148502220099891,1533.07498792704
0.152405563773654,1533.08498792704
0.165342822580667,1533.09498792704
0.188466905707745,1533.10498792704
0.222973963619003,1533.11498792704
0.267493581389519,1533.12498792704
0.319788566279125,1533.13498792704
0.377862818499314,1533.14498792704
0.436513078873722,1533.15498792704
0.493596887532911,1533.16498792704
0.545756921775886,1533.17498792704
0.590231974423435,1533.18498792704
0.626553460891119,1533.19498792704
0.654370775435765,1533.20498792704
0.674517085756257,1533.21498792704
0.68828340790932,1533.22498792704
0.696824245443969,1533.23498792704
0.70179798041477,1533.24498792704
0.704140650391654,1533.25498792704
0.704063574947963,1533.26498792704
0.702140913569702,1533.27498792704
0.699661407523103,1533.28498792704
0.696353004119556,1533.29498792704
0.693163544802106,1533.30498792704
0.689468763816546,1533.31498792704
0.685552102088134,1533.32498792704
0.68165371718863,1533.33498792704
0.676546360741572,1533.34498792704
0.67029511712575,1533.35498792704
0.662240875415228,1533.36498792704
0.653026137908781,1533.37498792704
0.642857824542656,1533.38498792704
0.632333789640972,1533.39498792704
0.621802884861825,1533.40498792704
0.612277395779978,1533.41498792704
0.604040158213856,1533.42498792704
0.597805991933136,1533.43498792704
0.59413949875529,1533.44498792704
0.593451255007693,1533.45498792704
0.59586226858342,1533.46498792704
0.600990796991448,1533.47498792704
0.607787796693726,1533.48498792704
0.61556121662274,1533.49498792704
0.623758698196728,1533.50498792704
0.631877927725164,1533.51498792704
0.638412096801508,1533.52498792704
0.643908192875358,1533.53498792704
0.64706851021011,1533.54498792704
0.648555988940177,1533.55498792704
0.648029527541524,1533.56498792704
0.645598926414363,1533.57498792704
0.641960339317068,1533.58498792704
0.637301014785379,1533.59498792704
0.631945862747252,1533.60498792704
0.626313583884879,1533.61498792704
0.619801452913027,1533.62498792704
0.612641306558222,1533.63498792704
0.604799336624866,1533.64498792704
0.596183661560386,1533.65498792704
0.586873003129012,1533.66498792704
0.577010276177716,1533.67498792704
0.566898850874087,1533.68498792704
0.556570470217506,1533.69498792704
0.54577128899853,1533.70498792704
0.535106874110588,1533.71498792704
0.523935782200149,1533.72498792704
0.513126169960859,1533.73498792704
0.501527939952036,1533.74498792704
0.490179604284699,1533.75498792704
0.478440677771958,1533.76498792704
0.46676699658307,1533.77498792704
0.455073845589595,1533.78498792704
0.44366350768365,1533.79498792704
0.432021701076166,1533.80498792704
0.421093531842815,1533.81498792704
0.410384513014115,1533.82498792704
0.400134816247961,1533.83498792704
0.388767126100862,1533.84498792704
0.377721386755981,1533.85498792704
0.366761046393649,1533.86498792704
0.35586245065204,1533.87498792704
0.344712182184556,1533.88498792704
0.333573040015253,1533.89498792704
0.322402169716407,1533.90498792704
0.311077309787317,1533.91498792704
0.29933207699034,1533.92498792704
0.288136389681558,1533.93498792704
0.277564923827638,1533.94498792704
0.267781381560686,1533.95498792704
0.258393571161778,1533.96498792704
0.24906372999277,1533.97498792704
0.239876305392622,1533.98498792704
0.230411183381829,1533.99498792704
0.22123242282437,1534.00498792704
0.212394143901016,1534.01498792704
0.203545153082122,1534.02498792704
0.194928019664207,1534.03498792704
0.186517613232291,1534.04498792704
0.178612940240532,1534.05498792704
0.170478474809701,1534.06498792704
0.162697158832885,1534.07498792704
0.15457883520833,1534.08498792704
0.146701963304444,1534.09498792704
0.138781178625346,1534.10498792704
0.130311036348024,1534.11498792704
0.121853210259227,1534.12498792704
0.112891383038791,1534.13498792704
0.104284654584796,1534.14498792704
0.0968673489901566,1534.15498792704
0.0922175693161686,1534.16498792704
0.092953714878691,1534.17498792704
0.102386154350071,1534.18498792704
0.122584325314641,1534.19498792704
0.154783748875286,1534.20498792704
0.198281693506728,1534.21498792704
0.251372788870863,1534.22498792704
0.310976247821523,1534.23498792704
0.373072016724317,1534.24498792704
0.434046338416575,1534.25498792704
0.490442281388274,1534.26498792704
0.539773039693108,1534.27498792704
0.58088108437481,1534.28498792704
0.613036669839055,1534.29498792704
0.636549414212514,1534.30498792704
0.652181849857916,1534.31498792704
0.661070884307011,1534.32498792704
0.664342406286261,1534.33498792704
0.664254122382302,1534.34498792704
0.661396630188465,1534.35498792704
0.657179438480198,1534.36498792704
0.651604349006451,1534.37498792704
0.645423040393599,1534.38498792704
0.639035092239737,1534.39498792704
0.63222282814373,1534.40498792704
0.625522608931226,1534.41498792704
0.618224495175731,1534.42498792704
0.61098589005057,1534.43498792704
0.603249292230509,1534.44498792704
0.594234670048745,1534.45498792704
0.583974909004396,1534.46498792704
0.572702180653574,1534.47498792704
0.561121708708798,1534.48498792704
0.549673864540173,1534.49498792704
0.539825274251754,1534.50498792704
0.531842951221461,1534.51498792704
0.525920403856664,1534.52498792704
0.522640819282714,1534.53498792704
0.522020607527387,1534.54498792704
0.523965084636943,1534.55498792704
0.528469641783633,1534.56498792704
0.535137688102983,1534.57498792704
0.543518192989153,1534.58498792704
0.552357498671958,1534.59498792704
0.561017189176524,1534.60498792704
0.568835920033209,1534.61498792704
0.575556694120254,1534.62498792704
0.580335262338942,1534.63498792704
0.582427642361675,1534.64498792704
0.581695647779891,1534.65498792704
0.579555989725954,1534.66498792704
0.575478932230679,1534.67498792704
0.570139569613946,1534.68498792704
0.56450416191162,1534.69498792704
0.558179891238201,1534.70498792704
0.551807707494999,1534.71498792704
0.544282745485474,1534.72498792704
0.536320911742383,1534.73498792704
0.528341775594242,1534.74498792704
0.519687657775015,1534.75498792704
0.51075378291002,1534.76498792704
0.500845668755112,1534.77498792704
0.490667511564709,1534.78498792704
0.480033188471356,1534.79498792704
0.46926070992196,1534.80498792704
0.458061555018532,1534.81498792704
0.446785768482006,1534.82498792704
0.43501883186575,1534.83498792704
0.423400114979692,1534.84498792704
0.411620707053469,1534.85498792704
0.39972850687281,1534.86498792704
0.388127882026735,1534.87498792704
0.3758702446059,1534.88498792704
0.363409477617221,1534.89498792704
0.351443834388639,1534.90498792704
0.339675869024867,1534.91498792704
0.327912713387394,1534.92498792704
0.316557143489286,1534.93498792704
0.305458945519682,1534.94498792704
0.294654915577478,1534.95498792704
0.283601508376419,1534.96498792704
0.273064338596395,1534.97498792704
0.262900812473003,1534.98498792704
0.253102291078905,1534.99498792704
0.243546552216579,1535.00498792704
0.233927255814754,1535.01498792704
0.224088279381948,1535.02498792704
0.214170307417676,1535.03498792704
0.203643147423852,1535.04498792704
0.193411208054214,1535.05498792704
0.183791333717951,1535.06498792704
0.174056540061813,1535.07498792704
0.165011123872268,1535.08498792704
0.156652259400884,1535.09498792704
0.148007785956736,1535.10498792704
0.139912258644142,1535.11498792704
0.131141568085745,1535.12498792704
0.122547900377922,1535.13498792704
0.113439276975893,1535.14498792704
0.104615476321357,1535.15498792704
0.0952945931338731,1535.16498792704
0.0869173358944454,1535.17498792704
0.0801158478985152,1535.18498792704
0.0757966138327651,1535.19498792704
0.0766329377787791,1535.20498792704
0.0855797298687155,1535.21498792704
0.104412206939969,1535.22498792704
0.135011778781565,1535.23498792704
0.177486884166655,1535.24498792704
0.229721579148718,1535.25498792704
0.288915132651343,1535.26498792704
0.351215947924231,1535.27498792704
0.413013775281544,1535.28498792704
0.469589476269769,1535.29498792704
0.518303468176444,1535.30498792704
0.558105588940181,1535.31498792704
0.587935158438156,1535.32498792704
0.60924191230138,1535.33498792704
0.622569773163934,1535.34498792704
0.629427176410099,1535.35498792704
0.631814039116086,1535.36498792704
0.630122269908214,1535.37498792704
0.625499707759302,1535.38498792704
0.618815331933263,1535.39498792704
0.61073588187214,1535.40498792704
0.601742926238428,1535.41498792704
0.592333762237727,1535.42498792704
0.582683559414786,1535.43498792704
0.572636284867791,1535.44498792704
0.562948806855029,1535.45498792704
0.552236444167918,1535.46498792704
0.540616226263543,1535.47498792704
0.527554125224067,1535.48498792704
0.513104821760596,1535.49498792704
0.497522092662587,1535.50498792704
0.482404891010097,1535.51498792704
0.468313253918516,1535.52498792704
0.456524470906416,1535.53498792704
0.447814180322854,1535.54498792704
0.442948925276647,1535.55498792704
0.44137461572297,1535.56498792704
0.443357587931935,1535.57498792704
0.448205877620905,1535.58498792704
0.455903462235458,1535.59498792704
0.464902143964488,1535.60498792704
0.474895778675476,1535.61498792704
0.484824836974187,1535.62498792704
0.493737281358151,1535.63498792704
0.500929822253707,1535.64498792704
0.506118165353034,1535.65498792704
0.509141904746698,1535.66498792704
0.509223692073962,1535.67498792704
0.506661110312892,1535.68498792704
0.502331357964587,1535.69498792704
0.496385754341919,1535.70498792704
0.490086649780003,1535.71498792704
0.483054724697334,1535.72498792704
0.475582413623567,1535.73498792704
0.467919876910643,1535.74498792704
0.4595110098691,1535.75498792704
0.451053370631898,1535.76498792704
0.442513996073619,1535.77498792704
0.434177572026845,1535.78498792704
0.425863482544614,1535.79498792704
0.417404947458225,1535.80498792704
0.409075813793535,1535.81498792704
0.40049787602113,1535.82498792704
0.390837190384939,1535.83498792704
0.380339016075787,1535.84498792704
0.369167449804219,1535.85498792704
0.357532163883833,1535.86498792704
0.34523587364311,1535.87498792704
0.333187109531677,1535.88498792704
0.321586064828017,1535.89498792704
0.310398699503952,1535.90498792704
0.299296230311261,1535.91498792704
0.28752130955083,1535.92498792704
0.275969160774187,1535.93498792704
0.264426282066561,1535.94498792704
0.252785412223274,1535.95498792704
0.241822302465829,1535.96498792704
0.230853162091997,1535.97498792704
0.219673992334302,1535.98498792704
0.208894431184973,1535.99498792704
0.197709550599902,1536.00498792704
0.18692122140786,1536.01498792704
0.176118892268993,1536.02498792704
0.166093320715114,1536.03498792704
0.157016226131868,1536.04498792704
0.148325205424808,1536.05498792704
0.139828876597992,1536.06498792704
0.130594413603652,1536.07498792704
0.121236444767987,1536.08498792704
0.111361745155684,1536.09498792704
0.101529657187011,1536.10498792704
0.0918466567609133,1536.11498792704
0.0826068245875009,1536.12498792704
0.073152122762368,1536.13498792704
0.0635741854771728,1536.14498792704
0.0542805667034815,1536.15498792704
0.0458915913961909,1536.16498792704
0.0387704929916858,1536.17498792704
0.0358464836606741,1536.18498792704
0.0401077667653183,1536.19498792704
0.0543124106082641,1536.20498792704
0.0804831116816823,1536.21498792704
0.119695558263645,1536.22498792704
0.171371809836641,1536.23498792704
0.233651327469705,1536.24498792704
0.302514999842355,1536.25498792704
0.373753581956751,1536.26498792704
0.443119932577659,1536.27498792704
0.506433427592962,1536.28498792704
0.56101746243382,1536.29498792704
0.605218784944503,1536.30498792704
0.638613147345122,1536.31498792704
0.662101195051246,1536.32498792704
0.676564581461829,1536.33498792704
0.684323175738212,1536.34498792704
0.687245787875542,1536.35498792704
0.686494619971554,1536.36498792704
0.682838918657771,1536.37498792704
0.677484790725031,1536.38498792704
0.67092585668203,1536.39498792704
0.66347649039722,1536.40498792704
0.656382655573201,1536.41498792704
0.648872766998449,1536.42498792704
0.641501679790453,1536.43498792704
0.634008145291053,1536.44498792704
0.625753538001988,1536.45498792704
0.616054311074977,1536.46498792704
0.605413716910123,1536.47498792704
0.593171991715383,1536.48498792704
0.579969649628146,1536.49498792704
0.566403970580037,1536.50498792704
0.553396058396038,1536.51498792704
0.541635422083157,1536.52498792704
0.531658078121502,1536.53498792704
0.525274880596934,1536.54498792704
0.522011706549293,1536.55498792704
0.522142156485336,1536.56498792704
0.525286957888506,1536.57498792704
0.530784456295161,1536.58498792704
0.538512780910158,1536.59498792704
0.547058122661385,1536.60498792704
0.556155419185733,1536.61498792704
0.565250837697847,1536.62498792704
0.572844004051668,1536.63498792704
0.57879411425841,1536.64498792704
0.582206813063899,1536.65498792704
0.58309427318681,1536.66498792704
0.582378146358861,1536.67498792704
0.579907926166937,1536.68498792704
0.575685385868308,1536.69498792704
0.570043717289077,1536.70498792704
0.562479221529293,1536.71498792704
0.554029713567329,1536.72498792704
0.544529569603622,1536.73498792704
0.534600951259341,1536.74498792704
0.525030049110093,1536.75498792704
0.515469907601847,1536.76498792704
0.505682001750629,1536.77498792704
0.495570812620747,1536.78498792704
0.485656918347085,1536.79498792704
0.474883997234403,1536.80498792704
0.463765797783309,1536.81498792704
0.452572267290853,1536.82498792704
0.441003979643307,1536.83498792704
0.429277597619748,1536.84498792704
0.417356848570675,1536.85498792704
0.40518491172156,1536.86498792704
0.391929228161744,1536.87498792704
0.378674531299289,1536.88498792704
0.365130388870078,1536.89498792704
0.352015602380921,1536.90498792704
0.338758058350904,1536.91498792704
0.325587261775701,1536.92498792704
0.312804534777499,1536.93498792704
0.30001973283154,1536.94498792704
0.287587175869065,1536.95498792704
0.275647139553921,1536.96498792704
0.263678874050965,1536.97498792704
0.252267959449008,1536.98498792704
0.240913102778404,1536.99498792704
0.229474651632545,1537.00498792704
0.218639657959205,1537.01498792704
0.207555620109944,1537.02498792704
0.196283368149524,1537.03498792704
0.185584291173509,1537.04498792704
0.175069681128887,1537.05498792704
0.16511908879201,1537.06498792704
0.155478883826493,1537.07498792704
0.146126870540985,1537.08498792704
0.137568713008922,1537.09498792704
0.128863280431011,1537.10498792704
0.120419474965772,1537.11498792704
0.111518852473118,1537.12498792704
0.103002370769284,1537.13498792704
0.0938986328050279,1537.14498792704
0.0850854426178896,1537.15498792704
0.0762664085161487,1537.16498792704
0.0674166185242052,1537.17498792704
0.058593828876815,1537.18498792704
0.0494200252549145,1537.19498792704
0.041056328817074,1537.20498792704
0.0344514665716147,1537.21498792704
0.0324813050930033,1537.22498792704
0.0381479817496885,1537.23498792704
0.0549318924067009,1537.24498792704
0.0841498294312752,1537.25498792704
0.126630422907655,1537.26498792704
0.181817380963865,1537.27498792704
0.24574509646155,1537.28498792704
0.315260792214271,1537.29498792704
0.385021111796133,1537.30498792704
0.451328797368649,1537.31498792704
0.510712414967103,1537.32498792704
0.56065639701683,1537.33498792704
0.60018080691663,1537.34498792704
0.630233353148423,1537.35498792704
0.650674437066161,1537.36498792704
0.663006141654712,1537.37498792704
0.669074891111156,1537.38498792704
0.669831632314596,1537.39498792704
0.667223584101326,1537.40498792704
0.662269624328276,1537.41498792704
0.655630579097107,1537.42498792704
0.64782732850203,1537.43498792704
0.639468600358738,1537.44498792704
0.631099579054994,1537.45498792704
0.622045562040036,1537.46498792704
0.613140108595127,1537.47498792704
0.603663047194677,1537.48498792704
0.594137245727216,1537.49498792704
0.583492867200831,1537.50498792704
0.572109930983992,1537.51498792704
0.559815837162647,1537.52498792704
0.546312763705301,1537.53498792704
0.532054733660022,1537.54498792704
0.517485672831924,1537.55498792704
0.503611580033344,1537.56498792704
0.491421814559674,1537.57498792704
0.481653831579692,1537.58498792704
0.474672767775019,1537.59498792704
0.471222870853796,1537.60498792704
0.471122200473857,1537.61498792704
0.473335364983591,1537.62498792704
0.477665285373138,1537.63498792704
0.483090232357742,1537.64498792704
0.488656687369233,1537.65498792704
0.493186859067545,1537.66498792704
0.49635264613847,1537.67498792704
0.498064288599924,1537.68498792704
0.498279185886295,1537.69498792704
0.496559718069031,1537.70498792704
0.493047984668959,1537.71498792704
0.487759014578423,1537.72498792704
0.480949930972953,1537.73498792704
0.472594023962958,1537.74498792704
0.463191165208184,1537.75498792704
0.452719206547623,1537.76498792704
0.44130656143547,1537.77498792704
0.42893725346254,1537.78498792704
0.416279507514462,1537.79498792704
0.403040888228746,1537.80498792704
0.389958338729352,1537.81498792704
0.376906186491323,1537.82498792704
0.363849447533228,1537.83498792704
0.350803845919912,1537.84498792704
0.337210275815016,1537.85498792704
0.32404840145321,1537.86498792704
0.310977894387858,1537.87498792704
0.297532360166876,1537.88498792704
0.28412554956703,1537.89498792704
0.270052333720035,1537.90498792704
0.255689565226807,1537.91498792704
0.24076799231043,1537.92498792704
0.225498905201387,1537.93498792704
0.210567784873908,1537.94498792704
0.195807630723991,1537.95498792704
0.181602620614727,1537.96498792704
0.16782289038057,1537.97498792704
0.153679310411949,1537.98498792704
0.139420117784964,1537.99498792704
0.125185983365649,1538.00498792704
0.111340448572721,1538.01498792704
0.0975904117357449,1538.02498792704
0.0845631960940176,1538.03498792704
0.072359536224339,1538.04498792704
0.0598409821822025,1538.05498792704
0.0473007244637489,1538.06498792704
0.0346233628061218,1538.07498792704
0.022004093320112,1538.08498792704
0.00934847793685348,1538.09498792704
-0.00350755027701191,1538.10498792704
-0.0163153623015228,1538.11498792704
-0.0277767418248933,1538.12498792704
-0.0390036713639857,1538.13498792704
-0.0497040303406376,1538.14498792704
-0.060687211871761,1538.15498792704
-0.0712852900053164,1538.16498792704
-0.0818019741223885,1538.17498792704
-0.0923307860150583,1538.18498792704
-0.102685332225472,1538.19498792704
-0.113828058435004,1538.20498792704
-0.12517032842847,1538.21498792704
-0.136956264292626,1538.22498792704
-0.149108729136184,1538.23498792704
-0.161180278455666,1538.24498792704
-0.172865390125387,1538.25498792704
-0.183786660342324,1538.26498792704
-0.193460004132766,1538.27498792704
-0.202225239657602,1538.28498792704
-0.207953717202573,1538.29498792704
-0.208579308778277,1538.30498792704
-0.201906037473525,1538.31498792704
-0.185712426662838,1538.32498792704
-0.160144452359464,1538.33498792704
-0.126159684233082,1538.34498792704
-0.086374458214818,1538.35498792704
-0.0434499752953479,1538.36498792704
-0.00150362504172887,1538.37498792704
0.0369676112660051,1538.38498792704
0.070110873816477,1538.39498792704
0.0962057506304191,1538.40498792704
0.11535645963831,1538.41498792704
0.128078128895574,1538.42498792704
0.13451149407916,1538.43498792704
0.13597324933701,1538.44498792704
0.133650031211019,1538.45498792704
0.128113703297477,1538.46498792704
0.121032034847993,1538.47498792704
0.112367160993129,1538.48498792704
0.103488322624804,1538.49498792704
0.0944150684931912,1538.50498792704
0.0857446059510283,1538.51498792704
0.0779418604056595,1538.52498792704
0.0702757536491383,1538.53498792704
0.0628722646794255,1538.54498792704
0.0551471967415426,1538.55498792704
0.0470263128395818,1538.56498792704
0.038365906946722,1538.57498792704
0.0284273547952967,1538.58498792704
0.0178490480573722,1538.59498792704
0.00649936405597873,1538.60498792704
-0.0044150048981542,1538.61498792704
-0.0151703863189338,1538.62498792704
-0.0251065561624068,1538.63498792704
-0.0333540729527072,1538.64498792704
-0.0394324676544179,1538.65498792704
-0.0431951165037571,1538.66498792704
-0.0442136088227262,1538.67498792704
-0.0438533696231111,1538.68498792704
-0.0420579547186249,1538.69498792704
-0.0393499896694062,1538.70498792704
-0.0370133461777019,1538.71498792704
-0.0351410624486517,1538.72498792704
-0.0335673000256102,1538.73498792704
-0.0336031638890594,1538.74498792704
-0.0347262450971251,1538.75498792704
-0.0377546375516519,1538.76498792704
-0.0423869237663426,1538.77498792704
-0.0476140641417911,1538.78498792704
-0.0533399589365397,1538.79498792704
-0.0595738743625116,1538.80498792704
-0.066049469398783,1538.81498792704
-0.0724078030995579,1538.82498792704
-0.0795768070770455,1538.83498792704
-0.0877555973845116,1538.84498792704
-0.0959410877988354,1538.85498792704
-0.104962179247371,1538.86498792704
-0.114034911816906,1538.87498792704
-0.123213434870802,1538.88498792704
-0.132008448764084,1538.89498792704
-0.140757729259083,1538.90498792704
-0.148898333949684,1538.91498792704
-0.157163725174921,1538.92498792704
-0.165520507074524,1538.93498792704
-0.174147661801078,1538.94498792704
-0.183022063576116,1538.95498792704
-0.192361992854499,1538.96498792704
-0.202087697933765,1538.97498792704
-0.212274772121158,1538.98498792704
-0.22248449746546,1538.99498792704
-0.232627444139995,1539.00498792704
-0.242274059890547,1539.01498792704
-0.252070466129779,1539.02498792704
-0.261659694177992,1539.03498792704
-0.270637834065325,1539.04498792704
-0.279856936675345,1539.05498792704
-0.288550146352218,1539.06498792704
-0.29695419758357,1539.07498792704
-0.305286536794546,1539.08498792704
-0.313699733615418,1539.09498792704
-0.322303974517597,1539.10498792704
-0.331136053600344,1539.11498792704
-0.340338043041793,1539.12498792704
-0.34887829972063,1539.13498792704
-0.357267256544529,1539.14498792704
-0.366124562478411,1539.15498792704
-0.374730092080352,1539.16498792704
-0.383158708539512,1539.17498792704
-0.391539993719575,1539.18498792704
-0.399601401541609,1539.19498792704
-0.407476250743534,1539.20498792704
-0.415392116418829,1539.21498792704
-0.423408948216605,1539.22498792704
-0.431649069913419,1539.23498792704
-0.439914895423996,1539.24498792704
-0.44819416169773,1539.25498792704
-0.456365730765545,1539.26498792704
-0.463952170998112,1539.27498792704
-0.470673713641819,1539.28498792704
-0.475192921053281,1539.29498792704
-0.474799171218957,1539.30498792704
-0.467979081049321,1539.31498792704
-0.454102899117859,1539.32498792704
-0.433389604282824,1539.33498792704
-0.407658562514528,1539.34498792704
-0.378408019948574,1539.35498792704
-0.349206292191669,1539.36498792704
-0.32185383579998,1539.37498792704
-0.29792417904064,1539.38498792704
-0.278671694395371,1539.39498792704
-0.264127713065392,1539.40498792704
-0.255297529909618,1539.41498792704
-0.251233201004578,1539.42498792704
-0.251074256988045,1539.43498792704
-0.254028546120579,1539.44498792704
-0.259711768414903,1539.45498792704
-0.266414099232105,1539.46498792704
-0.2743625342187,1539.47498792704
-0.282267404275146,1539.48498792704
-0.289794518015701,1539.49498792704
-0.296829359558086,1539.50498792704
-0.302433456080775,1539.51498792704
-0.307751807930059,1539.52498792704
-0.311948641835617,1539.53498792704
-0.316188861780766,1539.54498792704
-0.321258079416548,1539.55498792704
-0.327505606773469,1539.56498792704
-0.334689015430082,1539.57498792704
-0.342552657657168,1539.58498792704
-0.350943624122449,1539.59498792704
-0.359304760216526,1539.60498792704
-0.366940751964192,1539.61498792704
-0.373195027805868,1539.62498792704
-0.378162575582726,1539.63498792704
-0.381060558699753,1539.64498792704
-0.382102969169093,1539.65498792704
-0.380765643016738,1539.66498792704
-0.37784120415757,1539.67498792704
-0.374083530629086,1539.68498792704
-0.369613768532091,1539.69498792704
-0.364825951210532,1539.70498792704
-0.36066723183658,1539.71498792704
-0.357597912284179,1539.72498792704
-0.355965047378139,1539.73498792704
-0.356721468567693,1539.74498792704
-0.359113064792387,1539.75498792704
-0.362093799117878,1539.76498792704
-0.366087484525977,1539.77498792704
-0.370476111104329,1539.78498792704
-0.375328104195383,1539.79498792704
-0.380429371550125,1539.80498792704
-0.386654821768798,1539.81498792704
-0.392298904907824,1539.82498792704
-0.397747620729588,1539.83498792704
-0.403396012378605,1539.84498792704
-0.408982321308095,1539.85498792704
-0.414889362760961,1539.86498792704
-0.42074095485638,1539.87498792704
-0.426460183261688,1539.88498792704
-0.432224556428178,1539.89498792704
-0.437641971319232,1539.90498792704
-0.442778042691181,1539.91498792704
-0.448100814919931,1539.92498792704
-0.453879098155459,1539.93498792704
-0.459923800189442,1539.94498792704
-0.465989643916099,1539.95498792704
-0.471523971730806,1539.96498792704
-0.476932209160355,1539.97498792704
-0.482359386102169,1539.98498792704
-0.4878853568079,1539.99498792704
-0.49313844138703,1540.00498792704
-0.498880557477437,1540.01498792704
-0.50490256139758,1540.02498792704
-0.511088911078701,1540.03498792704
-0.517500370125968,1540.04498792704
-0.5243315188268,1540.05498792704
-0.531165854345119,1540.06498792704
-0.537501090828208,1540.07498792704
-0.543636659546215,1540.08498792704
-0.549148377951736,1540.09498792704
-0.553794535911654,1540.10498792704
-0.558774111415065,1540.11498792704
-0.5635895779585,1540.12498792704
-0.568208951112697,1540.13498792704
-0.573073448194575,1540.14498792704
-0.578303779927609,1540.15498792704
-0.583413222541063,1540.16498792704
-0.58862672486844,1540.17498792704
-0.593406542039121,1540.18498792704
-0.598314693064956,1540.19498792704
-0.60338235129037,1540.20498792704
-0.608888058094411,1540.21498792704
-0.615169148547978,1540.22498792704
-0.620880224761644,1540.23498792704
-0.626605155775774,1540.24498792704
-0.630713339470202,1540.25498792704
-0.631442760068157,1540.26498792704
-0.626783135488618,1540.27498792704
-0.61542985950267,1540.28498792704
-0.597079836615617,1540.29498792704
-0.57297420673943,1540.30498792704
-0.545572482016229,1540.31498792704
-0.517213168565412,1540.32498792704
-0.490515263507768,1540.33498792704
-0.467001548893711,1540.34498792704
-0.447021490785923,1540.35498792704
-0.432551614188878,1540.36498792704
-0.422346754212791,1540.37498792704
-0.41645697761815,1540.38498792704
-0.414036723002796,1540.39498792704
-0.414268015962457,1540.40498792704
-0.416912207315644,1540.41498792704
-0.420238467964181,1540.42498792704
-0.424598972654354,1540.43498792704
-0.429018215289764,1540.44498792704
-0.432604302767192,1540.45498792704
-0.435782632914944,1540.46498792704
-0.437906425520778,1540.47498792704
-0.440230287531817,1540.48498792704
-0.441683459804916,1540.49498792704
-0.443165315671226,1540.50498792704
-0.444441846096831,1540.51498792704
-0.446008990273994,1540.52498792704
-0.448238382661709,1540.53498792704
-0.451337679530532,1540.54498792704
-0.454940471859659,1540.55498792704
-0.459523785153723,1540.56498792704
-0.463959714275307,1540.57498792704
-0.468344336250024,1540.58498792704
-0.471308914611974,1540.59498792704
-0.472968266462366,1540.60498792704
-0.473343060645822,1540.61498792704
-0.471899933064135,1540.62498792704
-0.468816005000914,1540.63498792704
-0.464578044766434,1540.64498792704
-0.459258634188856,1540.65498792704
-0.453800837194723,1540.66498792704
-0.448126783678069,1540.67498792704
-0.443107729458509,1540.68498792704
-0.438748906976788,1540.69498792704
-0.435389857201718,1540.70498792704
-0.433293670630273,1540.71498792704
-0.432425777297698,1540.72498792704
-0.432516013906458,1540.73498792704
-0.433906843501019,1540.74498792704
-0.436017249506055,1540.75498792704
-0.438552059702533,1540.76498792704
-0.441386925115911,1540.77498792704
-0.444607174948984,1540.78498792704
-0.447981720922327,1540.79498792704
-0.450777211316983,1540.80498792704
-0.453072960211512,1540.81498792704
-0.45541110969848,1540.82498792704
-0.457545630491081,1540.83498792704
-0.459947859954141,1540.84498792704
-0.462453572096242,1540.85498792704
-0.464932328170329,1540.86498792704
-0.467289519167218,1540.87498792704
-0.469720994856859,1540.88498792704
-0.472728848833399,1540.89498792704
-0.476273823890898,1540.90498792704
-0.480362438361878,1540.91498792704
-0.484359460673437,1540.92498792704
-0.488167156022772,1540.93498792704
-0.491804571949892,1540.94498792704
-0.494962012470338,1540.95498792704
-0.498342647847976,1540.96498792704
-0.501989657833009,1540.97498792704
-0.505924039598513,1540.98498792704
-0.50989836638986,1540.99498792704
-0.514014179892777,1541.00498792704
-0.517850110008806,1541.01498792704
-0.521179005909766,1541.02498792704
-0.524352388521344,1541.03498792704
-0.527647996578862,1541.04498792704
-0.531117383240921,1541.05498792704
-0.534659909557425,1541.06498792704
-0.53829012418283,1541.07498792704
-0.542639795403498,1541.08498792704
-0.547510201125107,1541.09498792704
-0.552689713168966,1541.10498792704
-0.557521545496594,1541.11498792704
-0.562233309515872,1541.12498792704
-0.566838585044236,1541.13498792704
-0.571088050103403,1541.14498792704
-0.575018346605986,1541.15498792704
-0.579045867626964,1541.16498792704
-0.58337073529081,1541.17498792704
-0.587511701456055,1541.18498792704
-0.591640876030744,1541.19498792704
-0.595624078888151,1541.20498792704
-0.599926450236556,1541.21498792704
-0.604347419312989,1541.22498792704
-0.606992917079264,1541.23498792704
-0.606756901375913,1541.24498792704
-0.601622091454385,1541.25498792704
-0.590817071617623,1541.26498792704
-0.573738828510987,1541.27498792704
-0.550459723183153,1541.28498792704
-0.522880526913968,1541.29498792704
-0.493213450245031,1541.30498792704
-0.464491890810035,1541.31498792704
-0.438173222436695,1541.32498792704
-0.415825505571112,1541.33498792704
-0.397491234805378,1541.34498792704
-0.38387931501893,1541.35498792704
-0.373866578425451,1541.36498792704
-0.367764588228691,1541.37498792704
-0.363784124780343,1541.38498792704
-0.362489992685441,1541.39498792704
-0.362880649363811,1541.40498792704
-0.364570466678686,1541.41498792704
-0.36702378103151,1541.42498792704
-0.369358825025191,1541.43498792704
-0.370724725224276,1541.44498792704
-0.371308009762623,1541.45498792704
-0.37123830420523,1541.46498792704
-0.370093811477071,1541.47498792704
-0.367993961568368,1541.48498792704
-0.365296216534339,1541.49498792704
-0.363098361553591,1541.50498792704
-0.361212394126684,1541.51498792704
-0.35988826128228,1541.52498792704
-0.359682230332827,1541.53498792704
-0.361276367222407,1541.54498792704
-0.363222535832871,1541.55498792704
-0.365696496130086,1541.56498792704
-0.367932898753378,1541.57498792704
-0.36909736772551,1541.58498792704
-0.369577941302074,1541.59498792704
-0.368650003962556,1541.60498792704
-0.366165391064554,1541.61498792704
-0.362437278283084,1541.62498792704
-0.357760465638177,1541.63498792704
-0.352346540786024,1541.64498792704
-0.346522640794448,1541.65498792704
-0.340456408569115,1541.66498792704
-0.334652436567767,1541.67498792704
-0.329547628778214,1541.68498792704
-0.325493901864148,1541.69498792704
-0.322141249587182,1541.70498792704
-0.320396962984623,1541.71498792704
-0.319723256131179,1541.72498792704
-0.320199192604364,1541.73498792704
-0.322211302941525,1541.74498792704
-0.32434198218344,1541.75498792704
-0.327136551031576,1541.76498792704
-0.329418860039652,1541.77498792704
-0.332076242388033,1541.78498792704
-0.334808690067477,1541.79498792704
-0.338159447178556,1541.80498792704
-0.341006121691999,1541.81498792704
-0.343604001179196,1541.82498792704
-0.345989686735381,1541.83498792704
-0.348320619512437,1541.84498792704
-0.350618366027973,1541.85498792704
-0.352754705739349,1541.86498792704
-0.354938257298818,1541.87498792704
-0.356640426768171,1541.88498792704
-0.357872374814455,1541.89498792704
-0.359324042007081,1541.90498792704
-0.36136497366902,1541.91498792704
-0.3647258195761,1541.92498792704
-0.368968310186669,1541.93498792704
-0.3734107483286,1541.94498792704
-0.378033434729861,1541.95498792704
-0.382186640884726,1541.96498792704
-0.386334074382479,1541.97498792704
-0.390003662306209,1541.98498792704
-0.393720303744982,1541.99498792704
-0.397266931565547,1542.00498792704
-0.400756678353507,1542.01498792704
-0.403664242559114,1542.02498792704
-0.407179243029391,1542.03498792704
-0.410116648686522,1542.04498792704
-0.414351318909385,1542.05498792704
-0.418888053826415,1542.06498792704
-0.423725497705516,1542.07498792704
-0.428495763809717,1542.08498792704
-0.43371548708606,1542.09498792704
-0.438358329391238,1542.10498792704
-0.442240455951593,1542.11498792704
-0.445884306132332,1542.12498792704
-0.449011301627558,1542.13498792704
-0.451557288480313,1542.14498792704
-0.451579579083841,1542.15498792704
-0.447363600589919,1542.16498792704
-0.437604247064247,1542.17498792704
-0.421286148416204,1542.18498792704
-0.398772904615891,1542.19498792704
-0.370927465084101,1542.20498792704
-0.341699691642666,1542.21498792704
-0.312906908047976,1542.22498792704
-0.286420934080467,1542.23498792704
-0.26349930136251,1542.24498792704
-0.245105606502656,1542.25498792704
-0.231008400646097,1542.26498792704
-0.221097253323451,1542.27498792704
-0.214025740147383,1542.28498792704
-0.209876239514031,1542.29498792704
-0.207628232789211,1542.30498792704
-0.207101624735709,1542.31498792704
-0.207788006507988,1542.32498792704
-0.209310258693981,1542.33498792704
-0.210938485160015,1542.34498792704
-0.212628842813696,1542.35498792704
-0.213794683757703,1542.36498792704
-0.214610934959198,1542.37498792704
-0.215016347687049,1542.38498792704
-0.215422510175773,1542.39498792704
-0.21605073030551,1542.40498792704
-0.216603287392833,1542.41498792704
-0.217639757173863,1542.42498792704
-0.219135895999405,1542.43498792704
-0.221260215418718,1542.44498792704
-0.224128788516485,1542.45498792704
-0.227705447050253,1542.46498792704
-0.2314976959677,1542.47498792704
-0.23503002315429,1542.48498792704
-0.237650054067953,1542.49498792704
-0.238955538798181,1542.50498792704
-0.238576837060416,1542.51498792704
-0.236602117776758,1542.52498792704
-0.233345837316539,1542.53498792704
-0.229544470694087,1542.54498792704
-0.225317682619381,1542.55498792704
-0.22062116035608,1542.56498792704
-0.21591839699886,1542.57498792704
-0.211753901753755,1542.58498792704
-0.208265278919629,1542.59498792704
-0.205433083858411,1542.60498792704
-0.203755208311548,1542.61498792704
-0.204024326961456,1542.62498792704
-0.20471151348645,1542.63498792704
-0.206564894217385,1542.64498792704
-0.208353394438801,1542.65498792704
-0.210768682005806,1542.66498792704
-0.213820693140542,1542.67498792704
-0.216611243216846,1542.68498792704
-0.219425314334057,1542.69498792704
-0.221839194906997,1542.70498792704
-0.224875113409223,1542.71498792704
-0.228210431909594,1542.72498792704
-0.232050400250817,1542.73498792704
-0.236087641194883,1542.74498792704
-0.239838734160287,1542.75498792704
-0.243615279795188,1542.76498792704
-0.247459628077674,1542.77498792704
-0.251296308800343,1542.78498792704
-0.254587319073184,1542.79498792704
-0.258600262976075,1542.80498792704
-0.26289319390247,1542.81498792704
-0.267086644737841,1542.82498792704
-0.27103303261703,1542.83498792704
-0.27504899896925,1542.84498792704
-0.278879995832733,1542.85498792704
-0.282931293169714,1542.86498792704
-0.287172264771965,1542.87498792704
-0.291377891543968,1542.88498792704
-0.295463615584096,1542.89498792704
-0.299890932066882,1542.90498792704
-0.304088291706475,1542.91498792704
-0.309139641708822,1542.92498792704
-0.313542650490592,1542.93498792704
-0.318073016738119,1542.94498792704
-0.322638560131807,1542.95498792704
-0.32709846410875,1542.96498792704
-0.331816944487332,1542.97498792704
-0.336263120205679,1542.98498792704
-0.339778000637265,1542.99498792704
-0.340367634712398,1543.00498792704
-0.336732511215957,1543.01498792704
-0.326634129419763,1543.02498792704
-0.310924563365826,1543.03498792704
-0.28965434367752,1543.04498792704
-0.264802782912632,1543.05498792704
-0.238068797426602,1543.06498792704
-0.211896367481388,1543.07498792704
-0.187921856561776,1543.08498792704
-0.167479486212072,1543.09498792704
-0.15147465978425,1543.10498792704
-0.139393251309291,1543.11498792704
-0.130918776357679,1543.12498792704
-0.125656949644867,1543.13498792704
-0.122878662279054,1543.14498792704
-0.12237265556059,1543.15498792704
-0.123654177699344,1543.16498792704
-0.125981759906673,1543.17498792704
-0.129640826318457,1543.18498792704
-0.133570941294709,1543.19498792704
-0.137544570947129,1543.20498792704
-0.140705559295365,1543.21498792704
-0.143493590111811,1543.22498792704
-0.145816000053055,1543.23498792704
-0.147907813518817,1543.24498792704
-0.150181185071679,1543.25498792704
-0.152455971879691,1543.26498792704
-0.155570818427044,1543.27498792704
-0.159507884159816,1543.28498792704
-0.163397934160021,1543.29498792704
-0.167899972078756,1543.30498792704
-0.172381457603993,1543.31498792704
-0.176843099209092,1543.32498792704
-0.180480169168596,1543.33498792704
-0.18318516885829,1543.34498792704
-0.184540191697079,1543.35498792704
-0.183740837464492,1543.36498792704
-0.181608394790753,1543.37498792704
-0.177749889884721,1543.38498792704
-0.17308462551438,1543.39498792704
-0.168370878134392,1543.40498792704
-0.164237523368663,1543.41498792704
-0.160640533751374,1543.42498792704
-0.158295174664235,1543.43498792704
-0.157041908148483,1543.44498792704
-0.156815459944059,1543.45498792704
-0.157575288779522,1543.46498792704
-0.159804464650841,1543.47498792704
-0.162824867650402,1543.48498792704
-0.166933904046043,1543.49498792704
-0.171135985666808,1543.50498792704
-0.174891744576417,1543.51498792704
-0.178698311897521,1543.52498792704
-0.182481110043635,1543.53498792704
-0.185561678565367,1543.54498792704
-0.18828613620202,1543.55498792704
-0.190880743531307,1543.56498792704
-0.193051303489501,1543.57498792704
-0.195837694750928,1543.58498792704
-0.198488369493724,1543.59498792704
-0.201720599869191,1543.60498792704
-0.20576118766021,1543.61498792704
-0.209695390174034,1543.62498792704
-0.213516620962808,1543.63498792704
-0.217298617213272,1543.64498792704
-0.220594117028183,1543.65498792704
-0.224133791705612,1543.66498792704
-0.228207537621799,1543.67498792704
-0.232769810611628,1543.68498792704
-0.237827386264753,1543.69498792704
-0.242686192754372,1543.70498792704
-0.247661702453936,1543.71498792704
-0.252856015415806,1543.72498792704
-0.258066782067631,1543.73498792704
-0.263122590902031,1543.74498792704
-0.267976543399862,1543.75498792704
-0.273205564283999,1543.76498792704
-0.277705943372974,1543.77498792704
-0.280308954936921,1543.78498792704
-0.279438271944205,1543.79498792704
-0.273782112019958,1543.80498792704
-0.261843101164815,1543.81498792704
-0.244660817888027,1543.82498792704
-0.222813282796273,1543.83498792704
-0.19900938500215,1543.84498792704
-0.174287819315657,1543.85498792704
-0.151933543116766,1543.86498792704
-0.132971506382733,1543.87498792704
-0.117770791619162,1543.88498792704
-0.106430996263216,1543.89498792704
-0.0988296997535687,1543.90498792704
-0.0945175740678123,1543.91498792704
-0.0929089388178502,1543.92498792704
-0.0939015656532285,1543.93498792704
-0.0965460190458513,1543.94498792704
-0.100343072631306,1543.95498792704
-0.105216986093985,1543.96498792704
-0.110007822476714,1543.97498792704
-0.114051580650845,1543.98498792704
-0.117458651331967,1543.99498792704
-0.120361338907583,1544.00498792704
-0.123113408662235,1544.01498792704
-0.125169350971494,1544.02498792704
-0.127977587929252,1544.03498792704
-0.131072033061956,1544.04498792704
-0.135230788882855,1544.05498792704
-0.14000999579954,1544.06498792704
-0.144933116123452,1544.07498792704
-0.150212017612143,1544.08498792704
-0.155179443596625,1544.09498792704
-0.15956565001871,1544.10498792704
-0.163403773392796,1544.11498792704
-0.165608335690259,1544.12498792704
-0.166045350977954,1544.13498792704
-0.165467221500307,1544.14498792704
-0.163131981387987,1544.15498792704
-0.159560352708837,1544.16498792704
-0.155419882351448,1544.17498792704
-0.151798430844311,1544.18498792704
-0.148873001118757,1544.19498792704
-0.147000450570585,1544.20498792704
-0.146111495048719,1544.21498792704
-0.146222647907278,1544.22498792704
-0.147336508950791,1544.23498792704
-0.149060586375885,1544.24498792704
-0.152257236576015,1544.25498792704
-0.156163168565855,1544.26498792704
-0.16065423742812,1544.27498792704
-0.165712375005185,1544.28498792704
-0.170612685430659,1544.29498792704
-0.175840665843786,1544.30498792704
-0.180811390881655,1544.31498792704
-0.185277401144604,1544.32498792704
-0.189231219944431,1544.33498792704
-0.19330421036967,1544.34498792704
-0.197432749417437,1544.35498792704
-0.201059858691617,1544.36498792704
-0.204378337195288,1544.37498792704
-0.208286948490129,1544.38498792704
-0.211961178323001,1544.39498792704
-0.216054405328576,1544.40498792704
-0.220089395611327,1544.41498792704
-0.224629420248314,1544.42498792704
-0.229265804073223,1544.43498792704
-0.233823495572854,1544.44498792704
-0.239011619222002,1544.45498792704
-0.244211779998771,1544.46498792704
-0.249093994250402,1544.47498792704
-0.254163574771188,1544.48498792704
-0.258865457150971,1544.49498792704
-0.263488031429647,1544.50498792704
-0.267933658605531,1544.51498792704
-0.272022804306204,1544.52498792704
-0.276458720988149,1544.53498792704
-0.281255614875551,1544.54498792704
-0.285878517719788,1544.55498792704
-0.290590799849696,1544.56498792704
-0.295096594380737,1544.57498792704
-0.299524155363757,1544.58498792704
-0.304305174063013,1544.59498792704
-0.309285640866807,1544.60498792704
-0.314319782501432,1544.61498792704
-0.319769796918062,1544.62498792704
-0.325309705320874,1544.63498792704
-0.3313892296312,1544.64498792704
-0.337391572992911,1544.65498792704
-0.34260721489795,1544.66498792704
-0.346320449047406,1544.67498792704
-0.346381289625573,1544.68498792704
-0.342172430106571,1544.69498792704
-0.331114904440866,1544.70498792704
-0.31390681459997,1544.71498792704
-0.291362325441987,1544.72498792704
-0.265475107033247,1544.73498792704
-0.238753879533237,1544.74498792704
-0.213401351887809,1544.75498792704
-0.191797072338971,1544.76498792704
-0.174774542724342,1544.77498792704
-0.162637953888788,1544.78498792704
-0.155606980743643,1544.79498792704
-0.152149432087733,1544.80498792704
-0.151396395087697,1544.81498792704
-0.152897184476336,1544.82498792704
-0.1552333525477,1544.83498792704
-0.158656498079578,1544.84498792704
-0.162863232827619,1544.85498792704
-0.166931279583015,1544.86498792704
-0.170448840459439,1544.87498792704
-0.173035015084113,1544.88498792704
-0.175063280955328,1544.89498792704
-0.176883127723478,1544.90498792704
-0.178366417353041,1544.91498792704
-0.179100323079975,1544.92498792704
-0.179520693200944,1544.93498792704
-0.180523959618489,1544.94498792704
-0.182500299728449,1544.95498792704
-0.184919278891166,1544.96498792704
-0.18825369187318,1544.97498792704
-0.191976722552314,1544.98498792704
-0.195983258700739,1544.99498792704
-0.199747464614272,1545.00498792704
-0.20278517132321,1545.01498792704
-0.205397263825347,1545.02498792704
-0.20684951108124,1545.03498792704
-0.207521367405337,1545.04498792704
-0.207031873122187,1545.05498792704
-0.205319715805304,1545.06498792704
-0.20251528654598,1545.07498792704
-0.199846694485989,1545.08498792704
-0.196857238290748,1545.09498792704
-0.193356193907082,1545.10498792704
-0.191037072448483,1545.11498792704
-0.189073886998794,1545.12498792704
-0.187822062255758,1545.13498792704
-0.188443327756867,1545.14498792704
-0.190231960136728,1545.15498792704
-0.192988450146797,1545.16498792704
-0.196562839325587,1545.17498792704
-0.200854098096121,1545.18498792704
-0.205289234018458,1545.19498792704
-0.210277975451473,1545.20498792704
-0.214607954851107,1545.21498792704
-0.219280869999927,1545.22498792704
-0.223834377125222,1545.23498792704
-0.228083537695015,1545.24498792704
-0.232402464223608,1545.25498792704
-0.236774042362072,1545.26498792704
-0.240973087274521,1545.27498792704
-0.245338220203267,1545.28498792704
-0.249762589840595,1545.29498792704
-0.253880317291374,1545.30498792704
-0.258294866232,1545.31498792704
-0.262624233890577,1545.32498792704
-0.267749545127571,1545.33498792704
-0.272996925601491,1545.34498792704
-0.278179767809437,1545.35498792704
-0.283652635240241,1545.36498792704
-0.288824187703455,1545.37498792704
-0.294519591782382,1545.38498792704
-0.299743715801101,1545.39498792704
-0.304375322003747,1545.40498792704
-0.309058647183787,1545.41498792704
-0.312969852874433,1545.42498792704
-0.316777639110279,1545.43498792704
-0.320617416708268,1545.44498792704
-0.325117356324265,1545.45498792704
-0.329696803183343,1545.46498792704
-0.334665800254809,1545.47498792704
-0.33920085142017,1545.48498792704
-0.343263183736752,1545.49498792704
-0.346653773328153,1545.50498792704
-0.34851528719989,1545.51498792704
-0.350838941084184,1545.52498792704
-0.353327045095652,1545.53498792704
-0.356710470127219,1545.54498792704
-0.361147939616528,1545.55498792704
-0.365859365927602,1545.56498792704
-0.370934062705191,1545.57498792704
-0.376075088538037,1545.58498792704
-0.380985092969496,1545.59498792704
-0.386213578975019,1545.60498792704
-0.39037903430158,1545.61498792704
-0.392831555879344,1545.62498792704
-0.391715061717782,1545.63498792704
-0.38640153164425,1545.64498792704
-0.375940602173606,1545.65498792704
-0.360803271375934,1545.66498792704
-0.341665721146811,1545.67498792704
-0.320125840958552,1545.68498792704
-0.298072424932139,1545.69498792704
-0.276924677293137,1545.70498792704
-0.258822356787492,1545.71498792704
-0.24389406183887,1545.72498792704
-0.232894228229602,1545.73498792704
-0.225696886691588,1545.74498792704
-0.221981186336792,1545.75498792704
-0.220915878562661,1545.76498792704
-0.221987245517138,1545.77498792704
-0.225038971906403,1545.78498792704
-0.228646640193172,1545.79498792704
-0.232910019052163,1545.80498792704
-0.237074254174195,1545.81498792704
-0.240671300123046,1545.82498792704
-0.243736382239511,1545.83498792704
-0.246658794318324,1545.84498792704
-0.248454489010329,1545.85498792704
-0.249327988506482,1545.86498792704
-0.250269309465287,1545.87498792704
-0.251412361459439,1545.88498792704
-0.253693503668592,1545.89498792704
-0.256857205859648,1545.90498792704
-0.260726039689718,1545.91498792704
-0.265071109382574,1545.92498792704
-0.269428200286006,1545.93498792704
-0.273099914126691,1545.94498792704
-0.276733447568648,1545.95498792704
-0.279427988602786,1545.96498792704
-0.280927059669951,1545.97498792704
-0.281600309287701,1545.98498792704
-0.280858173683536,1545.99498792704
-0.279042948200589,1546.00498792704
-0.276455067783085,1546.01498792704
-0.273368273713077,1546.02498792704
-0.269557719775414,1546.03498792704
-0.265722114928964,1546.04498792704
-0.262369977159907,1546.05498792704
-0.259970019752875,1546.06498792704
-0.258645108357031,1546.07498792704
-0.258256568227193,1546.08498792704
-0.259223029907714,1546.09498792704
-0.260867051697061,1546.10498792704
-0.263073677596651,1546.11498792704
-0.265549982705602,1546.12498792704
-0.268413581079187,1546.13498792704
-0.271370905335897,1546.14498792704
-0.274603479585143,1546.15498792704
-0.278122151222112,1546.16498792704
-0.28168805103602,1546.17498792704
-0.2853188387667,1546.18498792704
-0.28885720196715,1546.19498792704
-0.292736416175403,1546.20498792704
-0.296668527718487,1546.21498792704
-0.299961388595598,1546.22498792704
-0.30298085169139,1546.23498792704
-0.305869000521983,1546.24498792704
-0.307815519625584,1546.25498792704
-0.310154842195192,1546.26498792704
-0.312859074788087,1546.27498792704
-0.315204266461185,1546.28498792704
-0.318165578041148,1546.29498792704
-0.321420668456275,1546.30498792704
-0.325470181164658,1546.31498792704
-0.329626339919031,1546.32498792704
-0.333641482643582,1546.33498792704
-0.337358202670026,1546.34498792704
-0.340907947183047,1546.35498792704
-0.344687771165827,1546.36498792704
-0.348696191988123,1546.37498792704
-0.353176814096426,1546.38498792704
-0.357284321894957,1546.39498792704
-0.361192561366872,1546.40498792704
-0.363997742815395,1546.41498792704
-0.366611347578722,1546.42498792704
-0.368893817671344,1546.43498792704
-0.371765710404754,1546.44498792704
-0.374870459945249,1546.45498792704
-0.378188141540535,1546.46498792704
-0.381509221996827,1546.47498792704
-0.384976971755254,1546.48498792704
-0.388498220079825,1546.49498792704
-0.391507901710057,1546.50498792704
-0.394646601942003,1546.51498792704
-0.397889944622281,1546.52498792704
-0.401541426612007,1546.53498792704
-0.405883484194583,1546.54498792704
-0.409993349313997,1546.55498792704
-0.41392422736757,1546.56498792704
-0.418093577166852,1546.57498792704
-0.422032386524494,1546.58498792704
-0.42535471574507,1546.59498792704
-0.427386651669295,1546.60498792704
-0.426362204437088,1546.61498792704
-0.420854823538145,1546.62498792704
-0.409398729858043,1546.63498792704
-0.392360889334391,1546.64498792704
-0.37059059875688,1546.65498792704
-0.346156527513444,1546.66498792704
-0.321107084677956,1546.67498792704
-0.297278367792269,1546.68498792704
-0.276616843263094,1546.69498792704
-0.259235864118094,1546.70498792704
-0.246083157601541,1546.71498792704
-0.236132155692496,1546.72498792704
-0.229405130070978,1546.73498792704
-0.22530925801177,1546.74498792704
-0.223776752988932,1546.75498792704
-0.223994222474386,1546.76498792704
-0.224953486722344,1546.77498792704
-0.226868938371727,1546.78498792704
-0.22834259486668,1546.79498792704
-0.229188585573341,1546.80498792704
-0.229718332506986,1546.81498792704
-0.229337504792906,1546.82498792704
-0.229154327379717,1546.83498792704
-0.228827214524965,1546.84498792704
-0.228246945967798,1546.85498792704
-0.227569441166384,1546.86498792704
-0.227469962263353,1546.87498792704
-0.227606203114374,1546.88498792704
-0.228911102282161,1546.89498792704
-0.23115555080816,1546.90498792704
-0.23400193259409,1546.91498792704
-0.23639602997423,1546.92498792704
-0.23837730673039,1546.93498792704
-0.239685021556689,1546.94498792704
-0.240087350770547,1546.95498792704
-0.239535701028419,1546.96498792704
-0.238260847707917,1546.97498792704
-0.235293074717987,1546.98498792704
-0.231605059890455,1546.99498792704
-0.227344253416472,1547.00498792704
-0.222393570138027,1547.01498792704
-0.217404570691587,1547.02498792704
-0.212690919222202,1547.03498792704
-0.208780887284106,1547.04498792704
-0.204989796561706,1547.05498792704
-0.202223756006784,1547.06498792704
-0.199776909799378,1547.07498792704
-0.198292617838447,1547.08498792704
-0.197529362732849,1547.09498792704
-0.197648949284808,1547.10498792704
-0.198617387877722,1547.11498792704
-0.199974549001754,1547.12498792704
-0.201905977445126,1547.13498792704
-0.203694313632337,1547.14498792704
-0.206170173000491,1547.15498792704
-0.208218051549632,1547.16498792704
-0.210292354943528,1547.17498792704
-0.212410273142208,1547.18498792704
-0.213545966546247,1547.19498792704
-0.214592382407175,1547.20498792704
-0.215363668767404,1547.21498792704
-0.216299451402333,1547.22498792704
-0.217337575213261,1547.23498792704
-0.218849207985885,1547.24498792704
-0.220568251095826,1547.25498792704
-0.222799028355253,1547.26498792704
-0.225401019041227,1547.27498792704
-0.228239632018917,1547.28498792704
-0.23181997019776,1547.29498792704
-0.235477017520677,1547.30498792704
-0.23869948115866,1547.31498792704
-0.241423990395022,1547.32498792704
-0.243767457806401,1547.33498792704
-0.245971838065506,1547.34498792704
-0.248388490973075,1547.35498792704
-0.251015129461627,1547.36498792704
-0.253943502047808,1547.37498792704
-0.256869544073672,1547.38498792704
-0.259760648600304,1547.39498792704
-0.263230330146934,1547.40498792704
-0.266267076064358,1547.41498792704
-0.26950362835385,1547.42498792704
-0.272534419959787,1547.43498792704
-0.275445310454202,1547.44498792704
-0.279180855584577,1547.45498792704
-0.282474765477717,1547.46498792704
-0.285607163164308,1547.47498792704
-0.288498506700708,1547.48498792704
-0.29135485929578,1547.49498792704
-0.293530063987855,1547.50498792704
-0.295869707207034,1547.51498792704
-0.298526771346831,1547.52498792704
-0.301841018983141,1547.53498792704
-0.306129511607924,1547.54498792704
-0.310606598613594,1547.55498792704
-0.314804061010166,1547.56498792704
-0.318393331511007,1547.57498792704
-0.321501739952917,1547.58498792704
-0.324487002339128,1547.59498792704
-0.326442275999901,1547.60498792704
-0.327660180844563,1547.61498792704
-0.326446017021583,1547.62498792704
-0.321647708304475,1547.63498792704
-0.311551694773907,1547.64498792704
-0.295844830006671,1547.65498792704
-0.275106575671137,1547.66498792704
-0.250481520246752,1547.67498792704
-0.224202972808446,1547.68498792704
-0.197542492820662,1547.69498792704
-0.172264848960844,1547.70498792704
-0.149813748570047,1547.71498792704
-0.130386174390978,1547.72498792704
-0.114877418530621,1547.73498792704
-0.103045099135513,1547.74498792704
-0.0944186221575845,1547.75498792704
-0.089057180423255,1547.76498792704
-0.0858554263849001,1547.77498792704
-0.0843044254428841,1547.78498792704
-0.0845471904643062,1547.79498792704
-0.0852992092139961,1547.80498792704
-0.0864507351285703,1547.81498792704
-0.0878332131256615,1547.82498792704
-0.0888331092913937,1547.83498792704
-0.0892230300299009,1547.84498792704
-0.0896203128338565,1547.85498792704
-0.0896816727989358,1547.86498792704
-0.0897558751436631,1547.87498792704
-0.0902841912942752,1547.88498792704
-0.0913916140630159,1547.89498792704
-0.0937640018858852,1547.90498792704
-0.0968418448560517,1547.91498792704
-0.100232158223085,1547.92498792704
-0.103910605125519,1547.93498792704
-0.106940132694084,1547.94498792704
-0.109038799123449,1547.95498792704
-0.109335644997015,1547.96498792704
-0.107757358663288,1547.97498792704
-0.104330170262249,1547.98498792704
-0.0990786902865924,1547.99498792704
-0.09244693964215,1548.00498792704
-0.0848081293677921,1548.01498792704
-0.0766944520286974,1548.02498792704
-0.0690371870454468,1548.03498792704
-0.0623125482653059,1548.04498792704
-0.0569539859932604,1548.05498792704
-0.0522251615962735,1548.06498792704
-0.0484914671547454,1548.07498792704
-0.0457836902178135,1548.08498792704
-0.0436716165078588,1548.09498792704
-0.0429096416666118,1548.10498792704
-0.0428822037899835,1548.11498792704
-0.0431022887229191,1548.12498792704
-0.0434411611393462,1548.13498792704
-0.0438258880699887,1548.14498792704
-0.0445931211927073,1548.15498792704
-0.0459886530753014,1548.16498792704
-0.0479257987380969,1548.17498792704
-0.0496838403987259,1548.18498792704
-0.0508027906455375,1548.19498792704
-0.0519079599865488,1548.20498792704
-0.0534236836067867,1548.21498792704
-0.0547152012964971,1548.22498792704
-0.0561499160228178,1548.23498792704
-0.0572108912588639,1548.24498792704
-0.0588512484298771,1548.25498792704
-0.0613482125161972,1548.26498792704
-0.0638896994930124,1548.27498792704
-0.0667122388406942,1548.28498792704
-0.0693861059474835,1548.29498792704
-0.0722518302050864,1548.30498792704
-0.0752683270242624,1548.31498792704
-0.0786079126349675,1548.32498792704
-0.0823197166285158,1548.33498792704
-0.0857718191451233,1548.34498792704
-0.0894143478240849,1548.35498792704
-0.0927941240148021,1548.36498792704
-0.0960785904475365,1548.37498792704
-0.0993984300141046,1548.38498792704
-0.102322137908053,1548.39498792704
-0.105205360780999,1548.40498792704
-0.108301324575266,1548.41498792704
-0.11064236994559,1548.42498792704
-0.113519794656806,1548.43498792704
-0.116446262199989,1548.44498792704
-0.119069519168697,1548.45498792704
-0.12225185240716,1548.46498792704
-0.125594022425479,1548.47498792704
-0.129048843172789,1548.48498792704
-0.132951643149928,1548.49498792704
-0.137380976333509,1548.50498792704
-0.141888705504357,1548.51498792704
-0.146797108658765,1548.52498792704
-0.151357071876184,1548.53498792704
-0.155999707201898,1548.54498792704
-0.159312997168787,1548.55498792704
-0.160774088535262,1548.56498792704
-0.159376495306074,1548.57498792704
-0.153230083478615,1548.58498792704
-0.140674246652505,1548.59498792704
-0.121183634280946,1548.60498792704
-0.095126464181225,1548.61498792704
-0.0642531599760252,1548.62498792704
-0.0303853043540674,1548.63498792704
0.00397710396444283,1548.64498792704
0.0379432867629986,1548.65498792704
0.0689267299655691,1548.66498792704
0.0953249293732163,1548.67498792704
0.117941304601105,1548.68498792704
0.135848837800144,1548.69498792704
0.149773568162165,1548.70498792704
0.16099952184722,1548.71498792704
0.168988123104027,1548.72498792704
0.175160934853487,1548.73498792704
0.179063843138748,1548.74498792704
0.181476586857203,1548.75498792704
0.182894082873602,1548.76498792704
0.183439690893808,1548.77498792704
0.183513909697549,1548.78498792704
0.183502741620322,1548.79498792704
0.183967278207775,1548.80498792704
0.184779949053191,1548.81498792704
0.186373851429594,1548.82498792704
0.187195846702862,1548.83498792704
0.187250577305479,1548.84498792704
0.186047699738298,1548.85498792704
0.183620939326057,1548.86498792704
0.180222739382319,1548.87498792704
0.176661629360973,1548.88498792704
0.173536658185824,1548.89498792704
0.172180643277226,1548.90498792704
0.172332122466465,1548.91498792704
0.174461596896455,1548.92498792704
0.178063189922496,1548.93498792704
0.183087908504739,1548.94498792704
0.189652754666825,1548.95498792704
0.197447929302871,1548.96498792704
0.205882716411574,1548.97498792704
0.214240771461769,1548.98498792704
0.222227437734016,1548.99498792704
0.229567577547551,1549.00498792704
0.235422474951654,1549.01498792704
0.24029587536003,1549.02498792704
0.243535933502618,1549.03498792704
0.245721630113959,1549.04498792704
0.246554624222315,1549.05498792704
0.246203932470416,1549.06498792704
0.24551344810894,1549.07498792704
0.244039865519465,1549.08498792704
0.242724239904699,1549.09498792704
0.240608539584061,1549.10498792704
0.238393677980359,1549.11498792704
0.236028797519583,1549.12498792704
0.233109180668131,1549.13498792704
0.230171626840978,1549.14498792704
0.227568080839035,1549.15498792704
0.225271018145694,1549.16498792704
0.222730933071995,1549.17498792704
0.220382348375898,1549.18498792704
0.217420698408734,1549.19498792704
0.21436293638804,1549.20498792704
0.210659542785165,1549.21498792704
0.206526960936185,1549.22498792704
0.202591944922297,1549.23498792704
0.198783563633212,1549.24498792704
0.194205898773236,1549.25498792704
0.19006249747996,1549.26498792704
0.184993814201146,1549.27498792704
0.179894810761526,1549.28498792704
0.174429894040258,1549.29498792704
0.168827698321618,1549.30498792704
0.162831055408105,1549.31498792704
0.156896648750308,1549.32498792704
0.150711303231755,1549.33498792704
0.144687887159174,1549.34498792704
0.139504220654281,1549.35498792704
0.134231591186987,1549.36498792704
0.129419814926664,1549.37498792704
0.124934361836748,1549.38498792704
0.120843476737588,1549.39498792704
0.116734224134596,1549.40498792704
0.112301657997279,1549.41498792704
0.107305630077204,1549.42498792704
0.101485970219476,1549.43498792704
0.0956334826626893,1549.44498792704
0.0898105558399606,1549.45498792704
0.0845806673344936,1549.46498792704
0.0794145991978256,1549.47498792704
0.0742088293985663,1549.48498792704
0.0683386582824979,1549.49498792704
0.0627754237029137,1549.50498792704
0.0570729071319481,1549.51498792704
0.0516118137427939,1549.52498792704
0.0465998607726347,1549.53498792704
0.0425745390291068,1549.54498792704
0.0411027373283411,1549.55498792704
0.0441427219227782,1549.56498792704
0.0537362969947559,1549.57498792704
0.070695518444577,1549.58498792704
0.0946742979625761,1549.59498792704
0.125906572018254,1549.60498792704
0.162771264308019,1549.61498792704
0.203002016115565,1549.62498792704
0.24478127565699,1549.63498792704
0.285500661138127,1549.64498792704
0.323830196516754,1549.65498792704
0.358450685896231,1549.66498792704
0.387814166726081,1549.67498792704
0.411036440896402,1549.68498792704
0.429421250336087,1549.69498792704
0.442495706478573,1549.70498792704
0.451253787992723,1549.71498792704
0.456813108279284,1549.72498792704
0.460084209078856,1549.73498792704
0.4615841078509,1549.74498792704
0.461923769972797,1549.75498792704
0.462014626516978,1549.76498792704
0.461713772062787,1549.77498792704
0.461536561030002,1549.78498792704
0.461454310094221,1549.79498792704
0.461373872477111,1549.80498792704
0.460895293270886,1549.81498792704
0.459676145961474,1549.82498792704
0.457953976163152,1549.83498792704
0.454757428247987,1549.84498792704
0.450273648242835,1549.85498792704
0.445278409806302,1549.86498792704
0.439494831812851,1549.87498792704
0.434030667634276,1549.88498792704
0.42899910524063,1549.89498792704
0.425444057246275,1549.90498792704
0.424031469938806,1549.91498792704
0.42422834069932,1549.92498792704
0.4266662657591,1549.93498792704
0.430156883191942,1549.94498792704
0.435369721185103,1549.95498792704
0.441713243005014,1549.96498792704
0.4479368768972,1549.97498792704
0.454377077756549,1549.98498792704
0.460146396812096,1549.99498792704
0.464714786901494,1550.00498792704
0.468041219804496,1550.01498792704
0.469664042836972,1550.02498792704
0.469950981943844,1550.03498792704
0.468932584137527,1550.04498792704
0.466928357600144,1550.05498792704
0.46421976092574,1550.06498792704
0.460821137839419,1550.07498792704
0.456493413337025,1550.08498792704
0.452127081045469,1550.09498792704
0.446698679810593,1550.10498792704
0.441239502011522,1550.11498792704
0.435686945474992,1550.12498792704
0.430244100780464,1550.13498792704
0.424382929097735,1550.14498792704
0.41818086088716,1550.15498792704
0.411841284401362,1550.16498792704
0.40575105075115,1550.17498792704
0.400163131061787,1550.18498792704
0.394769505872819,1550.19498792704
0.389019463735189,1550.20498792704
0.383151802982307,1550.21498792704
0.376879532770426,1550.22498792704
0.370065833481805,1550.23498792704
0.362831060129458,1550.24498792704
0.355410194147264,1550.25498792704
0.347678562580495,1550.26498792704
0.339592466275382,1550.27498792704
0.331265987456255,1550.28498792704
0.322933605950643,1550.29498792704
0.314496381295234,1550.30498792704
0.305612886168889,1550.31498792704
0.296705586459112,1550.32498792704
0.287852626355586,1550.33498792704
0.278736430929315,1550.34498792704
0.269451779889021,1550.35498792704
0.261164982091644,1550.36498792704
0.252793654131387,1550.37498792704
0.244319147648095,1550.38498792704
0.235677857291717,1550.39498792704
0.227033599221853,1550.40498792704
0.218532587739041,1550.41498792704
0.210196910739994,1550.42498792704
0.202240765165542,1550.43498792704
0.19396238403309,1550.44498792704
0.186074138379078,1550.45498792704
0.178596457515585,1550.46498792704
0.170898407095528,1550.47498792704
0.163105258241794,1550.48498792704
0.154725262216957,1550.49498792704
0.146385704572897,1550.50498792704
0.137813060941613,1550.51498792704
0.129598069927391,1550.52498792704
0.122016625665839,1550.53498792704
0.114801943759559,1550.54498792704
0.108201421669017,1550.55498792704
0.101861574657531,1550.56498792704
0.0969452975128375,1550.57498792704
0.095688441734121,1550.58498792704
0.0997371573415876,1550.59498792704
0.1105734091011,1550.60498792704
0.129901294732417,1550.61498792704
0.156236356008978,1550.62498792704
0.188503468590308,1550.63498792704
0.223537407902387,1550.64498792704
0.259069863557308,1550.65498792704
0.292415037205684,1550.66498792704
0.321772629506476,1550.67498792704
0.345898274836622,1550.68498792704
0.364036895228673,1550.69498792704
0.376656928691947,1550.70498792704
0.384767425892821,1550.71498792704
0.389205419239204,1550.72498792704
0.390421211283329,1550.73498792704
0.389308496017337,1550.74498792704
0.386401842999692,1550.75498792704
0.381804974799896,1550.76498792704
0.377150334749502,1550.77498792704
0.37171571805565,1550.78498792704
0.366527800340889,1550.79498792704
0.362035169164563,1550.80498792704
0.357998312653012,1550.81498792704
0.35403746179872,1550.82498792704
0.349772931465609,1550.83498792704
0.344984590361185,1550.84498792704
0.339529199145496,1550.85498792704
0.33328597638144,1550.86498792704
0.32639756319062,1550.87498792704
0.318982887621162,1550.88498792704
0.311429799962923,1550.89498792704
0.304024283622721,1550.90498792704
0.297005578750472,1550.91498792704
0.290973199599207,1550.92498792704
0.286204098674209,1550.93498792704
0.283505709883621,1550.94498792704
0.282353613200707,1550.95498792704
0.283393722584545,1550.96498792704
0.285607052905618,1550.97498792704
0.289030465976509,1550.98498792704
0.292845992519933,1550.99498792704
0.296292969696258,1551.00498792704
0.298870604691473,1551.01498792704
0.300458298472081,1551.02498792704
0.300395903633453,1551.03498792704
0.298582566264443,1551.04498792704
0.295656303662563,1551.05498792704
0.291592829685236,1551.06498792704
0.287075892657041,1551.07498792704
0.282390049045279,1551.08498792704
0.277151227679144,1551.09498792704
0.271157128139158,1551.10498792704
0.264874416814994,1551.11498792704
0.258143331305004,1551.12498792704
0.251130682268316,1551.13498792704
0.244364346272102,1551.14498792704
0.237134024234117,1551.15498792704
0.23036630194646,1551.16498792704
0.224124293503295,1551.17498792704
0.217549983527583,1551.18498792704
0.211875631225853,1551.19498792704
0.205656539298755,1551.20498792704
0.198900983724404,1551.21498792704
0.191965322374735,1551.22498792704
0.184428751627799,1551.23498792704
0.176681905858973,1551.24498792704
0.168469433165685,1551.25498792704
0.159476264307,1551.26498792704
0.150737516627274,1551.27498792704
0.14206832850863,1551.28498792704
0.133612404572733,1551.29498792704
0.125896740394829,1551.30498792704
0.11823866698057,1551.31498792704
0.110887928578778,1551.32498792704
0.103253474851775,1551.33498792704
0.0954570322902952,1551.34498792704
0.0875222151704253,1551.35498792704
0.0795617470195656,1551.36498792704
0.0720427719812136,1551.37498792704
0.0645252598686202,1551.38498792704
0.0570852737286698,1551.39498792704
0.050046177842146,1551.40498792704
0.042581460395644,1551.41498792704
0.03485260281888,1551.42498792704
0.0271621776501547,1551.43498792704
0.0194370208043611,1551.44498792704
0.0119063868994175,1551.45498792704
0.00495347549145334,1551.46498792704
-0.00196385289451204,1551.47498792704
-0.00839440577792269,1551.48498792704
-0.0155089981997743,1551.49498792704
-0.0221212687459852,1551.50498792704
-0.0287852362409039,1551.51498792704
-0.0357367477200434,1551.52498792704
-0.0420721944198368,1551.53498792704
-0.0487007728934735,1551.54498792704
-0.05595209040084,1551.55498792704
-0.0630829371698032,1551.56498792704
-0.0704019990948485,1551.57498792704
-0.0767536383084354,1551.58498792704
-0.0816876181354759,1551.59498792704
-0.0828782759550916,1551.60498792704
-0.078374967381909,1551.61498792704
-0.0677211195141254,1551.62498792704
-0.0499540941428189,1551.63498792704
-0.0262416940803684,1551.64498792704
0.00162963534719161,1551.65498792704
0.0313850786562177,1551.66498792704
0.0602745770383227,1551.67498792704
0.0859000051677862,1551.68498792704
0.106666050478773,1551.69498792704
0.121918143786507,1551.70498792704
0.131567921429596,1551.71498792704
0.136594017834441,1551.72498792704
0.138011896703452,1551.73498792704
0.136459364125791,1551.74498792704
0.132815571992616,1551.75498792704
0.128041075923605,1551.76498792704
0.122625393112311,1551.77498792704
0.117355816844244,1551.78498792704
0.112016976918801,1551.79498792704
0.107129207121102,1551.80498792704
0.101892009617205,1551.81498792704
0.0968324080351073,1551.82498792704
0.0922110574605784,1551.83498792704
0.0876446369955194,1551.84498792704
0.0836024802485263,1551.85498792704
0.0797680887800571,1551.86498792704
0.0756504280333402,1551.87498792704
0.0707341091709579,1551.88498792704
0.0652885874223092,1551.89498792704
0.0590866637454001,1551.90498792704
0.052806723475285,1551.91498792704
0.0467577197572478,1551.92498792704
0.0416802771634389,1551.93498792704
0.0377394685892184,1551.94498792704
0.0357681547846456,1551.95498792704
0.0353592618720786,1551.96498792704
0.0361798588915539,1551.97498792704
0.0385201558584796,1551.98498792704
0.0413492759277104,1551.99498792704
0.045106125797158,1552.00498792704
0.0492798268299439,1552.01498792704
0.0522940344526986,1552.02498792704
0.0541873535682498,1552.03498792704
0.0544147458569392,1552.04498792704
0.0536682324858353,1552.05498792704
0.0524961014387302,1552.06498792704
0.0514127884644333,1552.07498792704
0.0494997376519525,1552.08498792704
0.0469379591586756,1552.09498792704
0.0432767485003754,1552.10498792704
0.0383140692066202,1552.11498792704
0.0328500792290944,1552.12498792704
0.0276139628420473,1552.13498792704
0.022202826210869,1552.14498792704
0.0173427153359431,1552.15498792704
0.0128512264255253,1552.16498792704
0.00825411372566877,1552.17498792704
0.0041677301070475,1552.18498792704
0.000240405041963645,1552.19498792704
-0.00457937438217358,1552.20498792704
-0.00936112542885969,1552.21498792704
-0.0142596312482695,1552.22498792704
-0.0191887406555717,1552.23498792704
-0.0235832292019295,1552.24498792704
-0.0284989368946417,1552.25498792704
-0.0333939966555595,1552.26498792704
-0.0384214790704156,1552.27498792704
-0.0445744406374722,1552.28498792704
-0.050874990508238,1552.29498792704
-0.0574720643917769,1552.30498792704
-0.0645826040191317,1552.31498792704
-0.0712667307096315,1552.32498792704
-0.0775087103145854,1552.33498792704
-0.0830003087420506,1552.34498792704
-0.087607049873651,1552.35498792704
-0.0918588190249814,1552.36498792704
-0.0958929534260371,1552.37498792704
-0.0999539760089365,1552.38498792704
-0.104346040816048,1552.39498792704
-0.108724472887475,1552.40498792704
-0.113742245643674,1552.41498792704
-0.119491602270898,1552.42498792704
-0.125648341677007,1552.43498792704
-0.13206630762438,1552.44498792704
-0.138408032295574,1552.45498792704
-0.143922945305354,1552.46498792704
-0.148756360497649,1552.47498792704
-0.153060829521259,1552.48498792704
-0.157064035913316,1552.49498792704
-0.161465238174442,1552.50498792704
-0.165460670010028,1552.51498792704
-0.169709972283638,1552.52498792704
-0.174099059662832,1552.53498792704
-0.178605631551047,1552.54498792704
-0.183237579177597,1552.55498792704
-0.187739139405372,1552.56498792704
-0.192062166809573,1552.57498792704
-0.196492378601121,1552.58498792704
-0.200474827437888,1552.59498792704
-0.204561778828431,1552.60498792704
-0.208568825668225,1552.61498792704
-0.212817089615738,1552.62498792704
-0.217519727829504,1552.63498792704
-0.221961568004399,1552.64498792704
-0.224862193207424,1552.65498792704
-0.225367409339596,1552.66498792704
-0.220821443699723,1552.67498792704
-0.209951034776562,1552.68498792704
-0.192259140131643,1552.69498792704
-0.168430598023619,1552.70498792704
-0.140708517608218,1552.71498792704
-0.11107407789127,1552.72498792704
-0.082647214976775,1552.73498792704
-0.0573882479216418,1552.74498792704
-0.0373997421595843,1552.75498792704
-0.0222942991058973,1552.76498792704
-0.0121295778229919,1552.77498792704
-0.00636846563634761,1552.78498792704
-0.00412703874798443,1552.79498792704
-0.00515053794987273,1552.80498792704
-0.0084443837306937,1552.81498792704
-0.0132029747851843,1552.82498792704
-0.0191702863149757,1552.83498792704
-0.0251872924908154,1552.84498792704
-0.0307923781493535,1552.85498792704
-0.0361446923293717,1552.86498792704
-0.0405397579057485,1552.87498792704
-0.0440544577713384,1552.88498792704
-0.0472970088081865,1552.89498792704
-0.050601378944906,1552.90498792704
-0.0537234278994332,1552.91498792704
-0.0572245569918779,1552.92498792704
-0.0614838493829026,1552.93498792704
-0.0659391879414567,1552.94498792704
-0.0702663318632907,1552.95498792704
-0.0747564120659221,1552.96498792704
-0.0787271802303988,1552.97498792704
-0.0826312904133907,1552.98498792704
-0.0857448090171863,1552.99498792704
-0.0869810528291487,1553.00498792704
-0.0872504459645517,1553.01498792704
-0.0855334302558667,1553.02498792704
-0.0825120495618438,1553.03498792704
-0.0772979278343724,1553.04498792704
-0.0713593579821995,1553.05498792704
-0.0653865514088787,1553.06498792704
-0.0600177020108708,1553.07498792704
-0.0549458141401181,1553.08498792704
-0.0508507911660874,1553.09498792704
-0.0476171504586634,1553.10498792704
-0.0455563991545742,1553.11498792704
-0.0454191166005457,1553.12498792704
-0.0462555609709971,1553.13498792704
-0.0478498776663285,1553.14498792704
-0.0502949830404117,1553.15498792704
-0.0529630337284128,1553.16498792704
-0.055570539361465,1553.17498792704
-0.0587923154737337,1553.18498792704
-0.0620798111410185,1553.19498792704
-0.0659939458301366,1553.20498792704
-0.0697383543859363,1553.21498792704
-0.0732905145732328,1553.22498792704
-0.07626147182655,1553.23498792704
-0.0792611125354278,1553.24498792704
-0.0823496827526384,1553.25498792704
-0.085054443501851,1553.26498792704
-0.0875603582605451,1553.27498792704
-0.0904512388874331,1553.28498792704
-0.0932981188521613,1553.29498792704
-0.0965374438554634,1553.30498792704
-0.100235953243118,1553.31498792704
-0.104309731788578,1553.32498792704
-0.108436690557341,1553.33498792704
-0.112708232900584,1553.34498792704
-0.116811093507673,1553.35498792704
-0.120576117015345,1553.36498792704
-0.124364191486296,1553.37498792704
-0.128114532402911,1553.38498792704
-0.132373485986988,1553.39498792704
-0.136938660919426,1553.40498792704
-0.140903990907183,1553.41498792704
-0.144774389478249,1553.42498792704
-0.148476157629558,1553.43498792704
-0.152168244192898,1553.44498792704
-0.156218857365722,1553.45498792704
-0.159885980243952,1553.46498792704
-0.163681231630634,1553.47498792704
-0.167080937343719,1553.48498792704
-0.17055242537915,1553.49498792704
-0.173727725026937,1553.50498792704
-0.177200346408183,1553.51498792704
-0.181088981900723,1553.52498792704
-0.184638689382492,1553.53498792704
-0.187826880232804,1553.54498792704
-0.191505621504491,1553.55498792704
-0.194654286313005,1553.56498792704
-0.198607116648352,1553.57498792704
-0.202660233544946,1553.58498792704
-0.207025634221178,1553.59498792704
-0.210994877542603,1553.60498792704
-0.215327672728263,1553.61498792704
-0.21958624148087,1553.62498792704
-0.223486485603989,1553.63498792704
-0.226485609007817,1553.64498792704
-0.226986131651368,1553.65498792704
-0.224176167648345,1553.66498792704
-0.21611895195195,1553.67498792704
-0.20150667238224,1553.68498792704
-0.180379506427084,1553.69498792704
-0.153906047367066,1553.70498792704
-0.124104201630598,1553.71498792704
-0.0933245539576141,1553.72498792704
-0.0637388697080811,1553.73498792704
-0.0380454622589625,1553.74498792704
-0.0165653271770532,1553.75498792704
-0.000738178090811475,1553.76498792704
0.0103845363768118,1553.77498792704
0.0177915587258217,1553.78498792704
0.0210897846346492,1553.79498792704
0.0217993102369517,1553.80498792704
0.0208127231416731,1553.81498792704
0.0179689055267686,1553.82498792704
0.0149366426752061,1553.83498792704
0.011287715487783,1553.84498792704
0.00793174906389343,1553.85498792704
0.0045558726603899,1553.86498792704
0.00148062467680837,1553.87498792704
-0.00135945567912482,1553.88498792704
-0.00397851747919355,1553.89498792704
-0.00619140408364221,1553.90498792704
-0.00784809028407562,1553.91498792704
-0.00971560595182318,1553.92498792704
-0.0118881084601795,1553.93498792704
-0.0148096287690159,1553.94498792704
-0.0181311994883221,1553.95498792704
-0.0220519492081896,1553.96498792704
-0.0257169325010496,1553.97498792704
-0.0291081871082685,1553.98498792704
-0.0311533068573457,1553.99498792704
-0.0317569349554887,1554.00498792704
-0.0302994739292731,1554.01498792704
-0.0265278419947873,1554.02498792704
-0.0207362260574917,1554.03498792704
-0.0135446325880937,1554.04498792704
-0.00575920707085042,1554.05498792704
0.00205419819310847,1554.06498792704
0.00977209476776573,1554.07498792704
0.0164109497613187,1554.08498792704
0.0220909277067421,1554.09498792704
0.0260879488211243,1554.10498792704
0.0282552803273787,1554.11498792704
0.0286007196513065,1554.12498792704
0.0275004686296862,1554.13498792704
0.0252233250077192,1554.14498792704
0.0226127609857846,1554.15498792704
0.0199606546961234,1554.16498792704
0.0172360593048919,1554.17498792704
0.0144938156148362,1554.18498792704
0.0118635620299439,1554.19498792704
0.00942370923272965,1554.20498792704
0.00707702656184001,1554.21498792704
0.00544697889660808,1554.22498792704
0.00324446545145507,1554.23498792704
0.00104694771322862,1554.24498792704
-0.00123597895879013,1554.25498792704
-0.00338258736059116,1554.26498792704
-0.00579585092444495,1554.27498792704
-0.00862360727337651,1554.28498792704
-0.011728963680653,1554.29498792704
-0.0150263284398222,1554.30498792704
-0.0187447334760132,1554.31498792704
-0.0226819489337055,1554.32498792704
-0.0270154950706781,1554.33498792704
-0.0312715267468039,1554.34498792704
-0.035259981654646,1554.35498792704
-0.0387936808026211,1554.36498792704
-0.0418909490312433,1554.37498792704
-0.0454406515635219,1554.38498792704
-0.0488814076635722,1554.39498792704
-0.0521356809349364,1554.40498792704
-0.0553332332082672,1554.41498792704
-0.0585152558746933,1554.42498792704
-0.0618301431082285,1554.43498792704
-0.0647041097803333,1554.44498792704
-0.0678410900919994,1554.45498792704
-0.0707338917486179,1554.46498792704
-0.0738402665675953,1554.47498792704
-0.0769886345548712,1554.48498792704
-0.080493806258701,1554.49498792704
-0.0842277141650608,1554.50498792704
-0.0877500773174714,1554.51498792704
-0.0909785817836851,1554.52498792704
-0.0943946652237394,1554.53498792704
-0.0980456759860595,1554.54498792704
-0.101466830322175,1554.55498792704
-0.105094147665011,1554.56498792704
-0.108583730798804,1554.57498792704
-0.111560896340732,1554.58498792704
-0.114847670182681,1554.59498792704
-0.118104481316167,1554.60498792704
-0.121864998102746,1554.61498792704
-0.125496196003451,1554.62498792704
-0.129436236207488,1554.63498792704
-0.133355609530144,1554.64498792704
-0.137629688584147,1554.65498792704
-0.141473702769526,1554.66498792704
-0.145307020731783,1554.67498792704
-0.147937016260291,1554.68498792704
-0.148297644908116,1554.69498792704
-0.144234483849541,1554.70498792704
-0.133705077790282,1554.71498792704
-0.115457140194092,1554.72498792704
-0.0898168598451199,1554.73498792704
-0.0581123260124146,1554.74498792704
-0.0227184556244984,1554.75498792704
0.0138116362381958,1554.76498792704
0.0486442234653822,1554.77498792704
0.0795324609616057,1554.78498792704
0.105247239771135,1554.79498792704
0.125144649376197,1554.80498792704
0.139686206284226,1554.81498792704
0.149445263570013,1554.82498792704
0.155464057870043,1554.83498792704
0.157925356635048,1554.84498792704
0.158324676101104,1554.85498792704
0.157629913185743,1554.86498792704
0.155811897424996,1554.87498792704
0.154376853582736,1554.88498792704
0.153220878323376,1554.89498792704
0.152371211966908,1554.90498792704
0.152203732905042,1554.91498792704
0.152263383057791,1554.92498792704
0.152778565738534,1554.93498792704
0.153532292197242,1554.94498792704
0.154059488868742,1554.95498792704
0.154431405982965,1554.96498792704
0.154386393706082,1554.97498792704
0.153285776002916,1554.98498792704
0.151367171682636,1554.99498792704
0.148754890439382,1555.00498792704
0.146019573268126,1555.01498792704
0.143355705247962,1555.02498792704
0.141515406978753,1555.03498792704
0.140976156360943,1555.04498792704
0.142294642823111,1555.05498792704
0.145089034314848,1555.06498792704
0.149349870355404,1555.07498792704
0.155223865499779,1555.08498792704
0.162445231787304,1555.09498792704
0.1707961210036,1555.10498792704
0.179521093679539,1555.11498792704
0.187837322077444,1555.12498792704
0.195141715004447,1555.13498792704
0.200793300298693,1555.14498792704
0.204947035749979,1555.15498792704
0.207350039481981,1555.16498792704
0.208210324315921,1555.17498792704
0.20905257161275,1555.18498792704
0.209501239493693,1555.19498792704
0.209831609835291,1555.20498792704
0.209083214434682,1555.21498792704
0.207799238565261,1555.22498792704
0.206519127754315,1555.23498792704
0.204334213954752,1555.24498792704
0.202350752980355,1555.25498792704
0.200520462872629,1555.26498792704
0.198784216582214,1555.27498792704
0.196632392792633,1555.28498792704
0.194458730208354,1555.29498792704
0.192045379140072,1555.30498792704
0.189301712984037,1555.31498792704
0.185613357592425,1555.32498792704
0.182279288361844,1555.33498792704
0.177790465276295,1555.34498792704
0.173515180585381,1555.35498792704
0.169064664975588,1555.36498792704
0.164703724568447,1555.37498792704
0.160416492427131,1555.38498792704
0.155828455587285,1555.39498792704
0.151605471413449,1555.40498792704
0.147231296126942,1555.41498792704
0.142976051076991,1555.42498792704
0.138230426358773,1555.43498792704
0.133166759172001,1555.44498792704
0.128296184824274,1555.45498792704
0.123667374086966,1555.46498792704
0.119402361235771,1555.47498792704
0.115168617949923,1555.48498792704
0.111513314231606,1555.49498792704
0.107751184491686,1555.50498792704
0.104027252144034,1555.51498792704
0.100216137238472,1555.52498792704
0.0962282452581957,1555.53498792704
0.0918944414846364,1555.54498792704
0.0874947033226115,1555.55498792704
0.0833788351062097,1555.56498792704
0.0796121579785303,1555.57498792704
0.0762438185279289,1555.58498792704
0.0725579285021433,1555.59498792704
0.0692882745418694,1555.60498792704
0.0659115592904599,1555.61498792704
0.0623182257220268,1555.62498792704
0.0582684755611845,1555.63498792704
0.0541553937638443,1555.64498792704
0.0502936834516372,1555.65498792704
0.0465075201482869,1555.66498792704
0.0428356457602144,1555.67498792704
0.038870944528203,1555.68498792704
0.0348191327649782,1555.69498792704
0.030469495833933,1555.70498792704
0.0261637339062526,1555.71498792704
0.0226075670705868,1555.72498792704
0.0193668291953111,1555.73498792704
0.0161260037937195,1555.74498792704
0.0121648492977865,1555.75498792704
0.00784005219406659,1555.76498792704
0.00272062759003674,1555.77498792704
-0.00187155048633307,1555.78498792704
-0.00499257358083936,1555.79498792704
-0.0045477241547444,1555.80498792704
0.0025093598563606,1555.81498792704
0.0172608235587953,1555.82498792704
0.0405047787146805,1555.83498792704
0.0715233522627702,1555.84498792704
0.107527355705036,1555.85498792704
0.146444162585137,1555.86498792704
0.185890732190748,1555.87498792704
0.222520749528909,1555.88498792704
0.255037547094288,1555.89498792704
0.282687261084046,1555.90498792704
0.305661161503485,1555.91498792704
0.323424083462685,1555.92498792704
0.337262561152645,1555.93498792704
0.346217393574751,1555.94498792704
0.351985635873569,1555.95498792704
0.354965316455384,1555.96498792704
0.356070665196027,1555.97498792704
0.356252143099062,1555.98498792704
0.355862100491306,1555.99498792704
0.355376959825855,1556.00498792704
0.355456541300881,1556.01498792704
0.356131009732342,1556.02498792704
0.357017937994859,1556.03498792704
0.358126169181519,1556.04498792704
0.358888748309382,1556.05498792704
0.359378209188361,1556.06498792704
0.359230458575028,1556.07498792704
0.358316233360519,1556.08498792704
0.356295025981882,1556.09498792704
0.353759977421855,1556.10498792704
0.350588503792502,1556.11498792704
0.3475325479827,1556.12498792704
0.345102225565765,1556.13498792704
0.343834692602445,1556.14498792704
0.344197180017574,1556.15498792704
0.345970977863714,1556.16498792704
0.349934390594977,1556.17498792704
0.354868806754863,1556.18498792704
0.360941928807453,1556.19498792704
0.368232782120425,1556.20498792704
0.375938749091551,1556.21498792704
0.384277530559214,1556.22498792704
0.392311472319145,1556.23498792704
0.399703558186779,1556.24498792704
0.405978487627079,1556.25498792704
0.411073051591528,1556.26498792704
0.414602454159805,1556.27498792704
0.416508464265138,1556.28498792704
0.417883008581784,1556.29498792704
0.41843183167727,1556.30498792704
0.418645832562558,1556.31498792704
0.417877259155857,1556.32498792704
0.416285181219222,1556.33498792704
0.413802568111444,1556.34498792704
0.410755424359696,1556.35498792704
0.407508897407384,1556.36498792704
0.403978377591598,1556.37498792704
0.400709985129957,1556.38498792704
0.396702448837064,1556.39498792704
0.392352624085832,1556.40498792704
0.387405036455722,1556.41498792704
0.383114522643098,1556.42498792704
0.378993716789135,1556.43498792704
0.374992888704119,1556.44498792704
0.370651557037137,1556.45498792704
0.366158123926548,1556.46498792704
0.361340661544147,1556.47498792704
0.356279911074599,1556.48498792704
0.351116951545924,1556.49498792704
0.34570967132993,1556.50498792704
0.340434538688074,1556.51498792704
0.335346280257319,1556.52498792704
0.329449393268784,1556.53498792704
0.323306017148942,1556.54498792704
0.317253196653657,1556.55498792704
0.310734548318029,1556.56498792704
0.304674666407182,1556.57498792704
0.298870496065602,1556.58498792704
0.292937788513972,1556.59498792704
0.287415091438543,1556.60498792704
0.282626817823835,1556.61498792704
0.277685536652813,1556.62498792704
0.272794763047689,1556.63498792704
0.267721698949323,1556.64498792704
0.261984433696333,1556.65498792704
0.255839407299255,1556.66498792704
0.249002462516124,1556.67498792704
0.242332289528908,1556.68498792704
0.235986139967227,1556.69498792704
0.229498506937284,1556.70498792704
0.223332054391864,1556.71498792704
0.217777948678449,1556.72498792704
0.212194128416016,1556.73498792704
0.206760110036403,1556.74498792704
0.201722314235397,1556.75498792704
0.196502876607523,1556.76498792704
0.191731698767067,1556.77498792704
0.187198847526731,1556.78498792704
0.182621723152861,1556.79498792704
0.177456041178475,1556.80498792704
0.172207168521253,1556.81498792704
0.166716504897503,1556.82498792704
0.16114237807108,1556.83498792704
0.155948822435586,1556.84498792704
0.150786182284658,1556.85498792704
0.14580451978323,1556.86498792704
0.140380898895672,1556.87498792704
0.134886399167802,1556.88498792704
0.128956584044368,1556.89498792704
0.122851719382703,1556.90498792704
0.116693330845028,1556.91498792704
0.111083241240884,1556.92498792704
0.107439911746584,1556.93498792704
0.107558656136166,1556.94498792704
0.114497085189986,1556.95498792704
0.13071924702659,1556.96498792704
0.155432212531213,1556.97498792704
0.188227650712652,1556.98498792704
0.227508228650636,1556.99498792704
0.269936231271281,1557.00498792704
0.312589123334587,1557.01498792704
0.353142974727108,1557.02498792704
0.389339680964536,1557.03498792704
0.41987597711969,1557.04498792704
0.444445524762311,1557.05498792704
0.462889884347136,1557.06498792704
0.475644784193307,1557.07498792704
0.484048723319713,1557.08498792704
0.488617687871355,1557.09498792704
0.490530238362063,1557.10498792704
0.489955049992199,1557.11498792704
0.488528305554211,1557.12498792704
0.486270477999393,1557.13498792704
0.483959938412715,1557.14498792704
0.481494140331405,1557.15498792704
0.479558090374946,1557.16498792704
0.477899207108894,1557.17498792704
0.476326172707623,1557.18498792704
0.475019552667319,1557.19498792704
0.472835518526637,1557.20498792704
0.469922106926892,1557.21498792704
0.465715795469776,1557.22498792704
0.460628389115757,1557.23498792704
0.454799705375911,1557.24498792704
0.448521388998341,1557.25498792704
0.442745915736933,1557.26498792704
0.437828620967599,1557.27498792704
0.434631802902966,1557.28498792704
0.433144363235982,1557.29498792704
0.434283532206496,1557.30498792704
0.437640580475735,1557.31498792704
0.442674739336895,1557.32498792704
0.449944811035152,1557.33498792704
0.45791807804064,1557.34498792704
0.466484704448841,1557.35498792704
0.474749845752927,1557.36498792704
0.482713346110679,1557.37498792704
0.489465145112403,1557.38498792704
0.494604279133621,1557.39498792704
0.497775193837773,1557.40498792704
0.499005680782733,1557.41498792704
0.498869810770285,1557.42498792704
0.497551545604733,1557.43498792704
0.495512441935115,1557.44498792704
0.492579503629296,1557.45498792704
0.490103971436904,1557.46498792704
0.486622097265554,1557.47498792704
0.482540342152656,1557.48498792704
0.47782605568735,1557.49498792704
0.473379950722184,1557.50498792704
0.468285274762087,1557.51498792704
0.463621128256207,1557.52498792704
0.459307552394102,1557.53498792704
0.454314996977163,1557.54498792704
0.449617236637269,1557.55498792704
0.444272868627402,1557.56498792704
0.438556132491366,1557.57498792704
0.432123448470629,1557.58498792704
0.425826905259772,1557.59498792704
0.419212600585668,1557.60498792704
0.412282748958801,1557.61498792704
0.405070540299133,1557.62498792704
0.398108870969881,1557.63498792704
0.390535649664161,1557.64498792704
0.383442083729003,1557.65498792704
0.376820757391584,1557.66498792704
0.370133336039907,1557.67498792704
0.363776518616377,1557.68498792704
0.357064797924995,1557.69498792704
0.350061679272791,1557.70498792704
0.342852279846515,1557.71498792704
0.335399884954054,1557.72498792704
0.327817450504771,1557.73498792704
0.320290298405074,1557.74498792704
0.312996078509261,1557.75498792704
0.305484963661521,1557.76498792704
0.298478879490176,1557.77498792704
0.291314453743711,1557.78498792704
0.284241677966575,1557.79498792704
0.277158049543914,1557.80498792704
0.270831261140686,1557.81498792704
0.264511801989132,1557.82498792704
0.258345433964184,1557.83498792704
0.251603855852352,1557.84498792704
0.244514891661874,1557.85498792704
0.237092217213118,1557.86498792704
0.229617903387882,1557.87498792704
0.221920214828772,1557.88498792704
0.214437712071617,1557.89498792704
0.207432679013271,1557.90498792704
0.200628008573788,1557.91498792704
0.194087408124402,1557.92498792704
0.187798576144616,1557.93498792704
0.181804402121682,1557.94498792704
0.175662706272075,1557.95498792704
0.169286776964321,1557.96498792704
0.164436984101074,1557.97498792704
0.162597801298467,1557.98498792704
0.165998622200632,1557.99498792704
0.176644898786513,1558.00498792704
0.195358975351753,1558.01498792704
0.22276113303533,1558.02498792704
0.256904966048619,1558.03498792704
0.296499839379442,1558.04498792704
0.338262372236693,1558.05498792704
0.3801269056526,1558.06498792704
0.418681650738241,1558.07498792704
0.451970883285756,1558.08498792704
0.479177186799325,1558.09498792704
0.499195644850971,1558.10498792704
0.513111825506348,1558.11498792704
0.520780306645956,1558.12498792704
0.523849440590566,1558.13498792704
0.523295696785791,1558.14498792704
0.520280581586565,1558.15498792704
0.515321975468204,1558.16498792704
0.50963715057163,1558.17498792704
0.503472682363003,1558.18498792704
0.497210370146379,1558.19498792704
0.491136440684017,1558.20498792704
0.485775547685107,1558.21498792704
0.480764203086226,1558.22498792704
0.47562127151272,1558.23498792704
0.470336286123216,1558.24498792704
0.463810024963557,1558.25498792704
0.456840168362112,1558.26498792704
0.448357135238093,1558.27498792704
0.438972646690684,1558.28498792704
0.429676753552866,1558.29498792704
0.420170251737344,1558.30498792704
0.411727237565496,1558.31498792704
0.404644310223398,1558.32498792704
0.399875780737739,1558.33498792704
0.397273501460526,1558.34498792704
0.396787444769189,1558.35498792704
0.39900725153168,1558.36498792704
0.403091462654006,1558.37498792704
0.407944197945354,1558.38498792704
0.413181655997297,1558.39498792704
0.418772797521797,1558.40498792704
0.422850864770825,1558.41498792704
0.42573494587844,1558.42498792704
0.427312532053073,1558.43498792704
0.426581018920442,1558.44498792704
0.424598691262818,1558.45498792704
0.421326251996236,1558.46498792704
0.416703608053443,1558.47498792704
0.411369300859612,1558.48498792704
0.405754462486389,1558.49498792704
0.399354251825928,1558.50498792704
0.392524320477313,1558.51498792704
0.385424468380035,1558.52498792704
0.378276002585281,1558.53498792704
0.371407895806919,1558.54498792704
0.36456249481697,1558.55498792704
0.357455127992391,1558.56498792704
0.350145888947565,1558.57498792704
0.342334968491016,1558.58498792704
0.334234797137667,1558.59498792704
0.326195884106974,1558.60498792704
0.318676461951905,1558.61498792704
0.310848019601192,1558.62498792704
0.302978657614677,1558.63498792704
0.295331914455551,1558.64498792704
0.287042346009364,1558.65498792704
0.27829279682593,1558.66498792704
0.269223619038402,1558.67498792704
0.259951621080959,1558.68498792704
0.251006102786753,1558.69498792704
0.242578935011106,1558.70498792704
0.234359587570379,1558.71498792704
0.226357089571639,1558.72498792704
0.218314098346913,1558.73498792704
0.210506788811058,1558.74498792704
0.202487345285811,1558.75498792704
0.194291277885754,1558.76498792704
0.186636147581555,1558.77498792704
0.178072669104527,1558.78498792704
0.169350826142153,1558.79498792704
0.160690412655574,1558.80498792704
0.151768531516261,1558.81498792704
0.143093881758069,1558.82498792704
0.133886385538209,1558.83498792704
0.124335777231132,1558.84498792704
0.114661073231168,1558.85498792704
0.105590532832608,1558.86498792704
0.0966607547115687,1558.87498792704
0.0882716585272781,1558.88498792704
0.0806943270285513,1558.89498792704
0.0734812519996533,1558.90498792704
0.0667547467707763,1558.91498792704
0.0606336692140341,1558.92498792704
0.0544208524813073,1558.93498792704
0.0484244717726403,1558.94498792704
0.0421712332564765,1558.95498792704
0.035255889866082,1558.96498792704
0.0273980324075621,1558.97498792704
0.018725482263337,1558.98498792704
0.00898779678071411,1558.99498792704
-0.000920083847031014,1559.00498792704
-0.010337862839912,1559.01498792704
-0.0190856790188718,1559.02498792704
-0.0269119248642624,1559.03498792704
-0.0333361023572317,1559.04498792704
-0.0371025137427831,1559.05498792704
-0.0363456910388744,1559.06498792704
-0.0302268697093738,1559.07498792704
-0.0168060587928032,1559.08498792704
0.00371481587293978,1559.09498792704
0.0297957910895672,1559.10498792704
0.0593249434495818,1559.11498792704
0.0894333510556932,1559.12498792704
0.117604308672534,1559.13498792704
0.142072733480032,1559.14498792704
0.160972688375126,1559.15498792704
0.174489519175981,1559.16498792704
0.182755502900178,1559.17498792704
0.185886752743451,1559.18498792704
0.185520508438248,1559.19498792704
0.182389468562027,1559.20498792704
0.177874013621064,1559.21498792704
0.17184003713633,1559.22498792704
0.164758182672439,1559.23498792704
0.156971130254472,1559.24498792704
0.148542805825668,1559.25498792704
0.141522235402607,1559.26498792704
0.134916131028903,1559.27498792704
0.129661986875475,1559.28498792704
0.124706297314716,1559.29498792704
0.119833270037362,1559.30498792704
0.115129959975847,1559.31498792704
0.110138352171651,1559.32498792704
0.105386432650518,1559.33498792704
0.09948842759062,1559.34498792704
0.0932585784153577,1559.35498792704
0.0865544476721491,1559.36498792704
0.0795101048322746,1559.37498792704
0.0726433504195729,1559.38498792704
0.0663840562236089,1559.39498792704
0.0618073960743963,1559.40498792704
0.0589428853078403,1559.41498792704
0.0570877776220162,1559.42498792704
0.0571927241414174,1559.43498792704
0.0588803521504228,1559.44498792704
0.0618495890704055,1559.45498792704
0.0653127411492137,1559.46498792704
0.0683765828965805,1559.47498792704
0.0714396664748679,1559.48498792704
0.0735963728339084,1559.49498792704
0.0748143850628622,1559.50498792704
0.0745046081698541,1559.51498792704
0.0726373165681456,1559.52498792704
0.0699380981986045,1559.53498792704
0.0660757351756314,1559.54498792704
0.0612312047234336,1559.55498792704
0.0561362628478093,1559.56498792704
0.0504671592964487,1559.57498792704
0.0452539410000461,1559.58498792704
0.0401365642988314,1559.59498792704
0.0349162536917711,1559.60498792704
0.0294267589072058,1559.61498792704
0.024024651252108,1559.62498792704
0.0187669250793053,1559.63498792704
0.0138847063311984,1559.64498792704
0.00936131211635949,1559.65498792704
0.00435190089788703,1559.66498792704
-0.00130263351895347,1559.67498792704
-0.00715634647861289,1559.68498792704
-0.0130696902728857,1559.69498792704
-0.019203201834379,1559.70498792704
-0.0250034577841934,1559.71498792704
-0.0302077335961036,1559.72498792704
-0.0360896872891475,1559.73498792704
-0.0420131069159901,1559.74498792704
-0.0478036519646019,1559.75498792704
-0.0542128437722391,1559.76498792704
-0.0607497318964863,1559.77498792704
-0.0675793196728503,1559.78498792704
-0.0742815775185333,1559.79498792704
-0.081098159997295,1559.80498792704
-0.0877645180207751,1559.81498792704
-0.0940816546888957,1559.82498792704
-0.100548449632825,1559.83498792704
-0.106844051909008,1559.84498792704
-0.113519648358721,1559.85498792704
-0.119736301321105,1559.86498792704
-0.125321393604675,1559.87498792704
-0.130603899153804,1559.88498792704
-0.135644589881186,1559.89498792704
-0.140709696897365,1559.90498792704
-0.146378239742971,1559.91498792704
-0.151811344316482,1559.92498792704
-0.157559395452365,1559.93498792704
-0.16367529273827,1559.94498792704
-0.170069310864276,1559.95498792704
-0.176585188233083,1559.96498792704
-0.182897355192141,1559.97498792704
-0.188500260980253,1559.98498792704
-0.194185663799579,1559.99498792704
-0.199284002432588,1560.00498792704
-0.204469850916726,1560.01498792704
-0.209373807732209,1560.02498792704
-0.214695068463743,1560.03498792704
-0.220490759953608,1560.04498792704
-0.226014093988799,1560.05498792704
-0.231145988543012,1560.06498792704
-0.236779704680701,1560.07498792704
-0.241907178274342,1560.08498792704
-0.246682020772538,1560.09498792704
-0.251920950306314,1560.10498792704
-0.257477545121226,1560.11498792704
-0.263097555955632,1560.12498792704
-0.267817491329469,1560.13498792704
-0.27144254648476,1560.14498792704
-0.272705840058439,1560.15498792704
-0.269445879873329,1560.16498792704
-0.260668143191717,1560.17498792704
-0.245158318478798,1560.18498792704
-0.224335264768787,1560.19498792704
-0.198860785591017,1560.20498792704
-0.172676522615145,1560.21498792704
-0.147890854312086,1560.22498792704
-0.126267217408329,1560.23498792704
-0.109922532355508,1560.24498792704
-0.0982041601490589,1560.25498792704
-0.0910858623253403,1560.26498792704
-0.0879546394978858,1560.27498792704
-0.0879646796197069,1560.28498792704
-0.0907716037754825,1560.29498792704
-0.0953696500947286,1560.30498792704
-0.101093899967179,1560.31498792704
-0.107501417800378,1560.32498792704
-0.113516199159384,1560.33498792704
-0.119107563285671,1560.34498792704
-0.124030356079552,1560.35498792704
-0.128571755924333,1560.36498792704
-0.132220566604377,1560.37498792704
-0.135838173399753,1560.38498792704
-0.138740034896976,1560.39498792704
-0.141350387747931,1560.40498792704
-0.143557677582188,1560.41498792704
-0.146051939636313,1560.42498792704
-0.148741838732378,1560.43498792704
-0.151931104245187,1560.44498792704
-0.15582778118935,1560.45498792704
-0.160119842896754,1560.46498792704
-0.164988113605127,1560.47498792704
-0.169333972472671,1560.48498792704
-0.173060999443649,1560.49498792704
-0.175965862485383,1560.50498792704
-0.177408740350047,1560.51498792704
-0.177435174980609,1560.52498792704
-0.176302671525379,1560.53498792704
-0.174114382684971,1560.54498792704
-0.171830112939369,1560.55498792704
-0.168878818308653,1560.56498792704
-0.165881003058249,1560.57498792704
-0.162644710147258,1560.58498792704
-0.159755270582808,1560.59498792704
-0.158154730178364,1560.60498792704
-0.157184179779616,1560.61498792704
-0.15685457024717,1560.62498792704
-0.157750647339095,1560.63498792704
-0.159776885000133,1560.64498792704
-0.162159179522431,1560.65498792704
-0.165073449970065,1560.66498792704
-0.168203320203196,1560.67498792704
-0.170811635558234,1560.68498792704
-0.173805941274976,1560.69498792704
-0.177196357095267,1560.70498792704
-0.181074956767842,1560.71498792704
-0.184752942136629,1560.72498792704
-0.188144794144344,1560.73498792704
-0.19134163781738,1560.74498792704
-0.194124140083158,1560.75498792704
-0.196972388824366,1560.76498792704
-0.20034266319079,1560.77498792704
-0.204312154066656,1560.78498792704
-0.208719561812184,1560.79498792704
-0.213794787467083,1560.80498792704
-0.218945690714772,1560.81498792704
-0.22367794407724,1560.82498792704
-0.227906395193814,1560.83498792704
-0.231724127202882,1560.84498792704
-0.235701121095116,1560.85498792704
-0.23963110250204,1560.86498792704
-0.243945273047591,1560.87498792704
-0.248161882545344,1560.88498792704
-0.252192728914562,1560.89498792704
-0.256230939400291,1560.90498792704
-0.259954434378309,1560.91498792704
-0.263409327526426,1560.92498792704
-0.26690369803675,1560.93498792704
-0.270305505262222,1560.94498792704
-0.274511435051331,1560.95498792704
-0.2782528348807,1560.96498792704
-0.282555251880523,1560.97498792704
-0.28681293199346,1560.98498792704
-0.291053270164718,1560.99498792704
-0.295198644986302,1561.00498792704
-0.298660741999225,1561.01498792704
-0.302293318238273,1561.02498792704
-0.305046195072249,1561.03498792704
-0.307899353847883,1561.04498792704
-0.310996853112411,1561.05498792704
-0.314237416464893,1561.06498792704
-0.317836903115261,1561.07498792704
-0.321959385576021,1561.08498792704
-0.32668435188157,1561.09498792704
-0.33154697658501,1561.10498792704
-0.335685935224755,1561.11498792704
-0.340120037801728,1561.12498792704
-0.344113581765513,1561.13498792704
-0.347669768679886,1561.14498792704
-0.351201049802759,1561.15498792704
-0.35423189253582,1561.16498792704
-0.356575542201391,1561.17498792704
-0.358974462463018,1561.18498792704
-0.361409062927576,1561.19498792704
-0.364452647367332,1561.20498792704
-0.368157491263622,1561.21498792704
-0.372543446088124,1561.22498792704
-0.376988970677771,1561.23498792704
-0.381290666735977,1561.24498792704
-0.385464824430289,1561.25498792704
-0.388686150651899,1561.26498792704
-0.391470473069942,1561.27498792704
-0.391470456301646,1561.28498792704
-0.387495229582726,1561.29498792704
-0.378757392884579,1561.30498792704
-0.363616518931105,1561.31498792704
-0.343107171571355,1561.32498792704
-0.319023928837038,1561.33498792704
-0.294178214934066,1561.34498792704
-0.269457451228388,1561.35498792704
-0.248085334304865,1561.36498792704
-0.231147697662404,1561.37498792704
-0.218532761003033,1561.38498792704
-0.210830508638124,1561.39498792704
-0.207087916331992,1561.40498792704
-0.206606033146412,1561.41498792704
-0.208136914684701,1561.42498792704
-0.211336694984969,1561.43498792704
-0.215835483897167,1561.44498792704
-0.220728316385195,1561.45498792704
-0.225918317277581,1561.46498792704
-0.230190813099111,1561.47498792704
-0.23401956675701,1561.48498792704
-0.23687613545435,1561.49498792704
-0.239442988555876,1561.50498792704
-0.241746778882444,1561.51498792704
-0.243434894087112,1561.52498792704
-0.244998158633011,1561.53498792704
-0.246695338187368,1561.54498792704
-0.248488300013126,1561.55498792704
-0.250657892339174,1561.56498792704
-0.253283198718662,1561.57498792704
-0.256551531766457,1561.58498792704
-0.25958112512954,1561.59498792704
-0.262692063775146,1561.60498792704
-0.265637574602541,1561.61498792704
-0.268018310516907,1561.62498792704
-0.269426321626402,1561.63498792704
-0.268769168425343,1561.64498792704
-0.266341470305762,1561.65498792704
-0.262095331252071,1561.66498792704
-0.256670013081494,1561.67498792704
-0.250797831755156,1561.68498792704
-0.24500484566803,1561.69498792704
-0.239467781166625,1561.70498792704
-0.234754746956744,1561.71498792704
-0.230674180172,1561.72498792704
-0.227866308490239,1561.73498792704
-0.226171487977714,1561.74498792704
-0.225800078999777,1561.75498792704
-0.22612870764335,1561.76498792704
-0.226923594419991,1561.77498792704
-0.228446634843729,1561.78498792704
-0.230726617223534,1561.79498792704
-0.233161689472206,1561.80498792704
-0.235775016915662,1561.81498792704
-0.238689298651961,1561.82498792704
-0.241307340009824,1561.83498792704
-0.243575461939588,1561.84498792704
-0.245310509295526,1561.85498792704
-0.246850389984564,1561.86498792704
-0.24779648406881,1561.87498792704
-0.24871269617453,1561.88498792704
-0.250826660635608,1561.89498792704
-0.252999488275181,1561.90498792704
-0.256123048000071,1561.91498792704
-0.25960451748564,1561.92498792704
-0.263064910321249,1561.93498792704
-0.266342539160842,1561.94498792704
-0.269222015741933,1561.95498792704
-0.271785810458737,1561.96498792704
-0.274865375080567,1561.97498792704
-0.277079353853866,1561.98498792704
-0.280041392282213,1561.99498792704
-0.282846211072896,1562.00498792704
-0.285596945689058,1562.01498792704
-0.288289709164012,1562.02498792704
-0.290954827927468,1562.03498792704
-0.2944243288773,1562.04498792704
-0.297705377436685,1562.05498792704
-0.301059992068545,1562.06498792704
-0.303913717396087,1562.07498792704
-0.306122015397069,1562.08498792704
-0.308021918245873,1562.09498792704
-0.310151029788398,1562.10498792704
-0.312654767300873,1562.11498792704
-0.31505286323495,1562.12498792704
-0.317539743971904,1562.13498792704
-0.32044207731128,1562.14498792704
-0.322922318958501,1562.15498792704
-0.325295946068855,1562.16498792704
-0.327788135633572,1562.17498792704
-0.329894719471014,1562.18498792704
-0.332195086089745,1562.19498792704
-0.334469540629321,1562.20498792704
-0.336290239401224,1562.21498792704
-0.33856994274947,1562.22498792704
-0.340452177108743,1562.23498792704
-0.342198006283182,1562.24498792704
-0.344474848896238,1562.25498792704
-0.346845956514936,1562.26498792704
-0.349666301454347,1562.27498792704
-0.352960997657289,1562.28498792704
-0.356456925405725,1562.29498792704
-0.358938857368026,1562.30498792704
-0.360680629055969,1562.31498792704
-0.360269446989645,1562.32498792704
-0.356279794961404,1562.33498792704
-0.347159135138486,1562.34498792704
-0.33250761454376,1562.35498792704
-0.312159748003025,1562.36498792704
-0.287121468738024,1562.37498792704
-0.260162048806158,1562.38498792704
-0.2334818846877,1562.39498792704
-0.209215312072883,1562.40498792704
-0.188529880984781,1562.41498792704
-0.172075842630542,1562.42498792704
-0.159865032300015,1562.43498792704
-0.150958075571364,1562.44498792704
-0.145856762758982,1562.45498792704
-0.143538074449142,1562.46498792704
-0.143228591111524,1562.47498792704
-0.144952486067018,1562.48498792704
-0.148420281409855,1562.49498792704
-0.151756786211896,1562.50498792704
-0.155031009882257,1562.51498792704
-0.157933451115876,1562.52498792704
-0.160646514895965,1562.53498792704
-0.162617853269949,1562.54498792704
-0.163970615173907,1562.55498792704
-0.164827787532148,1562.56498792704
-0.16525033998205,1562.57498792704
-0.165243471038649,1562.58498792704
-0.165999409537192,1562.59498792704
-0.167613559540299,1562.60498792704
-0.169386235841817,1562.61498792704
-0.171967632662996,1562.62498792704
-0.174875016566445,1562.63498792704
-0.177797048750753,1562.64498792704
-0.17958317950155,1562.65498792704
-0.1799843336472,1562.66498792704
-0.178974905163412,1562.67498792704
-0.176082510314968,1562.68498792704
-0.172203805393989,1562.69498792704
-0.167291787252497,1562.70498792704
-0.1613801483504,1562.71498792704
-0.154540375404657,1562.72498792704
-0.147649918913946,1562.73498792704
-0.140617063031383,1562.74498792704
-0.13405873209816,1562.75498792704
-0.129225846908668,1562.76498792704
-0.125622080925957,1562.77498792704
-0.123187105538401,1562.78498792704
-0.121758003957618,1562.79498792704
-0.120753923823999,1562.80498792704
-0.120374148079127,1562.81498792704
-0.120015177131041,1562.82498792704
-0.120352368001523,1562.83498792704
-0.121023921630979,1562.84498792704
-0.121489326931048,1562.85498792704
-0.123180670715286,1562.86498792704
-0.12508898206027,1562.87498792704
-0.127275353863648,1562.88498792704
-0.129456365803226,1562.89498792704
-0.13141838684628,1562.90498792704
-0.133425633640416,1562.91498792704
-0.135160592029178,1562.92498792704
-0.137333672986125,1562.93498792704
-0.139037364478724,1562.94498792704
-0.140803097831828,1562.95498792704
-0.142852881821184,1562.96498792704
-0.144668741082994,1562.97498792704
-0.147337642273483,1562.98498792704
-0.149940235544349,1562.99498792704
-0.152432688837181,1563.00498792704
-0.155587119996414,1563.01498792704
-0.157811830021334,1563.02498792704
-0.160100313539493,1563.03498792704
-0.16279686553589,1563.04498792704
-0.16424158502157,1563.05498792704
-0.166003436731069,1563.06498792704
-0.167792158380085,1563.07498792704
