PPG,time
-0.230855660662466,1508.3414910443
-0.461524480023879,1508.3514910443
-0.414052611582554,1508.3614910443
-0.450330254073565,1508.3714910443
-0.439200204211551,1508.3814910443
-0.457736625529776,1508.3914910443
-0.457441081531475,1508.4014910443
-0.469302776151913,1508.4114910443
-0.473841576816298,1508.4214910443
-0.482319395036095,1508.4314910443
-0.489001347830017,1508.4414910443
-0.496428848476002,1508.4514910443
-0.503792188309206,1508.4614910443
-0.511510544065771,1508.4714910443
-0.519883017877249,1508.4814910443
-0.528145734387602,1508.4914910443
-0.536398428490935,1508.5014910443
-0.543396969353943,1508.5114910443
-0.545178268518903,1508.5214910443
-0.538496041581942,1508.5314910443
-0.519277864602608,1508.5414910443
-0.486210921962828,1508.5514910443
-0.44013230082759,1508.5614910443
-0.38377741682966,1508.5714910443
-0.321921855717984,1508.5814910443
-0.259056420718736,1508.5914910443
-0.197712123064773,1508.6014910443
-0.140835175510687,1508.6114910443
-0.0900377043626116,1508.6214910443
-0.0466075002810373,1508.6314910443
-0.0108757802450235,1508.6414910443
0.0182876213417611,1508.6514910443
0.0408604944046419,1508.6614910443
0.0574315864380506,1508.6714910443
0.0682913786723569,1508.6814910443
0.0751335570851493,1508.6914910443
0.079703165660464,1508.7014910443
0.0824790956446751,1508.7114910443
0.084863418927179,1508.7214910443
0.0871395946134051,1508.7314910443
0.0896940343621187,1508.7414910443
0.0925345732486727,1508.7514910443
0.0966467363768866,1508.7614910443
0.100172153170761,1508.7714910443
0.103621735629888,1508.7814910443
0.105827864545354,1508.7914910443
0.106487738637483,1508.8014910443
0.105119312342459,1508.8114910443
0.100873376227879,1508.8214910443
0.094322660910415,1508.8314910443
0.0859461984067725,1508.8414910443
0.0778796918227178,1508.8514910443
0.0710872813545839,1508.8614910443
0.0661556755425874,1508.8714910443
0.0627695792154449,1508.8814910443
0.061188441444589,1508.8914910443
0.0613329325197396,1508.9014910443
0.0625175269815442,1508.9114910443
0.0652258262002336,1508.9214910443
0.0678638667510719,1508.9314910443
0.0707851314957284,1508.9414910443
0.0732050639758349,1508.9514910443
0.0753202006281769,1508.9614910443
0.0764567900467217,1508.9714910443
0.0762833935274406,1508.9814910443
0.0753253258974184,1508.9914910443
0.0730874344412765,1509.0014910443
0.069423085840517,1509.0114910443
0.0647221107948916,1509.0214910443
0.0583123575858039,1509.0314910443
0.0508121647531646,1509.0414910443
0.0421330105881636,1509.0514910443
0.0319839470761937,1509.0614910443
0.0213691133973483,1509.0714910443
0.0101855746867195,1509.0814910443
-0.000770996840650447,1509.0914910443
-0.0114820107029964,1509.1014910443
-0.0222798610846553,1509.1114910443
-0.0329421958653703,1509.1214910443
-0.0439193549126418,1509.1314910443
-0.0547870150836996,1509.1414910443
-0.0651668091550502,1509.1514910443
-0.0746890934607925,1509.1614910443
-0.0842653137001688,1509.1714910443
-0.0931442947158787,1509.1814910443
-0.101956795402271,1509.1914910443
-0.11067594354224,1509.2014910443
-0.119448647634692,1509.2114910443
-0.128247559839463,1509.2214910443
-0.136658397027236,1509.2314910443
-0.145497522074624,1509.2414910443
-0.154363116028168,1509.2514910443
-0.16334494756815,1509.2614910443
-0.171952810820576,1509.2714910443
-0.180907232995979,1509.2814910443
-0.189805623024087,1509.2914910443
-0.198471652027961,1509.3014910443
-0.207806447309085,1509.3114910443
-0.217134035858626,1509.3214910443
-0.226674726174022,1509.3314910443
-0.236418507966009,1509.3414910443
-0.245854624698787,1509.3514910443
-0.254968329422803,1509.3614910443
-0.262956371737604,1509.3714910443
-0.271231920040186,1509.3814910443
-0.279477743827053,1509.3914910443
-0.287788447735363,1509.4014910443
-0.296309402097635,1509.4114910443
-0.304288905194994,1509.4214910443
-0.311986549123419,1509.4314910443
-0.319450378672937,1509.4414910443
-0.326941346861345,1509.4514910443
-0.334873486460569,1509.4614910443
-0.34312552697635,1509.4714910443
-0.351345955324843,1509.4814910443
-0.359609977492365,1509.4914910443
-0.367630340496517,1509.5014910443
-0.375617960555302,1509.5114910443
-0.382904919105344,1509.5214910443
-0.390467837787271,1509.5314910443
-0.397747511924209,1509.5414910443
-0.404524847228852,1509.5514910443
-0.412104238681592,1509.5614910443
-0.41910371650452,1509.5714910443
-0.426138404659481,1509.5814910443
-0.433052115088161,1509.5914910443
-0.440133126963433,1509.6014910443
-0.448475053626103,1509.6114910443
-0.457383119516297,1509.6214910443
-0.4664870382399,1509.6314910443
-0.474286748402782,1509.6414910443
-0.477944674949553,1509.6514910443
-0.473611627457317,1509.6614910443
-0.458042127190288,1509.6714910443
-0.429185374848475,1509.6814910443
-0.387520059786033,1509.6914910443
-0.335731561719435,1509.7014910443
-0.277804821743003,1509.7114910443
-0.217233350379751,1509.7214910443
-0.15817917072497,1509.7314910443
-0.102856822705925,1509.7414910443
-0.052901319862378,1509.7514910443
-0.00931110393484562,1509.7614910443
0.0277148766299814,1509.7714910443
0.0576448717537162,1509.7814910443
0.0803774691350823,1509.7914910443
0.0968304695903356,1509.8014910443
0.108157909528249,1509.8114910443
0.115963512287582,1509.8214910443
0.121186897003911,1509.8314910443
0.12460531848982,1509.8414910443
0.127450430963119,1509.8514910443
0.129842459007547,1509.8614910443
0.132634648904087,1509.8714910443
0.135905974801049,1509.8814910443
0.139222385864937,1509.8914910443
0.14227646018369,1509.9014910443
0.144693715133314,1509.9114910443
0.146241740144419,1509.9214910443
0.146029829802926,1509.9314910443
0.142842943824989,1509.9414910443
0.136910634388894,1509.9514910443
0.128728382982618,1509.9614910443
0.119510827308567,1509.9714910443
0.110740733893063,1509.9814910443
0.102569540236825,1509.9914910443
0.0962581307388972,1510.0014910443
0.0914351547175598,1510.0114910443
0.0882814349069103,1510.0214910443
0.0861398088580132,1510.0314910443
0.08472354525185,1510.0414910443
0.0847906400655817,1510.0514910443
0.0853032586534261,1510.0614910443
0.0865948792169581,1510.0714910443
0.0882902776947404,1510.0814910443
0.0900081256994423,1510.0914910443
0.0909290370853289,1510.1014910443
0.0909252220006251,1510.1114910443
0.090302289886382,1510.1214910443
0.0882995471626881,1510.1314910443
0.0848505737639016,1510.1414910443
0.0798323355546165,1510.1514910443
0.0729237280309867,1510.1614910443
0.0647632959947808,1510.1714910443
0.0557219415858978,1510.1814910443
0.0454971951150505,1510.1914910443
0.0347740623089117,1510.2014910443
0.0231452869371132,1510.2114910443
0.0121112805417479,1510.2214910443
0.000694048050992636,1510.2314910443
-0.0107438557999349,1510.2414910443
-0.0221274278379645,1510.2514910443
-0.0331616828962335,1510.2614910443
-0.0446263398771779,1510.2714910443
-0.0558790023288636,1510.2814910443
-0.06680533964629,1510.2914910443
-0.0770119809744904,1510.3014910443
-0.0872678723792316,1510.3114910443
-0.096900734550295,1510.3214910443
-0.106495932943786,1510.3314910443
-0.115884598964651,1510.3414910443
-0.125468185554002,1510.3514910443
-0.134803268696586,1510.3614910443
-0.143525078981808,1510.3714910443
-0.15224504952181,1510.3814910443
-0.161077102220683,1510.3914910443
-0.170241213621581,1510.4014910443
-0.179499570268981,1510.4114910443
-0.188121252938049,1510.4214910443
-0.196580239691013,1510.4314910443
-0.205068136732575,1510.4414910443
-0.213660863797213,1510.4514910443
-0.22267058239506,1510.4614910443
-0.231764864220893,1510.4714910443
-0.241071144523333,1510.4814910443
-0.250232309215797,1510.4914910443
-0.259176719574887,1510.5014910443
-0.268489938102305,1510.5114910443
-0.277873981575222,1510.5214910443
-0.286601177861819,1510.5314910443
-0.295544298854167,1510.5414910443
-0.304491046262818,1510.5514910443
-0.313123424033314,1510.5614910443
-0.321370305800875,1510.5714910443
-0.329902312467434,1510.5814910443
-0.33756340412501,1510.5914910443
-0.345174417627766,1510.6014910443
-0.352962034868265,1510.6114910443
-0.361030734047327,1510.6214910443
-0.368902738470305,1510.6314910443
-0.377124681079422,1510.6414910443
-0.385277849187927,1510.6514910443
-0.393906781218378,1510.6614910443
-0.402302836994829,1510.6714910443
-0.410640973857262,1510.6814910443
-0.419007033908324,1510.6914910443
-0.42665436920218,1510.7014910443
-0.433763997824882,1510.7114910443
-0.440594960939913,1510.7214910443
-0.447760836586955,1510.7314910443
-0.455167296966828,1510.7414910443
-0.463318326577261,1510.7514910443
-0.471970349770831,1510.7614910443
-0.480928151717838,1510.7714910443
-0.488993191727127,1510.7814910443
-0.494944377944003,1510.7914910443
-0.496161375117768,1510.8014910443
-0.489240227590468,1510.8114910443
-0.470541391090701,1510.8214910443
-0.438504288212862,1510.8314910443
-0.393708253485236,1510.8414910443
-0.339061045859291,1510.8514910443
-0.279807442204399,1510.8614910443
-0.219586820138765,1510.8714910443
-0.162162389043754,1510.8814910443
-0.109962267382652,1510.8914910443
-0.0632717590137766,1510.9014910443
-0.0232728525390539,1510.9114910443
0.010479907998746,1510.9214910443
0.0379834014979697,1510.9314910443
0.0601250532982572,1510.9414910443
0.0765711453842746,1510.9514910443
0.0886561794011903,1510.9614910443
0.0967018779645358,1510.9714910443
0.102431383682764,1510.9814910443
0.106385363480281,1510.9914910443
0.109653793950667,1511.0014910443
0.112958708668185,1511.0114910443
0.116959066029034,1511.0214910443
0.121681916619785,1511.0314910443
0.126431718494928,1511.0414910443
0.130491839836452,1511.0514910443
0.133223835249041,1511.0614910443
0.134213412698198,1511.0714910443
0.132892827552168,1511.0814910443
0.129179036484817,1511.0914910443
0.122761431673656,1511.1014910443
0.114813332991039,1511.1114910443
0.106227973142641,1511.1214910443
0.0975908321113254,1511.1314910443
0.0904282288695081,1511.1414910443
0.0845323905710966,1511.1514910443
0.0802601511360816,1511.1614910443
0.0780829189277197,1511.1714910443
0.0767939847887364,1511.1814910443
0.0773871603243892,1511.1914910443
0.0789962077249626,1511.2014910443
0.0805475767669791,1511.2114910443
0.0826912259110087,1511.2214910443
0.0850885945759671,1511.2314910443
0.0869316660351836,1511.2414910443
0.0884402683574776,1511.2514910443
0.0892885265838121,1511.2614910443
0.0887292990908404,1511.2714910443
0.0868229386884837,1511.2814910443
0.0832697104536399,1511.2914910443
0.0783210424634827,1511.3014910443
0.0726826799161792,1511.3114910443
0.0657327894250521,1511.3214910443
0.0575639738462548,1511.3314910443
0.0483063752946908,1511.3414910443
0.0380521832036293,1511.3514910443
0.0271938690661367,1511.3614910443
0.0154232089008064,1511.3714910443
0.00312486778673376,1511.3814910443
-0.00955081709500018,1511.3914910443
-0.0221121480803631,1511.4014910443
-0.0344024763538163,1511.4114910443
-0.0460150091846138,1511.4214910443
-0.0567372371213757,1511.4314910443
-0.0661040824002576,1511.4414910443
-0.0749603101179391,1511.4514910443
-0.0831612600617884,1511.4614910443
-0.0908813933854068,1511.4714910443
-0.0985441791858852,1511.4814910443
-0.106025023190279,1511.4914910443
-0.113315250604589,1511.5014910443
-0.120741907901141,1511.5114910443
-0.129509276264349,1511.5214910443
-0.13809612767378,1511.5314910443
-0.147241491429418,1511.5414910443
-0.156334550239268,1511.5514910443
-0.164779846076165,1511.5614910443
-0.173898154199386,1511.5714910443
-0.181815042400002,1511.5814910443
-0.189756122883968,1511.5914910443
-0.197376785338955,1511.6014910443
-0.205123231332142,1511.6114910443
-0.213166052480811,1511.6214910443
-0.221833956305946,1511.6314910443
-0.230468400490755,1511.6414910443
-0.239698247821952,1511.6514910443
-0.248833441450387,1511.6614910443
-0.258148619716254,1511.6714910443
-0.267198427957334,1511.6814910443
-0.276504636208167,1511.6914910443
-0.285219969318476,1511.7014910443
-0.293152055102864,1511.7114910443
-0.300800997740408,1511.7214910443
-0.308558349456521,1511.7314910443
-0.316111077467082,1511.7414910443
-0.323901742399977,1511.7514910443
-0.331709738969357,1511.7614910443
-0.339099846407786,1511.7714910443
-0.346098143407042,1511.7814910443
-0.35232699184157,1511.7914910443
-0.358450853058368,1511.8014910443
-0.3650616491289,1511.8114910443
-0.371931690471296,1511.8214910443
-0.378653826639439,1511.8314910443
-0.385889879862505,1511.8414910443
-0.393696625667573,1511.8514910443
-0.401430746055177,1511.8614910443
-0.40954007929628,1511.8714910443
-0.417946097307636,1511.8814910443
-0.426359527463274,1511.8914910443
-0.434689814281738,1511.9014910443
-0.441475852485509,1511.9114910443
-0.443906196197337,1511.9214910443
-0.438050613958313,1511.9314910443
-0.420303249074931,1511.9414910443
-0.388501236567789,1511.9514910443
-0.343389804727346,1511.9614910443
-0.288700720726748,1511.9714910443
-0.228507712349785,1511.9814910443
-0.167113075536856,1511.9914910443
-0.10871086349435,1512.0014910443
-0.0542734045064568,1512.0114910443
-0.00697751979911155,1512.0214910443
0.0331899642335596,1512.0314910443
0.0660950470062073,1512.0414910443
0.0922156910546493,1512.0514910443
0.112233939790714,1512.0614910443
0.127435332278168,1512.0714910443
0.138309437864869,1512.0814910443
0.146495064603302,1512.0914910443
0.152397808976054,1512.1014910443
0.157119698196372,1512.1114910443
0.160010998629969,1512.1214910443
0.162112417418054,1512.1314910443
0.163828355029835,1512.1414910443
0.165006892139438,1512.1514910443
0.165976897271829,1512.1614910443
0.166562465439628,1512.1714910443
0.166331715531054,1512.1814910443
0.164639465500871,1512.1914910443
0.160681875541424,1512.2014910443
0.154121539913604,1512.2114910443
0.145663414661683,1512.2214910443
0.135699488092636,1512.2314910443
0.125339903111847,1512.2414910443
0.115260192079112,1512.2514910443
0.106903611248476,1512.2614910443
0.100036122785479,1512.2714910443
0.0951827050814707,1512.2814910443
0.0937259535006501,1512.2914910443
0.0942965051843123,1512.3014910443
0.096765799228266,1512.3114910443
0.099984269445683,1512.3214910443
0.103237042626889,1512.3314910443
0.106321182819446,1512.3414910443
0.108846094688907,1512.3514910443
0.110487989484474,1512.3614910443
0.111711370800358,1512.3714910443
0.111858307490264,1512.3814910443
0.110755773374746,1512.3914910443
0.107884357968426,1512.4014910443
0.103140075675507,1512.4114910443
0.0970396994616451,1512.4214910443
0.0897105915091703,1512.4314910443
0.08179913974737,1512.4414910443
0.0727973668088263,1512.4514910443
0.0634452659517931,1512.4614910443
0.0533841748008099,1512.4714910443
0.042457219673233,1512.4814910443
0.0313784920235419,1512.4914910443
0.019189867217466,1512.5014910443
0.00734744681131459,1512.5114910443
-0.00453101288501404,1512.5214910443
-0.0164586742640739,1512.5314910443
-0.0280216148511424,1512.5414910443
-0.0392932430859297,1512.5514910443
-0.0500662901093932,1512.5614910443
-0.0605081602630092,1512.5714910443
-0.0707683646163239,1512.5814910443
-0.0809273145701763,1512.5914910443
-0.0902004924263172,1512.6014910443
-0.0989162968277324,1512.6114910443
-0.107175060724711,1512.6214910443
-0.114543118410612,1512.6314910443
-0.12253866613158,1512.6414910443
-0.129993295909308,1512.6514910443
-0.138130239819774,1512.6614910443
-0.146603542497714,1512.6714910443
-0.154882236169361,1512.6814910443
-0.163265656340247,1512.6914910443
-0.170976605710347,1512.7014910443
-0.179354843115385,1512.7114910443
-0.186923426450599,1512.7214910443
-0.195134764729156,1512.7314910443
-0.203683950447467,1512.7414910443
-0.212490008843943,1512.7514910443
-0.221586322477628,1512.7614910443
-0.230690873085693,1512.7714910443
-0.240041884132922,1512.7814910443
-0.249128581986258,1512.7914910443
-0.258332347926273,1512.8014910443
-0.266887791402708,1512.8114910443
-0.275324096427001,1512.8214910443
-0.282971494968528,1512.8314910443
-0.290558076575917,1512.8414910443
-0.298260638702404,1512.8514910443
-0.306169112638997,1512.8614910443
-0.314406743840207,1512.8714910443
-0.322781186047428,1512.8814910443
-0.330907389589949,1512.8914910443
-0.338939411116274,1512.9014910443
-0.346881709800953,1512.9114910443
-0.353952962266761,1512.9214910443
-0.361666009261476,1512.9314910443
-0.36879467241523,1512.9414910443
-0.376013465625194,1512.9514910443
-0.383233139773437,1512.9614910443
-0.390576392012706,1512.9714910443
-0.397864752142343,1512.9814910443
-0.404833510974687,1512.9914910443
-0.412687547077527,1513.0014910443
-0.420817881186398,1513.0114910443
-0.429094124144553,1513.0214910443
-0.43743987459109,1513.0314910443
-0.445441959421733,1513.0414910443
-0.453299029063827,1513.0514910443
-0.460841189782304,1513.0614910443
-0.467053266048689,1513.0714910443
-0.469177870060205,1513.0814910443
-0.46333874094904,1513.0914910443
-0.445313061912025,1513.1014910443
-0.413444933078567,1513.1114910443
-0.368831820750101,1513.1214910443
-0.314441189458216,1513.1314910443
-0.255246888481825,1513.1414910443
-0.195094630522442,1513.1514910443
-0.137647367563971,1513.1614910443
-0.0857117757817972,1513.1714910443
-0.0412429104315304,1513.1814910443
-0.00341856290683549,1513.1914910443
0.0267529836507689,1513.2014910443
0.049560872138226,1513.2114910443
0.0667400437204391,1513.2214910443
0.0785614543067591,1513.2314910443
0.0867777379093542,1513.2414910443
0.0914844020670933,1513.2514910443
0.0933278537317625,1513.2614910443
0.0922835382732888,1513.2714910443
0.0894882672233605,1513.2814910443
0.0853945637582793,1513.2914910443
0.0812221415314828,1513.3014910443
0.0774972206405821,1513.3114910443
0.0736036547499662,1513.3214910443
0.0699002265027729,1513.3314910443
0.0665321910293567,1513.3414910443
0.0626669533673276,1513.3514910443
0.057380492167123,1513.3614910443
0.0509491770439279,1513.3714910443
0.0429507587450307,1513.3814910443
0.0350953873861813,1513.3914910443
0.027806501904962,1513.4014910443
0.022560207899929,1513.4114910443
0.0196812832900578,1513.4214910443
0.0193218725125025,1513.4314910443
0.0214693040546737,1513.4414910443
0.0256072349680488,1513.4514910443
0.031142646352804,1513.4614910443
0.0376141104613956,1513.4714910443
0.0439667617421095,1513.4814910443
0.0491873377572057,1513.4914910443
0.0532969742845893,1513.5014910443
0.056529824510422,1513.5114910443
0.0584684082952185,1513.5214910443
0.0587207512819639,1513.5314910443
0.0571937119379209,1513.5414910443
0.0541496223081017,1513.5514910443
0.0499482949650132,1513.5614910443
0.0442486825735599,1513.5714910443
0.0375782029138826,1513.5814910443
0.0298422892980668,1513.5914910443
0.0209451268796552,1513.6014910443
0.011564893865605,1513.6114910443
0.00183913226837558,1513.6214910443
-0.00791519150554268,1513.6314910443
-0.0179777968277734,1513.6414910443
-0.0277920869275253,1513.6514910443
-0.0373548695493596,1513.6614910443
-0.0466314703569169,1513.6714910443
-0.055094945807873,1513.6814910443
-0.0637163327003885,1513.6914910443
-0.0721457406668008,1513.7014910443
-0.0808577962376404,1513.7114910443
-0.0891446071188033,1513.7214910443
-0.0968180912372578,1513.7314910443
-0.104212230710867,1513.7414910443
-0.111424590183379,1513.7514910443
-0.118573180720369,1513.7614910443
-0.125426860958336,1513.7714910443
-0.132523200622468,1513.7814910443
-0.140105362902203,1513.7914910443
-0.147919652860966,1513.8014910443
-0.155409204343739,1513.8114910443
-0.162755782491064,1513.8214910443
-0.17017670259762,1513.8314910443
-0.178335064565367,1513.8414910443
-0.18653956687434,1513.8514910443
-0.195346991526444,1513.8614910443
-0.20492841042406,1513.8714910443
-0.214682719326131,1513.8814910443
-0.224034074558052,1513.8914910443
-0.232746974595342,1513.9014910443
-0.24124804539669,1513.9114910443
-0.24920022890852,1513.9214910443
-0.256308909758915,1513.9314910443
-0.263328456364099,1513.9414910443
-0.270236998798984,1513.9514910443
-0.277130903613014,1513.9614910443
-0.284528652180523,1513.9714910443
-0.291864457526054,1513.9814910443
-0.299725386652843,1513.9914910443
-0.307114393774481,1514.0014910443
-0.314207808606505,1514.0114910443
-0.321474499149116,1514.0214910443
-0.329173487876019,1514.0314910443
-0.336707675996004,1514.0414910443
-0.34484897642974,1514.0514910443
-0.353042145562721,1514.0614910443
-0.361008972015142,1514.0714910443
-0.366867265500469,1514.0814910443
-0.368648636738965,1514.0914910443
-0.362258970801945,1514.1014910443
-0.344109499550007,1514.1114910443
-0.312705743592826,1514.1214910443
-0.268681549690667,1514.1314910443
-0.215254840939549,1514.1414910443
-0.156974421946192,1514.1514910443
-0.0977993157270757,1514.1614910443
-0.0402723125885171,1514.1714910443
0.0128925740515851,1514.1814910443
0.059948544541921,1514.1914910443
0.100089134718788,1514.2014910443
0.132971074930545,1514.2114910443
0.159403164513018,1514.2214910443
0.179376019269088,1514.2314910443
0.193369459660999,1514.2414910443
0.203327383958756,1514.2514910443
0.209050456360431,1514.2614910443
0.212487672432486,1514.2714910443
0.213757138546121,1514.2814910443
0.213768220526676,1514.2914910443
0.213526928269877,1514.3014910443
0.212894596708293,1514.3114910443
0.212826711823483,1514.3214910443
0.212978170396239,1514.3314910443
0.212438145578212,1514.3414910443
0.21071815514569,1514.3514910443
0.206968869879336,1514.3614910443
0.200806914383426,1514.3714910443
0.193291979327711,1514.3814910443
0.184360902622907,1514.3914910443
0.175195657014324,1514.4014910443
0.166398276839711,1514.4114910443
0.158808409921857,1514.4214910443
0.153034533258195,1514.4314910443
0.148896524764541,1514.4414910443
0.146841541390927,1514.4514910443
0.146608741673974,1514.4614910443
0.147239937160806,1514.4714910443
0.148987291893044,1514.4814910443
0.151592166095317,1514.4914910443
0.153837062281832,1514.5014910443
0.155944380218577,1514.5114910443
0.157522702910092,1514.5214910443
0.158242952287284,1514.5314910443
0.158158713880368,1514.5414910443
0.156092612538535,1514.5514910443
0.152903453445619,1514.5614910443
0.149167135207392,1514.5714910443
0.144570215722782,1514.5814910443
0.138977302125432,1514.5914910443
0.132248975572178,1514.6014910443
0.123886587288098,1514.6114910443
0.114558432939966,1514.6214910443
0.10425390679656,1514.6314910443
0.0932062073467914,1514.6414910443
0.0820893089741734,1514.6514910443
0.0701790165721744,1514.6614910443
0.0585168204969116,1514.6714910443
0.0471546467550435,1514.6814910443
0.0363410493893443,1514.6914910443
0.0258140950742452,1514.7014910443
0.0154869416092878,1514.7114910443
0.00597947547466343,1514.7214910443
-0.00357673980935327,1514.7314910443
-0.0125707258804834,1514.7414910443
-0.0214780222695304,1514.7514910443
-0.0304625503928908,1514.7614910443
-0.0396371272171914,1514.7714910443
-0.0489820573733595,1514.7814910443
-0.0583574139758008,1514.7914910443
-0.067702894307447,1514.8014910443
-0.0767445817812795,1514.8114910443
-0.0849311355294785,1514.8214910443
-0.0929711337751432,1514.8314910443
-0.101353292261629,1514.8414910443
-0.110546192305936,1514.8514910443
-0.120139131094666,1514.8614910443
-0.129772919349447,1514.8714910443
-0.139738304986957,1514.8814910443
-0.149679228968366,1514.8914910443
-0.159632803484986,1514.9014910443
-0.169411298284818,1514.9114910443
-0.178845480059426,1514.9214910443
-0.18761819813102,1514.9314910443
-0.196284925133097,1514.9414910443
-0.204659295447374,1514.9514910443
-0.212653153887948,1514.9614910443
-0.220697257700671,1514.9714910443
-0.228939941429887,1514.9814910443
-0.237147524319744,1514.9914910443
-0.245538521865051,1515.0014910443
-0.254075722484884,1515.0114910443
-0.262750136041852,1515.0214910443
-0.271304017882314,1515.0314910443
-0.279799821723027,1515.0414910443
-0.288420438168691,1515.0514910443
-0.296675921892886,1515.0614910443
-0.304529483879676,1515.0714910443
-0.311845794014038,1515.0814910443
-0.318774277705461,1515.0914910443
-0.325268840196918,1515.1014910443
-0.332018362563396,1515.1114910443
-0.339803157545455,1515.1214910443
-0.347118478143068,1515.1314910443
-0.354460272309072,1515.1414910443
-0.361584730000251,1515.1514910443
-0.368792408518755,1515.1614910443
-0.376111315046237,1515.1714910443
-0.383061671265429,1515.1814910443
-0.390695958902144,1515.1914910443
-0.399096453219144,1515.2014910443
-0.408244169126978,1515.2114910443
-0.417260143663175,1515.2214910443
-0.425461552854298,1515.2314910443
-0.432676810934235,1515.2414910443
-0.435676802697397,1515.2514910443
-0.431118001441313,1515.2614910443
-0.414015864658575,1515.2714910443
-0.382034352937306,1515.2814910443
-0.33523174091082,1515.2914910443
-0.276262649341082,1515.3014910443
-0.210057183111266,1515.3114910443
-0.142279143895639,1515.3214910443
-0.076661183265961,1515.3314910443
-0.016340939948371,1515.3414910443
0.0373174628222986,1515.3514910443
0.0836766575748359,1515.3614910443
0.122946448725394,1515.3714910443
0.155297288618143,1515.3814910443
0.181040874586357,1515.3914910443
0.200626536322837,1515.4014910443
0.214456560869698,1515.4114910443
0.224229262424144,1515.4214910443
0.230491811118987,1515.4314910443
0.234642802926598,1515.4414910443
0.237770526900566,1515.4514910443
0.240749949300472,1515.4614910443
0.243502027247357,1515.4714910443
0.246538289497116,1515.4814910443
0.250493748878872,1515.4914910443
0.254230427910571,1515.5014910443
0.257516634121924,1515.5114910443
0.25988628087003,1515.5214910443
0.259762436477842,1515.5314910443
0.256588337092361,1515.5414910443
0.250818322481313,1515.5514910443
0.242190412163751,1515.5614910443
0.232452394589218,1515.5714910443
0.222969765048229,1515.5814910443
0.214030682540746,1515.5914910443
0.207303669263888,1515.6014910443
0.202244537614969,1515.6114910443
0.198427089741931,1515.6214910443
0.196003257244388,1515.6314910443
0.194305812693711,1515.6414910443
0.193912857036039,1515.6514910443
0.195348680019557,1515.6614910443
0.197465681023065,1515.6714910443
0.200046535520746,1515.6814910443
0.202902530858428,1515.6914910443
0.204854903643483,1515.7014910443
0.206123446844011,1515.7114910443
0.206352096288235,1515.7214910443
0.205190569772256,1515.7314910443
0.202697841361721,1515.7414910443
0.198192590569676,1515.7514910443
0.192312726891008,1515.7614910443
0.185158505820012,1515.7714910443
0.177178080586934,1515.7814910443
0.168228137075112,1515.7914910443
0.158315815271496,1515.8014910443
0.148162585924872,1515.8114910443
0.137627530779757,1515.8214910443
0.126658541521242,1515.8314910443
0.115761019943871,1515.8414910443
0.104969905157857,1515.8514910443
0.0941153494866852,1515.8614910443
0.0834548803129383,1515.8714910443
0.0731009468705827,1515.8814910443
0.0634355690448272,1515.8914910443
0.0535261443774806,1515.9014910443
0.0440225632992228,1515.9114910443
0.0343881440902579,1515.9214910443
0.0250001320903101,1515.9314910443
0.0159957596738504,1515.9414910443
0.00722755805351527,1515.9514910443
-0.00125865522399367,1515.9614910443
-0.0095520047931485,1515.9714910443
-0.0179784431341542,1515.9814910443
-0.0267646461285753,1515.9914910443
-0.0364416570729727,1516.0014910443
-0.0459673731478073,1516.0114910443
-0.055494406018879,1516.0214910443
-0.0650135846205846,1516.0314910443
-0.0743226139733738,1516.0414910443
-0.083317385249464,1516.0514910443
-0.0923089447201187,1516.0614910443
-0.101156057712526,1516.0714910443
-0.110099601832589,1516.0814910443
-0.118995997775932,1516.0914910443
-0.128579214780113,1516.1014910443
-0.138024333505049,1516.1114910443
-0.148130564132545,1516.1214910443
-0.157550453146979,1516.1314910443
-0.166450532352474,1516.1414910443
-0.175339555014429,1516.1514910443
-0.183463348919943,1516.1614910443
-0.191329319906523,1516.1714910443
-0.198926586868741,1516.1814910443
-0.206549484531019,1516.1914910443
-0.214155721542078,1516.2014910443
-0.22174946421846,1516.2114910443
-0.229400984779722,1516.2214910443
-0.237934111900035,1516.2314910443
-0.246348373959171,1516.2414910443
-0.254894375493025,1516.2514910443
-0.263563238079806,1516.2614910443
-0.272224582329402,1516.2714910443
-0.280461980355235,1516.2814910443
-0.288205621427539,1516.2914910443
-0.295923611821565,1516.3014910443
-0.302767666589171,1516.3114910443
-0.309618173357044,1516.3214910443
-0.316066224302403,1516.3314910443
-0.322693451804783,1516.3414910443
-0.329919283375143,1516.3514910443
-0.3371252801298,1516.3614910443
-0.344805786213882,1516.3714910443
-0.352469887734036,1516.3814910443
-0.359853066242719,1516.3914910443
-0.367307401445966,1516.4014910443
-0.375348416963387,1516.4114910443
-0.382979113721768,1516.4214910443
-0.390145082760827,1516.4314910443
-0.393632854481026,1516.4414910443
-0.388253479934782,1516.4514910443
-0.370098363496242,1516.4614910443
-0.336604990555082,1516.4714910443
-0.288346358070189,1516.4814910443
-0.228796721032893,1516.4914910443
-0.163894863447082,1516.5014910443
-0.0971745786605172,1516.5114910443
-0.0330293382031694,1516.5214910443
0.0260178649082103,1516.5314910443
0.078299441646664,1516.5414910443
0.122525653781404,1516.5514910443
0.159113262142548,1516.5614910443
0.188296232038424,1516.5714910443
0.211462369645975,1516.5814910443
0.22862336617056,1516.5914910443
0.241151343422242,1516.6014910443
0.249643322385599,1516.6114910443
0.254982423319218,1516.6214910443
0.258002048909059,1516.6314910443
0.260226970384875,1516.6414910443
0.262056645386055,1516.6514910443
0.263803515389826,1516.6614910443
0.265651893389619,1516.6714910443
0.267814775543669,1516.6814910443
0.270285786491745,1516.6914910443
0.271999903833725,1516.7014910443
0.272316289089847,1516.7114910443
0.27075147450042,1516.7214910443
0.26618056407904,1516.7314910443
0.259303252359978,1516.7414910443
0.250632310888248,1516.7514910443
0.24125774080823,1516.7614910443
0.232267974648041,1516.7714910443
0.224919787826978,1516.7814910443
0.219782665601421,1516.7914910443
0.216687554611877,1516.8014910443
0.215606126291902,1516.8114910443
0.216196268641481,1516.8214910443
0.217809806579496,1516.8314910443
0.220326917157008,1516.8414910443
0.223450482745188,1516.8514910443
0.226856634105119,1516.8614910443
0.229661580234429,1516.8714910443
0.231689148314159,1516.8814910443
0.233437472445487,1516.8914910443
0.234806926291213,1516.9014910443
0.234141630564616,1516.9114910443
0.232111308514472,1516.9214910443
0.228655586631222,1516.9314910443
0.223258003092498,1516.9414910443
0.217157579697038,1516.9514910443
0.210171826039622,1516.9614910443
0.201887763756602,1516.9714910443
0.192219518047398,1516.9814910443
0.181510075607502,1516.9914910443
0.170031241186883,1517.0014910443
0.158105510844659,1517.0114910443
0.146567748590323,1517.0214910443
0.134991621602797,1517.0314910443
0.123188589983735,1517.0414910443
0.111811330075693,1517.0514910443
0.1004989867755,1517.0614910443
0.0904681949967215,1517.0714910443
0.0813477149155022,1517.0814910443
0.072749866047579,1517.0914910443
0.0640156826351336,1517.1014910443
0.0557584736271617,1517.1114910443
0.0469302441688312,1517.1214910443
0.0376058729083586,1517.1314910443
0.0277521862911132,1517.1414910443
0.0187102552137912,1517.1514910443
0.00997027117516281,1517.1614910443
0.00162552976230171,1517.1714910443
-0.00638641485137787,1517.1814910443
-0.0144630258063424,1517.1914910443
-0.0231174862813349,1517.2014910443
-0.0317390384805736,1517.2114910443
-0.0411351839604783,1517.2214910443
-0.0506878771832567,1517.2314910443
-0.0598305866233699,1517.2414910443
-0.0684716014345526,1517.2514910443
-0.0771382596426395,1517.2614910443
-0.0855380279675703,1517.2714910443
-0.0940113278258451,1517.2814910443
-0.102211763623743,1517.2914910443
-0.110125078332976,1517.3014910443
-0.117725165603476,1517.3114910443
-0.125866493451682,1517.3214910443
-0.134033894690224,1517.3314910443
-0.142155751952654,1517.3414910443
-0.150152768181225,1517.3514910443
-0.158429356538601,1517.3614910443
-0.166659792246258,1517.3714910443
-0.175220224815132,1517.3814910443
-0.183819049174292,1517.3914910443
-0.19216478253714,1517.4014910443
-0.200289829297776,1517.4114910443
-0.207452578031167,1517.4214910443
-0.214344246707501,1517.4314910443
-0.221797389440931,1517.4414910443
-0.228762237420231,1517.4514910443
-0.235900405683654,1517.4614910443
-0.242619212450427,1517.4714910443
-0.249333955837197,1517.4814910443
-0.255309798628138,1517.4914910443
-0.261743577351235,1517.5014910443
-0.268364920968935,1517.5114910443
-0.275011779771604,1517.5214910443
-0.282256891131793,1517.5314910443
-0.289918806780214,1517.5414910443
-0.298370574565489,1517.5514910443
-0.307641804993809,1517.5614910443
-0.317017203532532,1517.5714910443
-0.326028307521845,1517.5814910443
-0.333543658251779,1517.5914910443
-0.337535208361822,1517.6014910443
-0.334344391865642,1517.6114910443
-0.320279654386262,1517.6214910443
-0.291865407699422,1517.6314910443
-0.249145972611416,1517.6414910443
-0.194183048022906,1517.6514910443
-0.132729768775272,1517.6614910443
-0.0690535119539256,1517.6714910443
-0.0070195101058442,1517.6814910443
0.0498271364893921,1517.6914910443
0.100580969971665,1517.7014910443
0.144380840782324,1517.7114910443
0.181090323441624,1517.7214910443
0.210560857433935,1517.7314910443
0.233098349101317,1517.7414910443
0.249487953549172,1517.7514910443
0.259713429601871,1517.7614910443
0.265366797248723,1517.7714910443
0.267667596523477,1517.7814910443
0.268336422319473,1517.7914910443
0.267411706007702,1517.8014910443
0.265773532736119,1517.8114910443
0.264276485147286,1517.8214910443
0.262822857375181,1517.8314910443
0.261677376728287,1517.8414910443
0.260632981937543,1517.8514910443
0.258448161918023,1517.8614910443
0.255004406757719,1517.8714910443
0.249971522051028,1517.8814910443
0.243338797746349,1517.8914910443
0.234958637279749,1517.9014910443
0.225765681980277,1517.9114910443
0.217009974691161,1517.9214910443
0.20923075792003,1517.9314910443
0.203367822782116,1517.9414910443
0.199985500125491,1517.9514910443
0.199536330272127,1517.9614910443
0.20120039111689,1517.9714910443
0.204474355961805,1517.9814910443
0.208903295796621,1517.9914910443
0.213594646181088,1518.0014910443
0.219338975415985,1518.0114910443
0.224393194880743,1518.0214910443
0.228042732663467,1518.0314910443
0.23027127038605,1518.0414910443
0.230675053904269,1518.0514910443
0.230069133620898,1518.0614910443
0.227713040395754,1518.0714910443
0.224263553652573,1518.0814910443
0.219395929789302,1518.0914910443
0.213877045251067,1518.1014910443
0.207075260357767,1518.1114910443
0.199422862476105,1518.1214910443
0.190410881643594,1518.1314910443
0.180320636430146,1518.1414910443
0.169680619348388,1518.1514910443
0.15932334222361,1518.1614910443
0.148872106269029,1518.1714910443
0.138882565094952,1518.1814910443
0.128824779402966,1518.1914910443
0.119137363163035,1518.2014910443
0.10897062245893,1518.2114910443
0.0992098534513139,1518.2214910443
0.0894584363545223,1518.2314910443
0.07988442103468,1518.2414910443
0.0710147011163929,1518.2514910443
0.0618195749666829,1518.2614910443
0.053283963746444,1518.2714910443
0.0450821900506957,1518.2814910443
0.0370398015352085,1518.2914910443
0.0285712159731848,1518.3014910443
0.019980221018056,1518.3114910443
0.0109101754072151,1518.3214910443
0.001859084063313,1518.3314910443
-0.00622482632834593,1518.3414910443
-0.0144875301059467,1518.3514910443
-0.0229554524035127,1518.3614910443
-0.0314894020702919,1518.3714910443
-0.0400929870576636,1518.3814910443
-0.0491200057651963,1518.3914910443
-0.0578236730991915,1518.4014910443
-0.066231161662468,1518.4114910443
-0.0744014637890256,1518.4214910443
-0.0822348853412263,1518.4314910443
-0.0902232861099634,1518.4414910443
-0.0982676045247054,1518.4514910443
-0.106487663322418,1518.4614910443
-0.114129216860794,1518.4714910443
-0.122332898549937,1518.4814910443
-0.130427212847348,1518.4914910443
-0.138120269826279,1518.5014910443
-0.146232423397152,1518.5114910443
-0.153709665893182,1518.5214910443
-0.161481290493219,1518.5314910443
-0.169354450854598,1518.5414910443
-0.176443111285274,1518.5514910443
-0.183926988833348,1518.5614910443
-0.191381790113317,1518.5714910443
-0.198851856772179,1518.5814910443
-0.206771404761637,1518.5914910443
-0.214246710187306,1518.6014910443
-0.221715667119968,1518.6114910443
-0.229237094339576,1518.6214910443
-0.236513887115416,1518.6314910443
-0.244136600166529,1518.6414910443
-0.251749791384808,1518.6514910443
-0.258975115751623,1518.6614910443
-0.266025342792396,1518.6714910443
-0.273006612981015,1518.6814910443
-0.280519168759951,1518.6914910443
-0.288573219833123,1518.7014910443
-0.296106935364068,1518.7114910443
-0.301487785437681,1518.7214910443
-0.300089243078806,1518.7314910443
-0.287141776162697,1518.7414910443
-0.259777116159392,1518.7514910443
-0.217339428802742,1518.7614910443
-0.162654166014497,1518.7714910443
-0.100108976954308,1518.7814910443
-0.03475367149443,1518.7914910443
0.0295708008011772,1518.8014910443
0.0896568639121035,1518.8114910443
0.144089171949955,1518.8214910443
0.192312095568672,1518.8314910443
0.233383714950004,1518.8414910443
0.26763892267613,1518.8514910443
0.295396270276033,1518.8614910443
0.317479646506049,1518.8714910443
0.334220546436403,1518.8814910443
0.346097021918061,1518.8914910443
0.354549414263601,1518.9014910443
0.360392604595041,1518.9114910443
0.364716722251029,1518.9214910443
0.368578491616704,1518.9314910443
0.372333501636771,1518.9414910443
0.376586932382151,1518.9514910443
0.38123900310335,1518.9614910443
0.38544515804547,1518.9714910443
0.389727032991723,1518.9814910443
0.392069717200494,1518.9914910443
0.39132550146741,1519.0014910443
0.38735395653706,1519.0114910443
0.380613932852129,1519.0214910443
0.371077078000986,1519.0314910443
0.360600972103297,1519.0414910443
0.349662038385344,1519.0514910443
0.340156922243854,1519.0614910443
0.332039954719802,1519.0714910443
0.32649714643919,1519.0814910443
0.322827493615392,1519.0914910443
0.32078423578147,1519.1014910443
0.320146581671711,1519.1114910443
0.321008440016905,1519.1214910443
0.322929090907378,1519.1314910443
0.325997353717285,1519.1414910443
0.329143435360651,1519.1514910443
0.33229345554366,1519.1614910443
0.334631055041416,1519.1714910443
0.335180407605926,1519.1814910443
0.334603248517396,1519.1914910443
0.332444827788258,1519.2014910443
0.328887345507386,1519.2114910443
0.324272562844605,1519.2214910443
0.318210842808403,1519.2314910443
0.310687649299665,1519.2414910443
0.301976551165338,1519.2514910443
0.291925595763665,1519.2614910443
0.281048584797951,1519.2714910443
0.269490967416992,1519.2814910443
0.257513702399873,1519.2914910443
0.244921302107593,1519.3014910443
0.232263905594991,1519.3114910443
0.219934167393739,1519.3214910443
0.207724772865476,1519.3314910443
0.195735191349296,1519.3414910443
0.184203584165322,1519.3514910443
0.172903601901419,1519.3614910443
0.161785715089419,1519.3714910443
0.150746147782121,1519.3814910443
0.140669627809816,1519.3914910443
0.131127035116706,1519.4014910443
0.122059881283923,1519.4114910443
0.113278943039736,1519.4214910443
0.104523351962238,1519.4314910443
0.0957070340760718,1519.4414910443
0.0866751513275308,1519.4514910443
0.0773730044687035,1519.4614910443
0.0675818933572626,1519.4714910443
0.0581905636044069,1519.4814910443
0.0487648945821913,1519.4914910443
0.0394250493330732,1519.5014910443
0.0299304002299893,1519.5114910443
0.0199595379995514,1519.5214910443
0.0100574450673901,1519.5314910443
0.000745233869517309,1519.5414910443
-0.00793352935424539,1519.5514910443
-0.0162162586414159,1519.5614910443
-0.0243126018312464,1519.5714910443
-0.0331521720351273,1519.5814910443
-0.0422058977476191,1519.5914910443
-0.0518321018590846,1519.6014910443
-0.0615028841281273,1519.6114910443
-0.0710735024130236,1519.6214910443
-0.0804554285088513,1519.6314910443
-0.0895942433877771,1519.6414910443
-0.098712704675172,1519.6514910443
-0.107551247751487,1519.6614910443
-0.116560792876239,1519.6714910443
-0.12517363157885,1519.6814910443
-0.133547802181055,1519.6914910443
-0.14144330458947,1519.7014910443
-0.149471280902465,1519.7114910443
-0.157837444888036,1519.7214910443
-0.166681871801495,1519.7314910443
-0.175123944594522,1519.7414910443
-0.183712212598923,1519.7514910443
-0.191581195571434,1519.7614910443
-0.199258002164997,1519.7714910443
-0.20751479816437,1519.7814910443
-0.215172601976573,1519.7914910443
-0.223204098886296,1519.8014910443
-0.231331378543705,1519.8114910443
-0.24005780378485,1519.8214910443
-0.248466298772795,1519.8314910443
-0.256105598696503,1519.8414910443
-0.264203788034779,1519.8514910443
-0.271942933140478,1519.8614910443
-0.279846853656612,1519.8714910443
-0.287292229345312,1519.8814910443
-0.29483884898594,1519.8914910443
-0.302654263124112,1519.9014910443
-0.310815902828874,1519.9114910443
-0.320346020630298,1519.9214910443
-0.329691825824032,1519.9314910443
-0.337078883673075,1519.9414910443
-0.339223493494815,1519.9514910443
-0.331007483983027,1519.9614910443
-0.30857237566193,1519.9714910443
-0.26937130603001,1519.9814910443
-0.214955950885371,1519.9914910443
-0.150288864567561,1520.0014910443
-0.0805068537126153,1520.0114910443
-0.0108177769449847,1520.0214910443
0.0551628362413466,1520.0314910443
0.115114483718837,1520.0414910443
0.167906397860201,1520.0514910443
0.213210442387714,1520.0614910443
0.250832051968521,1520.0714910443
0.280586513718748,1520.0814910443
0.303443647317891,1520.0914910443
0.320387793641461,1520.1014910443
0.332445114377636,1520.1114910443
0.340800070023076,1520.1214910443
0.346144452141295,1520.1314910443
0.349658928216628,1520.1414910443
0.352105674110525,1520.1514910443
0.354497886251974,1520.1614910443
0.3567181162047,1520.1714910443
0.360265351173542,1520.1814910443
0.364100617856131,1520.1914910443
0.368581163572979,1520.2014910443
0.372000857572451,1520.2114910443
0.373828017966507,1520.2214910443
0.372835510825082,1520.2314910443
0.368779122674293,1520.2414910443
0.362358179233017,1520.2514910443
0.353662344765,1520.2614910443
0.344290449465251,1520.2714910443
0.335403816059942,1520.2814910443
0.327984815127778,1520.2914910443
0.322011875932933,1520.3014910443
0.318012479543651,1520.3114910443
0.316034940314306,1520.3214910443
0.315143126224744,1520.3314910443
0.316324982238367,1520.3414910443
0.318962542104401,1520.3514910443
0.322452036487355,1520.3614910443
0.325040571313029,1520.3714910443
0.327069259372424,1520.3814910443
0.328144552826742,1520.3914910443
0.327705564756704,1520.4014910443
0.326412622735784,1520.4114910443
0.324318736217218,1520.4214910443
0.321704839306328,1520.4314910443
0.317846993614227,1520.4414910443
0.312985120036067,1520.4514910443
0.306182665171271,1520.4614910443
0.298288850266902,1520.4714910443
0.288974417769636,1520.4814910443
0.278626305633161,1520.4914910443
0.267829211853318,1520.5014910443
0.256515845170405,1520.5114910443
0.24524780542075,1520.5214910443
0.233499623602574,1520.5314910443
0.221187313705573,1520.5414910443
0.209017271490954,1520.5514910443
0.196841233035214,1520.5614910443
0.185454471640789,1520.5714910443
0.17416844729241,1520.5814910443
0.162563351095659,1520.5914910443
0.151579949300589,1520.6014910443
0.141010771110809,1520.6114910443
0.130727943517864,1520.6214910443
0.120667794936524,1520.6314910443
0.111155849486058,1520.6414910443
0.102105540498986,1520.6514910443
0.0936297734129702,1520.6614910443
0.0847885950857194,1520.6714910443
0.075718400978262,1520.6814910443
0.0656475848455261,1520.6914910443
0.0554193358823622,1520.7014910443
0.0450153009768198,1520.7114910443
0.0351064587322447,1520.7214910443
0.026008971998769,1520.7314910443
0.0171608632100978,1520.7414910443
0.00842359322897015,1520.7514910443
-0.000436738595860028,1520.7614910443
-0.00965286247933533,1520.7714910443
-0.019728001054624,1520.7814910443
-0.0303398716767854,1520.7914910443
-0.0405746782524983,1520.8014910443
-0.0503966428256679,1520.8114910443
-0.0597488374345891,1520.8214910443
-0.0683429764007654,1520.8314910443
-0.0767361304703107,1520.8414910443
-0.0848563682212787,1520.8514910443
-0.0930476121020862,1520.8614910443
-0.101788233817679,1520.8714910443
-0.110135964563188,1520.8814910443
-0.119008314294706,1520.8914910443
-0.127544960423981,1520.9014910443
-0.136036707196226,1520.9114910443
-0.143853246220611,1520.9214910443
-0.151281500259306,1520.9314910443
-0.158736298441892,1520.9414910443
-0.165699790136103,1520.9514910443
-0.173065291533557,1520.9614910443
-0.180847530541025,1520.9714910443
-0.188696280072672,1520.9814910443
-0.196568484081814,1520.9914910443
-0.203884611485065,1521.0014910443
-0.211372999026957,1521.0114910443
-0.218337154492597,1521.0214910443
-0.226031994856653,1521.0314910443
-0.233545596694409,1521.0414910443
-0.241459884344759,1521.0514910443
-0.249981651016539,1521.0614910443
-0.25870264621842,1521.0714910443
-0.267991986360925,1521.0814910443
-0.276910227459621,1521.0914910443
-0.284434899097303,1521.1014910443
-0.288914734140466,1521.1114910443
-0.286647962632635,1521.1214910443
-0.272429815672187,1521.1314910443
-0.242972637701931,1521.1414910443
-0.198750802693365,1521.1514910443
-0.142645081523098,1521.1614910443
-0.0796323555399049,1521.1714910443
-0.0144582029027728,1521.1814910443
0.0494277968959392,1521.1914910443
0.107834526087389,1521.2014910443
0.159476126094315,1521.2114910443
0.20351162317624,1521.2214910443
0.239304266037,1521.2314910443
0.26713543928311,1521.2414910443
0.287769027181311,1521.2514910443
0.302265130534812,1521.2614910443
0.311599305135679,1521.2714910443
0.317365582018844,1521.2814910443
0.319151906896435,1521.2914910443
0.318468275298086,1521.3014910443
0.316311811842684,1521.3114910443
0.31329471622866,1521.3214910443
0.310111972567507,1521.3314910443
0.307587563813145,1521.3414910443
0.305142064857682,1521.3514910443
0.302179215720688,1521.3614910443
0.29830026424924,1521.3714910443
0.292565068267995,1521.3814910443
0.284852430040584,1521.3914910443
0.275670480460599,1521.4014910443
0.265338807400999,1521.4114910443
0.255307064413337,1521.4214910443
0.246356467097268,1521.4314910443
0.239473556709322,1521.4414910443
0.235120262661268,1521.4514910443
0.233660660125389,1521.4614910443
0.233904356430375,1521.4714910443
0.23649894819736,1521.4814910443
0.239989690037976,1521.4914910443
0.244775254096032,1521.5014910443
0.250380345506549,1521.5114910443
0.255901838135409,1521.5214910443
0.260698234773123,1521.5314910443
0.264659981799957,1521.5414910443
0.267143955678803,1521.5514910443
0.268051078374901,1521.5614910443
0.266919119774055,1521.5714910443
0.263697862834196,1521.5814910443
0.258949380091067,1521.5914910443
0.252687770469561,1521.6014910443
0.24528320070505,1521.6114910443
0.236959669174319,1521.6214910443
0.228106337536601,1521.6314910443
0.218786271064729,1521.6414910443
0.208147190982135,1521.6514910443
0.19724889342312,1521.6614910443
0.18550973074096,1521.6714910443
0.173720969791955,1521.6814910443
0.162545314872133,1521.6914910443
0.151634824586807,1521.7014910443
0.140894535725465,1521.7114910443
0.130860976294907,1521.7214910443
0.121272375698422,1521.7314910443
0.112272036950242,1521.7414910443
0.10365834466693,1521.7514910443
0.0947540433673953,1521.7614910443
0.0859200990407905,1521.7714910443
0.0770933693964284,1521.7814910443
0.0676712646844912,1521.7914910443
0.0579906935785648,1521.8014910443
0.0485479238450057,1521.8114910443
0.0394344289588751,1521.8214910443
0.0301551473099724,1521.8314910443
0.0212891906806946,1521.8414910443
0.0122937397794003,1521.8514910443
0.00370838142579151,1521.8614910443
-0.00417144757507932,1521.8714910443
-0.0120955767504175,1521.8814910443
-0.0205527176019171,1521.8914910443
-0.0292468363676083,1521.9014910443
-0.0381958564240909,1521.9114910443
-0.0472484255278331,1521.9214910443
-0.0557696966789731,1521.9314910443
-0.0647533400111961,1521.9414910443
-0.0740830039471378,1521.9514910443
-0.0837380527791974,1521.9614910443
-0.0926514359673779,1521.9714910443
-0.101176943423012,1521.9814910443
-0.109016015931044,1521.9914910443
-0.116584017731276,1522.0014910443
-0.1238871133807,1522.0114910443
-0.131110891227538,1522.0214910443
-0.138822406159552,1522.0314910443
-0.146218964796684,1522.0414910443
-0.153436355833641,1522.0514910443
-0.159977967669205,1522.0614910443
-0.167136016106359,1522.0714910443
-0.174473687660254,1522.0814910443
-0.182245044833986,1522.0914910443
-0.189836588297653,1522.1014910443
-0.197932204709827,1522.1114910443
-0.206526058208879,1522.1214910443
-0.215467619668002,1522.1314910443
-0.223633462376972,1522.1414910443
-0.229909642831255,1522.1514910443
-0.23207853396312,1522.1614910443
-0.225808577930648,1522.1714910443
-0.207885247158721,1522.1814910443
-0.175304630781908,1522.1914910443
-0.128974424449885,1522.2014910443
-0.0720300647718859,1522.2114910443
-0.00851328838132232,1522.2214910443
0.0565116589428376,1522.2314910443
0.119892482321044,1522.2414910443
0.179082978694832,1522.2514910443
0.231479074074333,1522.2614910443
0.276270362161923,1522.2714910443
0.31375294604567,1522.2814910443
0.343011974113229,1522.2914910443
0.365875938244634,1522.3014910443
0.382280446520169,1522.3114910443
0.393512400102627,1522.3214910443
0.40039271021847,1522.3314910443
0.404213656153654,1522.3414910443
0.406765156611457,1522.3514910443
0.409306266332542,1522.3614910443
0.412290292184099,1522.3714910443
0.415873792503255,1522.3814910443
0.419842445911566,1522.3914910443
0.423656643195402,1522.4014910443
0.426571546253647,1522.4114910443
0.427704736889809,1522.4214910443
0.426118691224693,1522.4314910443
0.421314147595548,1522.4414910443
0.413413043353927,1522.4514910443
0.403519087965735,1522.4614910443
0.392113375822664,1522.4714910443
0.379982754098253,1522.4814910443
0.36910701963361,1522.4914910443
0.359467826405174,1522.5014910443
0.352680230653947,1522.5114910443
0.347589726951349,1522.5214910443
0.345507461750793,1522.5314910443
0.34522414118149,1522.5414910443
0.346654383220319,1522.5514910443
0.349123678922781,1522.5614910443
0.351770130489178,1522.5714910443
0.354262211851577,1522.5814910443
0.355390377079719,1522.5914910443
0.355702240938733,1522.6014910443
0.354952747945966,1522.6114910443
0.35339497443433,1522.6214910443
0.350222591776407,1522.6314910443
0.345970984526617,1522.6414910443
0.340363341513219,1522.6514910443
0.333130490489751,1522.6614910443
0.32512912704791,1522.6714910443
0.316272624153315,1522.6814910443
0.307125148193553,1522.6914910443
0.296926578381488,1522.7014910443
0.285517530029374,1522.7114910443
0.273255548943125,1522.7214910443
0.259886692701448,1522.7314910443
0.245877859501651,1522.7414910443
0.23202725173527,1522.7514910443
0.218886343554491,1522.7614910443
0.206198528025557,1522.7714910443
0.194342834105192,1522.7814910443
0.182920947224684,1522.7914910443
0.172254585972148,1522.8014910443
0.161973432659443,1522.8114910443
0.152173874486346,1522.8214910443
0.142587743673895,1522.8314910443
0.133292110505735,1522.8414910443
0.124146550030054,1522.8514910443
0.114731604574769,1522.8614910443
0.10506339198185,1522.8714910443
0.0946168232405276,1522.8814910443
0.0835883108868456,1522.8914910443
0.0727785525265545,1522.9014910443
0.0624209503943801,1522.9114910443
0.052616561008206,1522.9214910443
0.042851149436695,1522.9314910443
0.0333235100485389,1522.9414910443
0.0231489955501491,1522.9514910443
0.0132264947965088,1522.9614910443
0.00255756431557193,1522.9714910443
-0.00778667984210135,1522.9814910443
-0.0179190432536586,1522.9914910443
-0.0275835395335065,1523.0014910443
-0.0371615867413094,1523.0114910443
-0.0466663566314999,1523.0214910443
-0.0560187696170937,1523.0314910443
-0.065856951738917,1523.0414910443
-0.0756392063940208,1523.0514910443
-0.0850144814783043,1523.0614910443
-0.0945603689655895,1523.0714910443
-0.103832607064568,1523.0814910443
-0.112665122844148,1523.0914910443
-0.121395914286205,1523.1014910443
-0.130101340267677,1523.1114910443
-0.138279550627365,1523.1214910443
-0.146004053806509,1523.1314910443
-0.153584563545414,1523.1414910443
-0.161106134894437,1523.1514910443
-0.168909739567814,1523.1614910443
-0.177320662680367,1523.1714910443
-0.1853411567208,1523.1814910443
-0.193023623579552,1523.1914910443
-0.200357155447495,1523.2014910443
-0.207619986924701,1523.2114910443
-0.214781191601282,1523.2214910443
-0.221732902834847,1523.2314910443
-0.229085615021148,1523.2414910443
-0.237311600004503,1523.2514910443
-0.245901446259404,1523.2614910443
-0.255323582195373,1523.2714910443
-0.264985764434919,1523.2814910443
-0.275082020603606,1523.2914910443
-0.284719296940839,1523.3014910443
-0.292777372599591,1523.3114910443
-0.29760949303307,1523.3214910443
-0.295548963448759,1523.3314910443
-0.28175757352611,1523.3414910443
-0.252519101763994,1523.3514910443
-0.207563071688883,1523.3614910443
-0.148434792010717,1523.3714910443
-0.080525487475617,1523.3814910443
-0.00914333337578435,1523.3914910443
0.0613837041747543,1523.4014910443
0.12762526527061,1523.4114910443
0.186886008796181,1523.4214910443
0.23854920755793,1523.4314910443
0.282019771691273,1523.4414910443
0.318413551519055,1523.4514910443
0.347593426640949,1523.4614910443
0.370735940196557,1523.4714910443
0.388639737461007,1523.4814910443
0.401233144227677,1523.4914910443
0.410648938367777,1523.5014910443
0.41749697751572,1523.5114910443
0.422816430894472,1523.5214910443
0.427809274821863,1523.5314910443
0.432719201743558,1523.5414910443
0.438374273607591,1523.5514910443
0.443762992242012,1523.5614910443
0.449283292336709,1523.5714910443
0.453976195253338,1523.5814910443
0.456269632277083,1523.5914910443
0.455612392510238,1523.6014910443
0.452134639665235,1523.6114910443
0.445767103202197,1523.6214910443
0.437789659323098,1523.6314910443
0.428862108490797,1523.6414910443
0.419237530539426,1523.6514910443
0.410035821138574,1523.6614910443
0.402128654523568,1523.6714910443
0.395914138111164,1523.6814910443
0.391247940741318,1523.6914910443
0.387927817862987,1523.7014910443
0.386469464737905,1523.7114910443
0.385756230627708,1523.7214910443
0.386213931391095,1523.7314910443
0.387663703056492,1523.7414910443
0.38978763482891,1523.7514910443
0.392207233228902,1523.7614910443
0.393578753068374,1523.7714910443
0.393983259943798,1523.7814910443
0.392642269737206,1523.7914910443
0.389678322263891,1523.8014910443
0.384613133292844,1523.8114910443
0.378728671444406,1523.8214910443
0.371878632622911,1523.8314910443
0.364346508869813,1523.8414910443
0.355765715987978,1523.8514910443
0.346037438760662,1523.8614910443
0.334692648976472,1523.8714910443
0.323117282143355,1523.8814910443
0.311263990146293,1523.8914910443
0.299437009462009,1523.9014910443
0.288333320957876,1523.9114910443
0.27718147721177,1523.9214910443
0.266194273569913,1523.9314910443
0.255215903898061,1523.9414910443
0.243709992951886,1523.9514910443
0.232471768715741,1523.9614910443
0.221727264920869,1523.9714910443
0.21181243166166,1523.9814910443
0.202352557864163,1523.9914910443
0.193211577945411,1524.0014910443
0.18400831324417,1524.0114910443
0.174238366856477,1524.0214910443
0.164703390574567,1524.0314910443
0.154696852316281,1524.0414910443
0.145008096553094,1524.0514910443
0.135704957964952,1524.0614910443
0.126796006704307,1524.0714910443
0.118071064363363,1524.0814910443
0.108591641356441,1524.0914910443
0.099703244288227,1524.1014910443
0.0903187209565599,1524.1114910443
0.0812208075894341,1524.1214910443
0.0721606072258878,1524.1314910443
0.0630553122570805,1524.1414910443
0.0539663566692948,1524.1514910443
0.0445264858344322,1524.1614910443
0.0351887277474851,1524.1714910443
0.0261893646746744,1524.1814910443
0.0175263960257282,1524.1914910443
0.00886138723520928,1524.2014910443
-9.28801014231696e-05,1524.2114910443
-0.00892737663788106,1524.2214910443
-0.0181104904652258,1524.2314910443
-0.0270053212867197,1524.2414910443
-0.0353511987942982,1524.2514910443
-0.0436340958714934,1524.2614910443
-0.0523887621374423,1524.2714910443
-0.0619284410611508,1524.2814910443
-0.0714949688342651,1524.2914910443
-0.0810920673029822,1524.3014910443
-0.089876428434375,1524.3114910443
-0.0985126931704275,1524.3214910443
-0.106219331940425,1524.3314910443
-0.113386661439525,1524.3414910443
-0.119855722997871,1524.3514910443
-0.126116276796063,1524.3614910443
-0.131785524458716,1524.3714910443
-0.137596700636695,1524.3814910443
-0.143985691187005,1524.3914910443
-0.150349664732068,1524.4014910443
-0.157588247166943,1524.4114910443
-0.16579064023254,1524.4214910443
-0.17453526741575,1524.4314910443
-0.183654576811149,1524.4414910443
-0.193111351913603,1524.4514910443
-0.202238112581902,1524.4614910443
-0.209693087225738,1524.4714910443
-0.212800067226365,1524.4814910443
-0.207715274118429,1524.4914910443
-0.190563214520432,1524.5014910443
-0.158702700772292,1524.5114910443
-0.111756601594489,1524.5214910443
-0.0517033010901118,1524.5314910443
0.0171789002303292,1524.5414910443
0.0898128722206843,1524.5514910443
0.161882840877684,1524.5614910443
0.229905986240719,1524.5714910443
0.29117268366528,1524.5814910443
0.344895688374594,1524.5914910443
0.389180538969114,1524.6014910443
0.425135926682752,1524.6114910443
0.452776395180394,1524.6214910443
0.473519136990577,1524.6314910443
0.488237522256255,1524.6414910443
0.498519715260657,1524.6514910443
0.50575986626521,1524.6614910443
0.511391548557364,1524.6714910443
0.51594755640022,1524.6814910443
0.52061533747095,1524.6914910443
0.525235222214071,1524.7014910443
0.529571207470148,1524.7114910443
0.533900975395636,1524.7214910443
0.537418790947784,1524.7314910443
0.540332800403177,1524.7414910443
0.540992754004151,1524.7514910443
0.539365512904717,1524.7614910443
0.534108581847822,1524.7714910443
0.525874159547675,1524.7814910443
0.515835627368014,1524.7914910443
0.504978727911408,1524.8014910443
0.494202886568902,1524.8114910443
0.485412036510443,1524.8214910443
0.477808604588924,1524.8314910443
0.472322408004187,1524.8414910443
0.468576286558257,1524.8514910443
0.466283363758379,1524.8614910443
0.465817364740312,1524.8714910443
0.46712089331233,1524.8814910443
0.469423617077793,1524.8914910443
0.472292060857247,1524.9014910443
0.474792770792721,1524.9114910443
0.476330259286453,1524.9214910443
0.476112415227547,1524.9314910443
0.474836447775386,1524.9414910443
0.472268863446476,1524.9514910443
0.468642838827603,1524.9614910443
0.463878398552155,1524.9714910443
0.457805893996379,1524.9814910443
0.450194838863684,1524.9914910443
0.441679549562806,1525.0014910443
0.431971763166018,1525.0114910443
0.421177677564011,1525.0214910443
0.409069789084097,1525.0314910443
0.396330351247011,1525.0414910443
0.382921972382913,1525.0514910443
0.369363759986688,1525.0614910443
0.355799029878693,1525.0714910443
0.342234411185511,1525.0814910443
0.329153541309572,1525.0914910443
0.316803520604229,1525.1014910443
0.304761090158537,1525.1114910443
0.293394488521582,1525.1214910443
0.28140311058313,1525.1314910443
0.270597424278316,1525.1414910443
0.25968289277603,1525.1514910443
0.249134653237746,1525.1614910443
0.239051888822472,1525.1714910443
0.228952651257084,1525.1814910443
0.219043124626582,1525.1914910443
0.209043854667441,1525.2014910443
0.198895779858403,1525.2114910443
0.188800310020238,1525.2214910443
0.178621990110472,1525.2314910443
0.168676116136442,1525.2414910443
0.158655526802305,1525.2514910443
0.148587991230895,1525.2614910443
0.138489885834575,1525.2714910443
0.128176538558455,1525.2814910443
0.118948101333053,1525.2914910443
0.110930328467054,1525.3014910443
0.103131912234373,1525.3114910443
0.0959553064750788,1525.3214910443
0.0887806772727649,1525.3314910443
0.081355253616325,1525.3414910443
0.0740749722365521,1525.3514910443
0.0660987758634033,1525.3614910443
0.0577534393650462,1525.3714910443
0.0487198612076518,1525.3814910443
0.0396226737446552,1525.3914910443
0.0303043606453888,1525.4014910443
0.0207092829404644,1525.4114910443
0.0109172034443929,1525.4214910443
0.00151050525129851,1525.4314910443
-0.00749694757973932,1525.4414910443
-0.013828617181915,1525.4514910443
-0.0144613320316563,1525.4614910443
-0.00500656046745672,1525.4714910443
0.0179331296564624,1525.4814910443
0.056384906755111,1525.4914910443
0.109087232906018,1525.5014910443
0.173664880941285,1525.5114910443
0.245269563332514,1525.5214910443
0.318451041579154,1525.5314910443
0.389226645036335,1525.5414910443
0.453818692012691,1525.5514910443
0.509992148810657,1525.5614910443
0.555369772952818,1525.5714910443
0.591245471987893,1525.5814910443
0.618220322024057,1525.5914910443
0.6376036309584,1525.6014910443
0.65098835167028,1525.6114910443
0.660330656387365,1525.6214910443
0.667150483827864,1525.6314910443
0.671982325110007,1525.6414910443
0.675848987055795,1525.6514910443
0.678701635460469,1525.6614910443
0.682011919056391,1525.6714910443
0.684807707949203,1525.6814910443
0.686780724352712,1525.6914910443
0.687686666772368,1525.7014910443
0.686688862633761,1525.7114910443
0.682750105042084,1525.7214910443
0.674894246205982,1525.7314910443
0.663585077715356,1525.7414910443
0.648992191412229,1525.7514910443
0.633015355436796,1525.7614910443
0.616714254948993,1525.7714910443
0.601533819016114,1525.7814910443
0.588508150975561,1525.7914910443
0.577672008613222,1525.8014910443
0.569719929136266,1525.8114910443
0.563843674736951,1525.8214910443
0.560746530539015,1525.8314910443
0.559738186947806,1525.8414910443
0.560196963301502,1525.8514910443
0.561291391241616,1525.8614910443
0.563036914487509,1525.8714910443
0.564399353790609,1525.8814910443
0.564864130395298,1525.8914910443
0.56456704224878,1525.9014910443
0.562785781928764,1525.9114910443
0.55924915848861,1525.9214910443
0.553745936715191,1525.9314910443
0.546355985435415,1525.9414910443
0.537115625514307,1525.9514910443
0.526862352937504,1525.9614910443
0.51499949644601,1525.9714910443
0.501813141961718,1525.9814910443
0.487826848541561,1525.9914910443
0.473204326070009,1526.0014910443
0.457873438863868,1526.0114910443
0.442706199458166,1526.0214910443
0.427981707390301,1526.0314910443
0.412693488524788,1526.0414910443
0.398182714538555,1526.0514910443
0.383640738011727,1526.0614910443
0.369389632412752,1526.0714910443
0.355338907018487,1526.0814910443
0.342141683277245,1526.0914910443
0.329756505665479,1526.1014910443
0.318659534411631,1526.1114910443
0.308180564133047,1526.1214910443
0.298377760475925,1526.1314910443
0.288507239630113,1526.1414910443
0.278244970948052,1526.1514910443
0.267573122924267,1526.1614910443
0.256916907566707,1526.1714910443
0.246252237627152,1526.1814910443
0.235288155179159,1526.1914910443
0.223576553477707,1526.2014910443
0.211592644767727,1526.2114910443
0.198685090547269,1526.2214910443
0.185845419836312,1526.2314910443
0.173338812774277,1526.2414910443
0.161645910450563,1526.2514910443
0.151524815727231,1526.2614910443
0.145564786662318,1526.2714910443
0.147005729161353,1526.2814910443
0.159026753165949,1526.2914910443
0.184157785321018,1526.3014910443
0.223640990514211,1526.3114910443
0.275190756652558,1526.3214910443
0.336048134446667,1526.3314910443
0.40152367064495,1526.3414910443
0.467648708451332,1526.3514910443
0.530322447168968,1526.3614910443
0.586518770727516,1526.3714910443
0.634134083599402,1526.3814910443
0.672624115961559,1526.3914910443
0.701729242120198,1526.4014910443
0.721718728448166,1526.4114910443
0.734560707093707,1526.4214910443
0.742458710273666,1526.4314910443
0.746146180388988,1526.4414910443
0.747318883065966,1526.4514910443
0.746603178372768,1526.4614910443
0.744893208573847,1526.4714910443
0.742414175435598,1526.4814910443
0.7398428163198,1526.4914910443
0.736717089879111,1526.5014910443
0.732522740790514,1526.5114910443
0.726640391550365,1526.5214910443
0.71797455950651,1526.5314910443
0.705655934085344,1526.5414910443
0.689928477584102,1526.5514910443
0.67227437783276,1526.5614910443
0.653400446418389,1526.5714910443
0.635511541062546,1526.5814910443
0.619448798803924,1526.5914910443
0.605852683841963,1526.6014910443
0.595476419643631,1526.6114910443
0.587986468096795,1526.6214910443
0.583541893981402,1526.6314910443
0.58190823678381,1526.6414910443
0.582670512190012,1526.6514910443
0.584680395747146,1526.6614910443
0.587283401121588,1526.6714910443
0.589368507342271,1526.6814910443
0.590816989762576,1526.6914910443
0.590854502523918,1526.7014910443
0.589097565402398,1526.7114910443
0.585287063159154,1526.7214910443
0.580143812699643,1526.7314910443
0.573160464213085,1526.7414910443
0.564984121495228,1526.7514910443
0.555334578079139,1526.7614910443
0.54389172791486,1526.7714910443
0.530885423392566,1526.7814910443
0.516629219943349,1526.7914910443
0.502216180941767,1526.8014910443
0.487385650130464,1526.8114910443
0.473195057971905,1526.8214910443
0.459527681384861,1526.8314910443
0.446083455405654,1526.8414910443
0.433252277906894,1526.8514910443
0.420606547569342,1526.8614910443
0.408106541199737,1526.8714910443
0.39592555524701,1526.8814910443
0.383694203424649,1526.8914910443
0.372479953282219,1526.9014910443
0.3613677567029,1526.9114910443
0.350504001415296,1526.9214910443
0.339491803502862,1526.9314910443
0.328345820644615,1526.9414910443
0.31708912387673,1526.9514910443
0.305204803818106,1526.9614910443
0.293686514020743,1526.9714910443
0.28186406361623,1526.9814910443
0.269501418024287,1526.9914910443
0.256967497955917,1527.0014910443
0.244184397768248,1527.0114910443
0.232183888101818,1527.0214910443
0.223822131834222,1527.0314910443
0.222449261045803,1527.0414910443
0.231019517356482,1527.0514910443
0.252846332598667,1527.0614910443
0.288950609785086,1527.0714910443
0.33888221913101,1527.0814910443
0.399928839841256,1527.0914910443
0.467873199599224,1527.1014910443
0.538630975546885,1527.1114910443
0.607482065289427,1527.1214910443
0.670426181708119,1527.1314910443
0.724809529402966,1527.1414910443
0.768907153413292,1527.1514910443
0.804044278204668,1527.1614910443
0.83007975509105,1527.1714910443
0.848667735007373,1527.1814910443
0.861813986887836,1527.1914910443
0.870053857951403,1527.2014910443
0.874447344484036,1527.2114910443
0.876936860409445,1527.2214910443
0.878002363700934,1527.2314910443
0.87824535644006,1527.2414910443
0.87826619672993,1527.2514910443
0.877306119246437,1527.2614910443
0.874853746712078,1527.2714910443
0.869693552215044,1527.2814910443
0.860913234899401,1527.2914910443
0.847698140271984,1527.3014910443
0.830457396136284,1527.3114910443
0.810491232070162,1527.3214910443
0.788525237552343,1527.3314910443
0.766658585719249,1527.3414910443
0.746283967666042,1527.3514910443
0.728673470988749,1527.3614910443
0.71513979116307,1527.3714910443
0.705144290783326,1527.3814910443
0.698557463241463,1527.3914910443
0.694073865252299,1527.4014910443
0.691348995602295,1527.4114910443
0.690079092598689,1527.4214910443
0.688819863215235,1527.4314910443
0.687332682393638,1527.4414910443
0.685394349594607,1527.4514910443
0.682339818373589,1527.4614910443
0.677916431403522,1527.4714910443
0.672186146187879,1527.4814910443
0.664898818053713,1527.4914910443
0.656150224119853,1527.5014910443
0.646026497425555,1527.5114910443
0.634266949549274,1527.5214910443
0.620905698105967,1527.5314910443
0.605881648993906,1527.5414910443
0.589330232663618,1527.5514910443
0.572198063552114,1527.5614910443
0.554831271817577,1527.5714910443
0.537326961731746,1527.5814910443
0.51975178092021,1527.5914910443
0.502350621670009,1527.6014910443
0.485258123492148,1527.6114910443
0.468838571348114,1527.6214910443
0.453072990004474,1527.6314910443
0.437812710903295,1527.6414910443
0.423534274079285,1527.6514910443
0.409589579956578,1527.6614910443
0.396082901677796,1527.6714910443
0.381891340858968,1527.6814910443
0.36799013732466,1527.6914910443
0.354164267706476,1527.7014910443
0.340312906559443,1527.7114910443
0.326714520169785,1527.7214910443
0.313230733256824,1527.7314910443
0.300169355701178,1527.7414910443
0.28754448692781,1527.7514910443
0.274948974410092,1527.7614910443
0.26235645231745,1527.7714910443
0.249849899132746,1527.7814910443
0.236479437995038,1527.7914910443
0.222761637483506,1527.8014910443
0.209298168114959,1527.8114910443
0.195973824084006,1527.8214910443
0.183672637468104,1527.8314910443
0.171617059789599,1527.8414910443
0.160097064356349,1527.8514910443
0.148290043075426,1527.8614910443
0.136614030993265,1527.8714910443
0.125001745383866,1527.8814910443
0.11321749204525,1527.8914910443
0.101307825939577,1527.9014910443
0.0895480537242736,1527.9114910443
0.0782269255579168,1527.9214910443
0.0665977719108319,1527.9314910443
0.0548892657251648,1527.9414910443
0.0436120776519582,1527.9514910443
0.0322314467289112,1527.9614910443
0.0207522562932707,1527.9714910443
0.00997923334803444,1527.9814910443
-0.000579518031950863,1527.9914910443
-0.0112591529640768,1528.0014910443
-0.0216428419340129,1528.0114910443
-0.032538544616429,1528.0214910443
-0.0439431679018251,1528.0314910443
-0.0560765655562347,1528.0414910443
-0.0683060077417035,1528.0514910443
-0.0811429257802655,1528.0614910443
-0.09423824409041,1528.0714910443
-0.106622522409812,1528.0814910443
-0.118696114701947,1528.0914910443
-0.129748013975664,1528.1014910443
-0.140446995303568,1528.1114910443
-0.150284661527495,1528.1214910443
-0.160222667990952,1528.1314910443
-0.169702737433017,1528.1414910443
-0.17960379536211,1528.1514910443
-0.189583132389985,1528.1614910443
-0.199067879409093,1528.1714910443
-0.208069822639235,1528.1814910443
-0.216566644764674,1528.1914910443
-0.224642702162377,1528.2014910443
-0.232918481758595,1528.2114910443
-0.241467285143781,1528.2214910443
-0.25062802843734,1528.2314910443
-0.260153678376206,1528.2414910443
-0.269665190752737,1528.2514910443
-0.279156070828129,1528.2614910443
-0.286113650490121,1528.2714910443
-0.288757226703981,1528.2814910443
-0.281580187075062,1528.2914910443
-0.260777188520826,1528.3014910443
-0.223039476833221,1528.3114910443
-0.168176068192836,1528.3214910443
-0.0992115781520944,1528.3314910443
-0.0205556432871041,1528.3414910443
0.0615771604360029,1528.3514910443
0.14084904285069,1528.3614910443
0.214346668642339,1528.3714910443
0.278768473861711,1528.3814910443
0.331864975597317,1528.3914910443
0.373820683478554,1528.4014910443
0.405151054744547,1528.4114910443
0.427193869206459,1528.4214910443
0.441747141864811,1528.4314910443
0.451386306937179,1528.4414910443
0.457073013880933,1528.4514910443
0.460517926821913,1528.4614910443
0.462934757305942,1528.4714910443
0.465786300374099,1528.4814910443
0.46917827166207,1528.4914910443
0.47291336267135,1528.5014910443
0.476967322122071,1528.5114910443
0.479914157962899,1528.5214910443
0.481185956802511,1528.5314910443
0.479950005065484,1528.5414910443
0.476088210423412,1528.5514910443
0.468740710852465,1528.5614910443
0.45822832124506,1528.5714910443
0.445468715959192,1528.5814910443
0.431956456511687,1528.5914910443
0.418516265173935,1528.6014910443
0.406387316635809,1528.6114910443
0.39694727938133,1528.6214910443
0.389268532123232,1528.6314910443
0.38382233079003,1528.6414910443
0.379912496666735,1528.6514910443
0.377651908106512,1528.6614910443
0.375984296220507,1528.6714910443
0.374924851446976,1528.6814910443
0.373609009761617,1528.6914910443
0.372223785806093,1528.7014910443
0.370148344379656,1528.7114910443
0.367067797006081,1528.7214910443
0.363597223979754,1528.7314910443
0.359115825238995,1528.7414910443
0.354134262552103,1528.7514910443
0.347698606553975,1528.7614910443
0.339479059553131,1528.7714910443
0.329585912348837,1528.7814910443
0.318243952968822,1528.7914910443
0.306055343917657,1528.8014910443
0.292878734320108,1528.8114910443
0.280300270839897,1528.8214910443
0.26784572150951,1528.8314910443
0.255619199626044,1528.8414910443
0.243554811278773,1528.8514910443
0.231178333832477,1528.8614910443
0.218252927465543,1528.8714910443
0.205112798223925,1528.8814910443
0.191707024065227,1528.8914910443
0.177843041998016,1528.9014910443
0.164160635783945,1528.9114910443
0.150752349037744,1528.9214910443
0.138547205919991,1528.9314910443
0.126621792366457,1528.9414910443
0.115187855599334,1528.9514910443
0.103856123006954,1528.9614910443
0.0918573897936999,1528.9714910443
0.0797981022756427,1528.9814910443
0.0670563043147124,1528.9914910443
0.0543251123628843,1529.0014910443
0.0415092986430754,1529.0114910443
0.0292613965641329,1529.0214910443
0.0181830850775205,1529.0314910443
0.00748862063345742,1529.0414910443
-0.00255233328041006,1529.0514910443
-0.0121247580704185,1529.0614910443
-0.0220252604217325,1529.0714910443
-0.0327631963005343,1529.0814910443
-0.0435482210217013,1529.0914910443
-0.0548601806333058,1529.1014910443
-0.0663670460646417,1529.1114910443
-0.0780748741672495,1529.1214910443
-0.0892991022206774,1529.1314910443
-0.0999817659917031,1529.1414910443
-0.109937112448515,1529.1514910443
-0.119889641036853,1529.1614910443
-0.12937517578994,1529.1714910443
-0.138953894157795,1529.1814910443
-0.14851734288373,1529.1914910443
-0.157576407303672,1529.2014910443
-0.167508912340144,1529.2114910443
-0.177150029577637,1529.2214910443
-0.187022502595228,1529.2314910443
-0.19717946528325,1529.2414910443
-0.207290075849084,1529.2514910443
-0.217717292558085,1529.2614910443
-0.228147087890472,1529.2714910443
-0.239036601372641,1529.2814910443
-0.249518399161097,1529.2914910443
-0.260263425333719,1529.3014910443
-0.271032921478286,1529.3114910443
-0.281445381990948,1529.3214910443
-0.291818663616803,1529.3314910443
-0.301321894127084,1529.3414910443
-0.310638741652336,1529.3514910443
-0.319229770601507,1529.3614910443
-0.327745068849646,1529.3714910443
-0.33661891457718,1529.3814910443
-0.345559767565896,1529.3914910443
-0.354459624033508,1529.4014910443
-0.363354978767411,1529.4114910443
-0.371931855210659,1529.4214910443
-0.380581856686249,1529.4314910443
-0.389426378903346,1529.4414910443
-0.398482889520153,1529.4514910443
-0.4077062317562,1529.4614910443
-0.416916475379262,1529.4714910443
-0.425819592663814,1529.4814910443
-0.435030275634988,1529.4914910443
-0.444279050456981,1529.5014910443
-0.452588342893466,1529.5114910443
-0.459951410891053,1529.5214910443
-0.46306322268145,1529.5314910443
-0.458764915519898,1529.5414910443
-0.443117353840464,1529.5514910443
-0.413911258563553,1529.5614910443
-0.370165787243827,1529.5714910443
-0.313905451447248,1529.5814910443
-0.247871261912827,1529.5914910443
-0.177075283874876,1529.6014910443
-0.106657235246774,1529.6114910443
-0.0401739370666937,1529.6214910443
0.0178645058544404,1529.6314910443
0.0664259491775134,1529.6414910443
0.10443615001162,1529.6514910443
0.13298573574244,1529.6614910443
0.153318477326524,1529.6714910443
0.167661810357567,1529.6814910443
0.176734610463047,1529.6914910443
0.182410147090236,1529.7014910443
0.185937797758912,1529.7114910443
0.188130222295675,1529.7214910443
0.190085381944463,1529.7314910443
0.192635416433135,1529.7414910443
0.195235424244762,1529.7514910443
0.19838003272862,1529.7614910443
0.201540408434677,1529.7714910443
0.20414364136404,1529.7814910443
0.205663824665454,1529.7914910443
0.204122912062585,1529.8014910443
0.199349796999779,1529.8114910443
0.191784362483702,1529.8214910443
0.182229702945073,1529.8314910443
0.171230231312976,1529.8414910443
0.160303487085262,1529.8514910443
0.149575534112356,1529.8614910443
0.140500891428435,1529.8714910443
0.133501611255559,1529.8814910443
0.128271009289755,1529.8914910443
0.124568078083012,1529.9014910443
0.122982920475619,1529.9114910443
0.122978168218585,1529.9214910443
0.12401003292482,1529.9314910443
0.125494732207512,1529.9414910443
0.127354694190199,1529.9514910443
0.128156095848064,1529.9614910443
0.128808356512509,1529.9714910443
0.12816717524494,1529.9814910443
0.126489468354023,1529.9914910443
0.123474447602991,1530.0014910443
0.118562630930714,1530.0114910443
0.112205096485526,1530.0214910443
0.103792791159094,1530.0314910443
0.0942337599047657,1530.0414910443
0.083669177922001,1530.0514910443
0.0729757748280189,1530.0614910443
0.0617572847988347,1530.0714910443
0.0502382944216784,1530.0814910443
0.0384368661618708,1530.0914910443
0.0264417694658965,1530.1014910443
0.0143000798014431,1530.1114910443
0.00293249843804404,1530.1214910443
-0.00819368249324836,1530.1314910443
-0.0190085209239084,1530.1414910443
-0.029785631812806,1530.1514910443
-0.0404233876138769,1530.1614910443
-0.0509379164670439,1530.1714910443
-0.0612835238664134,1530.1814910443
-0.0713118998211183,1530.1914910443
-0.0813280926117885,1530.2014910443
-0.0910380617203681,1530.2114910443
-0.100513137839783,1530.2214910443
-0.109511807971353,1530.2314910443
-0.118410900418937,1530.2414910443
-0.127118612196508,1530.2514910443
-0.136392666979415,1530.2614910443
-0.145773248588706,1530.2714910443
-0.155633031786273,1530.2814910443
-0.165840009536233,1530.2914910443
-0.17574053615555,1530.3014910443
-0.185386533597942,1530.3114910443
-0.194972467084208,1530.3214910443
-0.204478332711222,1530.3314910443
-0.213685915477155,1530.3414910443
-0.223101572786547,1530.3514910443
-0.232044712379687,1530.3614910443
-0.241241373036327,1530.3714910443
-0.249934148955553,1530.3814910443
-0.258877492303416,1530.3914910443
-0.267718026672423,1530.4014910443
-0.276373512313207,1530.4114910443
-0.28485694554387,1530.4214910443
-0.292497147881853,1530.4314910443
-0.2996557814289,1530.4414910443
-0.306328195737116,1530.4514910443
-0.312584220134437,1530.4614910443
-0.319331214374566,1530.4714910443
-0.326836044939019,1530.4814910443
-0.334275817612487,1530.4914910443
-0.341653583326547,1530.5014910443
-0.348967158843213,1530.5114910443
-0.356166836095225,1530.5214910443
-0.36304954140999,1530.5314910443
-0.370304373700714,1530.5414910443
-0.377870539655942,1530.5514910443
-0.38612227520403,1530.5614910443
-0.395537264716648,1530.5714910443
-0.404431930225971,1530.5814910443
-0.413470559713577,1530.5914910443
-0.422162048495835,1530.6014910443
-0.43100068622484,1530.6114910443
-0.438855895454079,1530.6214910443
-0.447076587744607,1530.6314910443
-0.455570773366274,1530.6414910443
-0.464377771229691,1530.6514910443
-0.47207137688436,1530.6614910443
-0.476577540383485,1530.6714910443
-0.474302752165206,1530.6814910443
-0.46179503953273,1530.6914910443
-0.436457138239511,1530.7014910443
-0.397575806779206,1530.7114910443
-0.345850454255334,1530.7214910443
-0.285572506017608,1530.7314910443
-0.220316742315463,1530.7414910443
-0.155633576411283,1530.7514910443
-0.095111256654716,1530.7614910443
-0.0416218992791785,1530.7714910443
0.00292892791108965,1530.7814910443
0.0390799999160154,1530.7914910443
0.0665621791287348,1530.8014910443
0.0859488768637714,1530.8114910443
0.0986073480004159,1530.8214910443
0.105777892533392,1530.8314910443
0.108715990709809,1530.8414910443
0.109519678858063,1530.8514910443
0.108689372298705,1530.8614910443
0.107053948602788,1530.8714910443
0.104827717447748,1530.8814910443
0.103370011722593,1530.8914910443
0.102644098578135,1530.9014910443
0.101579944440635,1530.9114910443
0.0997377100363414,1530.9214910443
0.0967314353335718,1530.9314910443
0.0909399984467984,1530.9414910443
0.0829308457780824,1530.9514910443
0.0735972544031272,1530.9614910443
0.0632131470471144,1530.9714910443
0.0530072963383224,1530.9814910443
0.0444067488836958,1530.9914910443
0.0378978661614343,1531.0014910443
0.0330919392607844,1531.0114910443
0.0317784176973937,1531.0214910443
0.03276092268912,1531.0314910443
0.0363644797785832,1531.0414910443
0.0408938388989312,1531.0514910443
0.0460609783188633,1531.0614910443
0.0515725996550539,1531.0714910443
0.0562608239963675,1531.0814910443
0.059938247538621,1531.0914910443
0.0624613034310081,1531.1014910443
0.062988115904395,1531.1114910443
0.0618695198311004,1531.1214910443
0.0587401162121506,1531.1314910443
0.0540041176217212,1531.1414910443
0.0481499412113201,1531.1514910443
0.0410917978947359,1531.1614910443
0.0329343850137235,1531.1714910443
0.0233231550731602,1531.1814910443
0.0132557158348269,1531.1914910443
0.00247422127190491,1531.2014910443
-0.00823281779641097,1531.2114910443
-0.019430291508283,1531.2214910443
-0.030401895841,1531.2314910443
-0.0410014910040534,1531.2414910443
-0.0507686036613296,1531.2514910443
-0.060346027264879,1531.2614910443
-0.0693370588959831,1531.2714910443
-0.0787643604432549,1531.2814910443
-0.0883543379978182,1531.2914910443
-0.097388863402275,1531.3014910443
-0.106478628892947,1531.3114910443
-0.114503068483221,1531.3214910443
-0.122584300844979,1531.3314910443
-0.130516532962864,1531.3414910443
-0.138557692878245,1531.3514910443
-0.146856145638586,1531.3614910443
-0.155357354947266,1531.3714910443
-0.163387303940159,1531.3814910443
-0.171172427977224,1531.3914910443
-0.178982575586835,1531.4014910443
-0.186756628989936,1531.4114910443
-0.19452718441382,1531.4214910443
-0.202421956067725,1531.4314910443
-0.210237624682429,1531.4414910443
-0.218180765260667,1531.4514910443
-0.226240791005652,1531.4614910443
-0.234695868736775,1531.4714910443
-0.243222850960505,1531.4814910443
-0.251463540999463,1531.4914910443
-0.260041046206962,1531.5014910443
-0.268476286536627,1531.5114910443
-0.276786827983237,1531.5214910443
-0.285005411241403,1531.5314910443
-0.293029573046934,1531.5414910443
-0.299665573870006,1531.5514910443
-0.306514629235493,1531.5614910443
-0.313527179447005,1531.5714910443
-0.320523444863892,1531.5814910443
-0.327708249392804,1531.5914910443
-0.334757813080558,1531.6014910443
-0.341329431605742,1531.6114910443
-0.347711946203044,1531.6214910443
-0.354319635578503,1531.6314910443
-0.36072224346422,1531.6414910443
-0.367352989681065,1531.6514910443
-0.374731542648289,1531.6614910443
-0.38228051868665,1531.6714910443
-0.390485382428619,1531.6814910443
-0.399058938700804,1531.6914910443
-0.40679861158481,1531.7014910443
-0.413078697287102,1531.7114910443
-0.415090512792763,1531.7214910443
-0.409138899938767,1531.7314910443
-0.392496359045647,1531.7414910443
-0.362821516273302,1531.7514910443
-0.320116399450399,1531.7614910443
-0.266716355952659,1531.7714910443
-0.204482768568624,1531.7814910443
-0.138566691866796,1531.7914910443
-0.0721825778319211,1531.8014910443
-0.00994705796438219,1531.8114910443
0.0451313512285923,1531.8214910443
0.0916109791377459,1531.8314910443
0.128599691656577,1531.8414910443
0.157597132696403,1531.8514910443
0.178348744185761,1531.8614910443
0.192345845708741,1531.8714910443
0.201380267902806,1531.8814910443
0.206379015655606,1531.8914910443
0.209430655823767,1531.9014910443
0.211310189426285,1531.9114910443
0.212371693639985,1531.9214910443
0.213173958102669,1531.9314910443
0.213640557435626,1531.9414910443
0.214545313238549,1531.9514910443
0.21550810618549,1531.9614910443
0.215639742110825,1531.9714910443
0.214501521799108,1531.9814910443
0.211351054661321,1531.9914910443
0.205449873147028,1532.0014910443
0.196786576531804,1532.0114910443
0.186006934615751,1532.0214910443
0.174618855298731,1532.0314910443
0.163987326553737,1532.0414910443
0.154856583173028,1532.0514910443
0.148598789036477,1532.0614910443
0.144511419839268,1532.0714910443
0.143061029715034,1532.0814910443
0.143655810564318,1532.0914910443
0.146092998060547,1532.1014910443
0.149844553467037,1532.1114910443
0.154118190918169,1532.1214910443
0.158186319002771,1532.1314910443
0.161541302962519,1532.1414910443
0.164122664271244,1532.1514910443
0.164803742250997,1532.1614910443
0.164195372119568,1532.1714910443
0.162335143954499,1532.1814910443
0.15918657159125,1532.1914910443
0.154466032774472,1532.2014910443
0.147561408762922,1532.2114910443
0.138813227725779,1532.2214910443
0.128821422663332,1532.2314910443
0.117748796103524,1532.2414910443
0.10660276061842,1532.2514910443
0.0944437319994019,1532.2614910443
0.0821054400975768,1532.2714910443
0.0694893537143551,1532.2814910443
0.057347248325735,1532.2914910443
0.0448739720785293,1532.3014910443
0.0331287861093706,1532.3114910443
0.0221427569832231,1532.3214910443
0.0114870845559513,1532.3314910443
0.00116807427293848,1532.3414910443
-0.00876273580031515,1532.3514910443
-0.0178723641130451,1532.3614910443
-0.0270977790139791,1532.3714910443
-0.03619254740101,1532.3814910443
-0.0451204668051868,1532.3914910443
-0.0542424988391767,1532.4014910443
-0.0631283326300716,1532.4114910443
-0.0721283200651999,1532.4214910443
-0.0816319939680544,1532.4314910443
-0.0914159190416742,1532.4414910443
-0.101824552553856,1532.4514910443
-0.111742077131422,1532.4614910443
-0.121328494631284,1532.4714910443
-0.130469513546173,1532.4814910443
-0.138653985762849,1532.4914910443
-0.146894634034707,1532.5014910443
-0.155529999778697,1532.5114910443
-0.164509454645278,1532.5214910443
-0.173656424508874,1532.5314910443
-0.182403026001027,1532.5414910443
-0.190318741190077,1532.5514910443
-0.198148844503418,1532.5614910443
-0.205414806369548,1532.5714910443
-0.21304263123356,1532.5814910443
-0.221394803632292,1532.5914910443
-0.229915603555351,1532.6014910443
-0.238212483137643,1532.6114910443
-0.245928149107826,1532.6214910443
-0.253570669769371,1532.6314910443
-0.261708935249301,1532.6414910443
-0.27024550939387,1532.6514910443
-0.279248614783976,1532.6614910443
-0.288103799614984,1532.6714910443
-0.296555909855435,1532.6814910443
-0.304305017242491,1532.6914910443
-0.311748124605989,1532.7014910443
-0.319551246612749,1532.7114910443
-0.32729999748122,1532.7214910443
-0.335340764384642,1532.7314910443
-0.343044609985099,1532.7414910443
-0.351015668209865,1532.7514910443
-0.35891759229571,1532.7614910443
-0.366885554845151,1532.7714910443
-0.375055572692931,1532.7814910443
-0.383440704076099,1532.7914910443
-0.391776724412525,1532.8014910443
-0.399735893610239,1532.8114910443
-0.406797333231128,1532.8214910443
-0.413230958963297,1532.8314910443
-0.419299542051238,1532.8414910443
-0.425462286017958,1532.8514910443
-0.431621139583549,1532.8614910443
-0.438215436164965,1532.8714910443
-0.445218787782499,1532.8814910443
-0.452213811491204,1532.8914910443
-0.459571504043884,1532.9014910443
-0.467415501571037,1532.9114910443
-0.474551047947255,1532.9214910443
-0.479374974387679,1532.9314910443
-0.479702976611018,1532.9414910443
-0.471117639774366,1532.9514910443
-0.449587024437905,1532.9614910443
-0.413757934081093,1532.9714910443
-0.363207358804093,1532.9814910443
-0.302015620804072,1532.9914910443
-0.233535954301512,1533.0014910443
-0.162157725511763,1533.0114910443
-0.0926338075863432,1533.0214910443
-0.0288843335474366,1533.0314910443
0.02675723016541,1533.0414910443
0.0722138510166069,1533.0514910443
0.106967507404557,1533.0614910443
0.1330392643905,1533.0714910443
0.150182587221315,1533.0814910443
0.160995100192202,1533.0914910443
0.166152981313173,1533.1014910443
0.167736425236319,1533.1114910443
0.167472597391385,1533.1214910443
0.16702561587769,1533.1314910443
0.167053218694919,1533.1414910443
0.167943379158336,1533.1514910443
0.170236609223436,1533.1614910443
0.173551298276342,1533.1714910443
0.177823938747339,1533.1814910443
0.181457224424572,1533.1914910443
0.184347457831357,1533.2014910443
0.184788464929978,1533.2114910443
0.18277892868492,1533.2214910443
0.178243090310873,1533.2314910443
0.171726479112361,1533.2414910443
0.164467199541835,1533.2514910443
0.157835421920805,1533.2614910443
0.15178122264219,1533.2714910443
0.147536724856738,1533.2814910443
0.145162521959198,1533.2914910443
0.144417389566246,1533.3014910443
0.145024892783562,1533.3114910443
0.146818836726304,1533.3214910443
0.149569158628214,1533.3314910443
0.152599147260743,1533.3414910443
0.156272448541382,1533.3514910443
0.159850290947231,1533.3614910443
0.162973090009786,1533.3714910443
0.165796534661609,1533.3814910443
0.167993933937422,1533.3914910443
0.167897949353458,1533.4014910443
0.165729127922614,1533.4114910443
0.16150195607775,1533.4214910443
0.155434234135352,1533.4314910443
0.147904928566107,1533.4414910443
0.139517888506553,1533.4514910443
0.130367366981657,1533.4614910443
0.120504470143875,1533.4714910443
0.110317956532414,1533.4814910443
0.100000955918461,1533.4914910443
0.0893821250528737,1533.5014910443
0.0788244931299463,1533.5114910443
0.0686181631551507,1533.5214910443
0.0579190260156132,1533.5314910443
0.0480880330279866,1533.5414910443
0.0383373024421645,1533.5514910443
0.0291257914003944,1533.5614910443
0.0200238038996416,1533.5714910443
0.0108675143109996,1533.5814910443
0.00200224683195874,1533.5914910443
-0.00635198214046094,1533.6014910443
-0.0143719554915319,1533.6114910443
-0.0224016157644773,1533.6214910443
-0.0300402539321268,1533.6314910443
-0.0384029948723627,1533.6414910443
-0.0469011264610662,1533.6514910443
-0.0558377916153174,1533.6614910443
-0.0644632123651023,1533.6714910443
-0.0728991429349062,1533.6814910443
-0.0809169177984472,1533.6914910443
-0.0890384437741019,1533.7014910443
-0.0977900178147475,1533.7114910443
-0.106988995716012,1533.7214910443
-0.116160390624032,1533.7314910443
-0.12547416352552,1533.7414910443
-0.133901930772515,1533.7514910443
-0.141328755878267,1533.7614910443
-0.149113113319233,1533.7714910443
-0.157046664270869,1533.7814910443
-0.164834901548916,1533.7914910443
-0.173603050198995,1533.8014910443
-0.182328250537463,1533.8114910443
-0.190752482457987,1533.8214910443
-0.198411225643374,1533.8314910443
-0.206386660916023,1533.8414910443
-0.213745128589869,1533.8514910443
-0.220825352746148,1533.8614910443
-0.227941472913818,1533.8714910443
-0.236034555397336,1533.8814910443
-0.244014054158982,1533.8914910443
-0.252417033760062,1533.9014910443
-0.260966547543086,1533.9114910443
-0.269741085187657,1533.9214910443
-0.278381566529868,1533.9314910443
-0.286772187804083,1533.9414910443
-0.29573009449021,1533.9514910443
-0.304172049765905,1533.9614910443
-0.312971697760779,1533.9714910443
-0.321477786301189,1533.9814910443
-0.330168594042925,1533.9914910443
-0.337743317553977,1534.0014910443
-0.345664703212062,1534.0114910443
-0.353271343341123,1534.0214910443
-0.360485031655105,1534.0314910443
-0.367608052774204,1534.0414910443
-0.374955841117701,1534.0514910443
-0.382313531101393,1534.0614910443
-0.389857891417307,1534.0714910443
-0.397517653303712,1534.0814910443
-0.40470517746914,1534.0914910443
-0.411599604073392,1534.1014910443
-0.418357589662438,1534.1114910443
-0.425396970293122,1534.1214910443
-0.433446449372567,1534.1314910443
-0.44111692555812,1534.1414910443
-0.449701961527893,1534.1514910443
-0.458254751595327,1534.1614910443
-0.465263576604252,1534.1714910443
-0.468928219360223,1534.1814910443
-0.466067547325055,1534.1914910443
-0.45334659881381,1534.2014910443
-0.427921389045377,1534.2114910443
-0.390422251747793,1534.2214910443
-0.342431607770612,1534.2314910443
-0.288041314022351,1534.2414910443
-0.231203119066941,1534.2514910443
-0.175967216692388,1534.2614910443
-0.125652194643995,1534.2714910443
-0.0817909687201924,1534.2814910443
-0.0454261253132607,1534.2914910443
-0.0166663324853182,1534.3014910443
0.00468392503771757,1534.3114910443
0.0195769268365997,1534.3214910443
0.0297565838323526,1534.3314910443
0.0361818990577302,1534.3414910443
0.0399984833629714,1534.3514910443
0.0424139965381046,1534.3614910443
0.0446095664740281,1534.3714910443
0.0470553594944829,1534.3814910443
0.0500121057597577,1534.3914910443
0.0541020022504389,1534.4014910443
0.0584988682798806,1534.4114910443
0.0628952976820248,1534.4214910443
0.0665125402354678,1534.4314910443
0.0690660162250823,1534.4414910443
0.0698962659544084,1534.4514910443
0.0689052616920184,1534.4614910443
0.0659539021153014,1534.4714910443
0.0614746765776052,1534.4814910443
0.0564254129434652,1534.4914910443
0.0507682736668789,1534.5014910443
0.0452588604073159,1534.5114910443
0.0397898217406496,1534.5214910443
0.0357700141948951,1534.5314910443
0.0336294817955077,1534.5414910443
0.0333337037063868,1534.5514910443
0.034487394095452,1534.5614910443
0.0365145191621819,1534.5714910443
0.0392533407500502,1534.5814910443
0.0421835749716464,1534.5914910443
0.0451730184234783,1534.6014910443
0.0477866073471086,1534.6114910443
0.0500051767134318,1534.6214910443
0.0515284700670679,1534.6314910443
0.0520094356404135,1534.6414910443
0.0515796031913657,1534.6514910443
0.0497833132323374,1534.6614910443
0.0464313373958353,1534.6714910443
0.0415635830952944,1534.6814910443
0.0350276329510832,1534.6914910443
0.0278444817799566,1534.7014910443
0.019986189719801,1534.7114910443
0.011355990986492,1534.7214910443
0.00275882013107454,1534.7314910443
-0.00579737703271311,1534.7414910443
-0.014455852181543,1534.7514910443
-0.0232593228419127,1534.7614910443
-0.0318964770144242,1534.7714910443
-0.0402958971394188,1534.7814910443
-0.0486632289312127,1534.7914910443
-0.0568436181477073,1534.8014910443
-0.0648339602782447,1534.8114910443
-0.0726875199128321,1534.8214910443
-0.0805134128575367,1534.8314910443
-0.0884236889423506,1534.8414910443
-0.0957094331452399,1534.8514910443
-0.102791033046707,1534.8614910443
-0.1097233208059,1534.8714910443
-0.116132773622194,1534.8814910443
-0.123255008465877,1534.8914910443
-0.130511753942326,1534.9014910443
-0.137642823377064,1534.9114910443
-0.144830527472858,1534.9214910443
-0.152119680964369,1534.9314910443
-0.159857848543198,1534.9414910443
-0.167210056263237,1534.9514910443
-0.175098985206684,1534.9614910443
-0.182956719994635,1534.9714910443
-0.191189686346814,1534.9814910443
-0.199475102843118,1534.9914910443
-0.207145361581823,1535.0014910443
-0.215485842196445,1535.0114910443
-0.222900102789889,1535.0214910443
-0.230583296330832,1535.0314910443
-0.238201626758249,1535.0414910443
-0.246102524954398,1535.0514910443
-0.253998153150277,1535.0614910443
-0.261678053634827,1535.0714910443
-0.269174836503996,1535.0814910443
-0.275851340927563,1535.0914910443
-0.28228961438482,1535.1014910443
-0.288830053683171,1535.1114910443
-0.295729061927746,1535.1214910443
-0.302871087093833,1535.1314910443
-0.309948022652884,1535.1414910443
-0.317367860515983,1535.1514910443
-0.324543421631914,1535.1614910443
-0.331295127713115,1535.1714910443
-0.338801902668626,1535.1814910443
-0.346509201356387,1535.1914910443
-0.354320797059116,1535.2014910443
-0.362431594834081,1535.2114910443
-0.370825194171079,1535.2214910443
-0.379429414523636,1535.2314910443
-0.387730474488194,1535.2414910443
-0.395667261440583,1535.2514910443
-0.402604754845962,1535.2614910443
-0.409095492008472,1535.2714910443
-0.415139999679919,1535.2814910443
-0.421285378858155,1535.2914910443
-0.427728286873595,1535.3014910443
-0.434468425937829,1535.3114910443
-0.442300833681671,1535.3214910443
-0.450531466117645,1535.3314910443
-0.459130551477472,1535.3414910443
-0.466942548993806,1535.3514910443
-0.474360617348658,1535.3614910443
-0.481170385612581,1535.3714910443
-0.487944203309652,1535.3814910443
-0.494294810989073,1535.3914910443
-0.500970028758841,1535.4014910443
-0.507468056233821,1535.4114910443
-0.514026726458999,1535.4214910443
-0.520344411945917,1535.4314910443
-0.526403340162781,1535.4414910443
-0.532715348168358,1535.4514910443
-0.538586154405456,1535.4614910443
-0.544064050249502,1535.4714910443
-0.546423698868868,1535.4814910443
-0.544295855500136,1535.4914910443
-0.534037341513975,1535.5014910443
-0.514587513818646,1535.5114910443
-0.484981177605496,1535.5214910443
-0.447747902008053,1535.5314910443
-0.405042320990367,1535.5414910443
-0.359825911349359,1535.5514910443
-0.315475521472557,1535.5614910443
-0.274049568675446,1535.5714910443
-0.237481722173024,1535.5814910443
-0.207837435596133,1535.5914910443
-0.184752744656046,1535.6014910443
-0.167968784778609,1535.6114910443
-0.155826425462056,1535.6214910443
-0.147355401918585,1535.6314910443
-0.141236151126776,1535.6414910443
-0.136219032211907,1535.6514910443
-0.132764484179126,1535.6614910443
-0.129657320404703,1535.6714910443
-0.126800075215978,1535.6814910443
-0.123518869443833,1535.6914910443
-0.119861957912759,1535.7014910443
-0.11659644500175,1535.7114910443
-0.112944233313421,1535.7214910443
-0.10913385948939,1535.7314910443
-0.105454914475008,1535.7414910443
-0.102769563905728,1535.7514910443
-0.10158924325251,1535.7614910443
-0.102654483488304,1535.7714910443
-0.10431879205319,1535.7814910443
-0.10705479733765,1535.7914910443
-0.110599003698752,1535.8014910443
-0.114185500695932,1535.8114910443
-0.117076922103908,1535.8214910443
-0.118789229319896,1535.8314910443
-0.119519592634391,1535.8414910443
-0.118793471653062,1535.8514910443
-0.117451610704474,1535.8614910443
-0.115707669476311,1535.8714910443
-0.11335490169197,1535.8814910443
-0.110734645959081,1535.8914910443
-0.107542516824468,1535.9014910443
-0.105072531761507,1535.9114910443
-0.10278080495334,1535.9214910443
-0.100826076479344,1535.9314910443
-0.099784491179056,1535.9414910443
-0.0995675149832004,1535.9514910443
-0.099884860041857,1535.9614910443
-0.101703852627318,1535.9714910443
-0.1044206761819,1535.9814910443
-0.107330819451545,1535.9914910443
-0.111544460085402,1536.0014910443
-0.116313646517153,1536.0114910443
-0.121938293708627,1536.0214910443
-0.127761817626349,1536.0314910443
-0.134124695686486,1536.0414910443
-0.140907478174314,1536.0514910443
-0.147786622706423,1536.0614910443
-0.154560076912497,1536.0714910443
-0.161058020347627,1536.0814910443
-0.167406792459795,1536.0914910443
-0.173559529152119,1536.1014910443
-0.179298380863223,1536.1114910443
-0.185438554414226,1536.1214910443
-0.191324790176213,1536.1314910443
-0.197403229974389,1536.1414910443
-0.203273789537029,1536.1514910443
-0.209035196878731,1536.1614910443
-0.214823585142653,1536.1714910443
-0.220602135649251,1536.1814910443
-0.22627203535972,1536.1914910443
-0.232000346217099,1536.2014910443
-0.237737636211773,1536.2114910443
-0.243714438399736,1536.2214910443
-0.249836825673056,1536.2314910443
-0.255598400393727,1536.2414910443
-0.261823838200724,1536.2514910443
-0.268168716458569,1536.2614910443
-0.274712059246717,1536.2714910443
-0.281211416516441,1536.2814910443
-0.287511794546427,1536.2914910443
-0.29397379803905,1536.3014910443
-0.300660810538381,1536.3114910443
-0.307501283399069,1536.3214910443
-0.314777214450191,1536.3314910443
-0.321440863830056,1536.3414910443
-0.328044994602189,1536.3514910443
-0.334339766404921,1536.3614910443
-0.340591744040263,1536.3714910443
-0.346411376570142,1536.3814910443
-0.35244286193601,1536.3914910443
-0.358099527394625,1536.4014910443
-0.363901169213798,1536.4114910443
-0.370167512981957,1536.4214910443
-0.376291301775106,1536.4314910443
-0.382583067356647,1536.4414910443
-0.388677266555926,1536.4514910443
-0.394877780911793,1536.4614910443
-0.400778581568943,1536.4714910443
-0.406105549043898,1536.4814910443
-0.412613459413287,1536.4914910443
-0.419031757693669,1536.5014910443
-0.42548251640708,1536.5114910443
-0.43222388315138,1536.5214910443
-0.438603423682568,1536.5314910443
-0.445111955102071,1536.5414910443
-0.45147554210633,1536.5514910443
-0.456743124415273,1536.5614910443
-0.4622824261991,1536.5714910443
-0.467735009406118,1536.5814910443
-0.473765940355484,1536.5914910443
-0.479983031787942,1536.6014910443
-0.486363926585439,1536.6114910443
-0.491546517168494,1536.6214910443
-0.496182603214173,1536.6314910443
-0.500568118628192,1536.6414910443
-0.505106660804809,1536.6514910443
-0.509879933193153,1536.6614910443
-0.515286047312918,1536.6714910443
-0.521543414923548,1536.6814910443
-0.527125882895924,1536.6914910443
-0.532458975111917,1536.7014910443
-0.537054539358955,1536.7114910443
-0.541322174248383,1536.7214910443
-0.543912326061789,1536.7314910443
-0.543314649453365,1536.7414910443
-0.536971916243071,1536.7514910443
-0.522597610275034,1536.7614910443
-0.499266737876747,1536.7714910443
-0.468083656026734,1536.7814910443
-0.43124959158849,1536.7914910443
-0.390915259531954,1536.8014910443
-0.350217358981143,1536.8114910443
-0.31169614462551,1536.8214910443
-0.276278378496887,1536.8314910443
-0.246191960074056,1536.8414910443
-0.221796146953206,1536.8514910443
-0.203364621383977,1536.8614910443
-0.19053237334488,1536.8714910443
-0.181673951481416,1536.8814910443
-0.175648893789381,1536.8914910443
-0.171641833997285,1536.9014910443
-0.169050458570444,1536.9114910443
-0.167133942525181,1536.9214910443
-0.165512152640629,1536.9314910443
-0.164198862290675,1536.9414910443
-0.163122726849381,1536.9514910443
-0.161619571235926,1536.9614910443
-0.15995319931071,1536.9714910443
-0.157933750696023,1536.9814910443
-0.156072174574844,1536.9914910443
-0.154281685873843,1537.0014910443
-0.153620485253274,1537.0114910443
-0.154268132574388,1537.0214910443
-0.155522184830636,1537.0314910443
-0.157512268276699,1537.0414910443
-0.158975782879861,1537.0514910443
-0.160285389015767,1537.0614910443
-0.160159380283738,1537.0714910443
-0.15895294452828,1537.0814910443
-0.156411756560535,1537.0914910443
-0.153044931112806,1537.1014910443
-0.149282299917694,1537.1114910443
-0.145085029107318,1537.1214910443
-0.141135144343858,1537.1314910443
-0.136934174049549,1537.1414910443
-0.132855781301917,1537.1514910443
-0.129451121923095,1537.1614910443
-0.126594828571372,1537.1714910443
-0.12492163819283,1537.1814910443
-0.124548289216838,1537.1914910443
-0.124410993884858,1537.2014910443
-0.124857278189872,1537.2114910443
-0.12576303407106,1537.2214910443
-0.127237892023557,1537.2314910443
-0.129309495125566,1537.2414910443
-0.131866785701295,1537.2514910443
-0.134612260107927,1537.2614910443
-0.137901063347379,1537.2714910443
-0.141725341571484,1537.2814910443
-0.145672556364994,1537.2914910443
-0.150054439055949,1537.3014910443
-0.154738434809388,1537.3114910443
-0.159541415243383,1537.3214910443
-0.164348205455103,1537.3314910443
-0.169379532428694,1537.3414910443
-0.174536662895283,1537.3514910443
-0.179818321522639,1537.3614910443
-0.184570569144273,1537.3714910443
-0.189238237606755,1537.3814910443
-0.193757895861656,1537.3914910443
-0.197763081594871,1537.4014910443
-0.201865723630479,1537.4114910443
-0.205737373919514,1537.4214910443
-0.210029138570887,1537.4314910443
-0.214197085913422,1537.4414910443
-0.218926739726763,1537.4514910443
-0.224277568843736,1537.4614910443
-0.22927216205753,1537.4714910443
-0.234488002883071,1537.4814910443
-0.239970518995832,1537.4914910443
-0.245095213332681,1537.5014910443
-0.250021613682523,1537.5114910443
-0.254565751202729,1537.5214910443
-0.259007122735308,1537.5314910443
-0.263552858503018,1537.5414910443
-0.268157466978394,1537.5514910443
-0.272832351783596,1537.5614910443
-0.277736748423359,1537.5714910443
-0.282136864595844,1537.5814910443
-0.286683122595167,1537.5914910443
-0.291248958778378,1537.6014910443
-0.296689445521658,1537.6114910443
-0.301948080969862,1537.6214910443
-0.307789393461291,1537.6314910443
-0.313445276625561,1537.6414910443
-0.317901411247662,1537.6514910443
-0.322356418148672,1537.6614910443
-0.326507674664135,1537.6714910443
-0.330937552687674,1537.6814910443
-0.336151070805626,1537.6914910443
-0.34106330917462,1537.7014910443
-0.345884014350902,1537.7114910443
-0.350603589537652,1537.7214910443
-0.354674323815554,1537.7314910443
-0.358620227858547,1537.7414910443
-0.362356085073575,1537.7514910443
-0.36662378348088,1537.7614910443
-0.371843743448158,1537.7714910443
-0.377188493854616,1537.7814910443
-0.383081212297666,1537.7914910443
-0.388662387453609,1537.8014910443
-0.394129082544149,1537.8114910443
-0.398922467585991,1537.8214910443
-0.403318739693367,1537.8314910443
-0.407231428721489,1537.8414910443
-0.410727853959381,1537.8514910443
-0.414828865356861,1537.8614910443
-0.418944624907701,1537.8714910443
-0.423318876844839,1537.8814910443
-0.428261579916649,1537.8914910443
-0.432484625023305,1537.9014910443
-0.434472588327165,1537.9114910443
-0.431345082687577,1537.9214910443
-0.420396650733638,1537.9314910443
-0.399866382529177,1537.9414910443
-0.370195007097776,1537.9514910443
-0.332958572216238,1537.9614910443
-0.290895308159789,1537.9714910443
-0.246923577653062,1537.9814910443
-0.203706083902002,1537.9914910443
-0.16403064047115,1538.0014910443
-0.129066227816159,1538.0114910443
-0.0993908215667151,1538.0214910443
-0.0748316476238407,1538.0314910443
-0.056157343345989,1538.0414910443
-0.042499501770558,1538.0514910443
-0.0321202721855338,1538.0614910443
-0.02401334355112,1538.0714910443
-0.0175525925927579,1538.0814910443
-0.0122821825891296,1538.0914910443
-0.00754231076174052,1538.1014910443
-0.00278159477491018,1538.1114910443
0.0024183494712366,1538.1214910443
0.00751676701457654,1538.1314910443
0.013367197580664,1538.1414910443
0.0194166920238002,1538.1514910443
0.0256223914315812,1538.1614910443
0.0314913009846789,1538.1714910443
0.036162886087441,1538.1814910443
0.0388338995591444,1538.1914910443
0.0400837250318752,1538.2014910443
0.0391974098633859,1538.2114910443
0.0375457098530718,1538.2214910443
0.035804241581517,1538.2314910443
0.0346714401705115,1538.2414910443
0.0345680017412562,1538.2514910443
0.0353125283771653,1538.2614910443
0.037222628329192,1538.2714910443
0.0407471859259178,1538.2814910443
0.0446868746707355,1538.2914910443
0.0492208082034157,1538.3014910443
0.0544610358532272,1538.3114910443
0.0603158551422535,1538.3214910443
0.0657252661564314,1538.3314910443
0.0703655379933663,1538.3414910443
0.0742808891508773,1538.3514910443
0.0774033109134148,1538.3614910443
0.0796304826687519,1538.3714910443
0.0805271910077223,1538.3814910443
0.0807430701507407,1538.3914910443
0.0801449763253908,1538.4014910443
0.0790905426375678,1538.4114910443
0.0767835737117612,1538.4214910443
0.073957127142899,1538.4314910443
0.0699848326689748,1538.4414910443
0.0657521480045137,1538.4514910443
0.0614622875155488,1538.4614910443
0.0566582445605915,1538.4714910443
0.0515410616051292,1538.4814910443
0.0461268189639434,1538.4914910443
0.0407699623292972,1538.5014910443
0.0354409169278812,1538.5114910443
0.0299975207325173,1538.5214910443
0.0253258030655961,1538.5314910443
0.0209548863453623,1538.5414910443
0.0169392348690634,1538.5514910443
0.0131005256805567,1538.5614910443
0.00887678916257351,1538.5714910443
0.00438864864288598,1538.5814910443
-0.00021623075866112,1538.5914910443
-0.00478866227434568,1538.6014910443
-0.0100082261733932,1538.6114910443
-0.0152965507139527,1538.6214910443
-0.0203044170261239,1538.6314910443
-0.025353975694924,1538.6414910443
-0.0305754051263588,1538.6514910443
-0.0358640659117373,1538.6614910443
-0.0408972265208249,1538.6714910443
-0.0458865991948093,1538.6814910443
-0.0509353058044802,1538.6914910443
-0.056496561892215,1538.7014910443
-0.0614320209101799,1538.7114910443
-0.0663670388426247,1538.7214910443
-0.0715215295646972,1538.7314910443
-0.0763710943649306,1538.7414910443
-0.0820814766773495,1538.7514910443
-0.0878612971570438,1538.7614910443
-0.0931513196030729,1538.7714910443
-0.0980545089463747,1538.7814910443
-0.103075972907278,1538.7914910443
-0.107682613009668,1538.8014910443
-0.113209436673371,1538.8114910443
-0.118615072537898,1538.8214910443
-0.123328748657445,1538.8314910443
-0.127785241247969,1538.8414910443
-0.132140997572323,1538.8514910443
-0.136474781134283,1538.8614910443
-0.141353120121048,1538.8714910443
-0.146604681923557,1538.8814910443
-0.151639698347199,1538.8914910443
-0.156868624964505,1538.9014910443
-0.162172298104529,1538.9114910443
-0.167485809313999,1538.9214910443
-0.172732602585772,1538.9314910443
-0.177649356190496,1538.9414910443
-0.182921018544866,1538.9514910443
-0.187954251893241,1538.9614910443
-0.193777930824268,1538.9714910443
-0.199541732024971,1538.9814910443
-0.204842225938646,1538.9914910443
-0.210304611644435,1539.0014910443
-0.215332015842901,1539.0114910443
-0.21998378235357,1539.0214910443
-0.224775728167066,1539.0314910443
-0.229173663323226,1539.0414910443
-0.233276845781189,1539.0514910443
-0.237276490906898,1539.0614910443
-0.241082683648344,1539.0714910443
-0.245089201684032,1539.0814910443
-0.249453999840163,1539.0914910443
-0.254130928979399,1539.1014910443
-0.259557759534024,1539.1114910443
-0.26581698611967,1539.1214910443
-0.272518498609661,1539.1314910443
-0.277602575547308,1539.1414910443
-0.280197010487539,1539.1514910443
-0.277585896148956,1539.1614910443
-0.267498067417675,1539.1714910443
-0.247784427093372,1539.1814910443
-0.218209182550845,1539.1914910443
-0.180122939367372,1539.2014910443
-0.134698333884773,1539.2114910443
-0.0854123745400653,1539.2214910443
-0.0346247386386878,1539.2314910443
0.0144396677938902,1539.2414910443
0.0596038415169822,1539.2514910443
0.0987601537831774,1539.2614910443
0.131480413102359,1539.2714910443
0.157140837571416,1539.2814910443
0.176900717428484,1539.2914910443
0.19148600473618,1539.3014910443
0.201775826791401,1539.3114910443
0.209419135106727,1539.3214910443
0.215245451575544,1539.3314910443
0.220076237978227,1539.3414910443
0.22469773992515,1539.3514910443
0.229535304609044,1539.3614910443
0.234555556480573,1539.3714910443
0.240218471740711,1539.3814910443
0.246162591086036,1539.3914910443
0.252680187937379,1539.4014910443
0.258733399845093,1539.4114910443
0.263802535381888,1539.4214910443
0.267602017505315,1539.4314910443
0.26955330634771,1539.4414910443
0.269265503345434,1539.4514910443
0.267627066526062,1539.4614910443
0.265970552428826,1539.4714910443
0.265239317509295,1539.4814910443
0.266179255386064,1539.4914910443
0.26854873918938,1539.5014910443
0.272016400067356,1539.5114910443
0.276097321776154,1539.5214910443
0.28011532504146,1539.5314910443
0.284019473992318,1539.5414910443
0.288132008921318,1539.5514910443
0.291734272283642,1539.5614910443
0.296355624442464,1539.5714910443
0.300800357692981,1539.5814910443
0.305060481563278,1539.5914910443
0.308752593498231,1539.6014910443
0.311403023094885,1539.6114910443
0.313395727781052,1539.6214910443
0.314022495557365,1539.6314910443
0.314088487551615,1539.6414910443
0.312644854722613,1539.6514910443
0.310296746803351,1539.6614910443
0.306896574325707,1539.6714910443
0.302523537447019,1539.6814910443
0.297173925805876,1539.6914910443
0.291268437617112,1539.7014910443
0.284913199431275,1539.7114910443
0.278262693890504,1539.7214910443
0.27162176750014,1539.7314910443
0.265266991157643,1539.7414910443
0.259293053777568,1539.7514910443
0.253335875265092,1539.7614910443
0.247178495310332,1539.7714910443
0.240905829370466,1539.7814910443
0.23468437975919,1539.7914910443
0.228222269049455,1539.8014910443
0.222341309251961,1539.8114910443
0.216076752121023,1539.8214910443
0.209607046574468,1539.8314910443
0.202852837979327,1539.8414910443
0.195728839509686,1539.8514910443
0.189217125443057,1539.8614910443
0.182559476653514,1539.8714910443
0.176789183744177,1539.8814910443
0.171149992414213,1539.8914910443
0.165470680750288,1539.9014910443
0.159706656877564,1539.9114910443
0.153383903782996,1539.9214910443
0.146946036412889,1539.9314910443
0.140241524018308,1539.9414910443
0.134044425726072,1539.9514910443
0.128342081494106,1539.9614910443
0.122396796901774,1539.9714910443
0.116889427806185,1539.9814910443
0.111433228656181,1539.9914910443
0.106446674251923,1540.0014910443
0.10095956071038,1540.0114910443
0.0950285295235574,1540.0214910443
0.0886827219779663,1540.0314910443
0.0817167064782633,1540.0414910443
0.0746032509911975,1540.0514910443
0.0676523771889044,1540.0614910443
0.0609245661246324,1540.0714910443
0.0542231586541366,1540.0814910443
0.0482355534441379,1540.0914910443
0.0424118687141577,1540.1014910443
0.0367435534026814,1540.1114910443
0.0306987988767371,1540.1214910443
0.0248971060579328,1540.1314910443
0.018237073508297,1540.1414910443
0.0116266989711413,1540.1514910443
0.00462399785505113,1540.1614910443
-0.00261208095955132,1540.1714910443
-0.00932305941024163,1540.1814910443
-0.0161900202079703,1540.1914910443
-0.0231133537769743,1540.2014910443
-0.0301445308233055,1540.2114910443
-0.0372638330422586,1540.2214910443
-0.0440474423187091,1540.2314910443
-0.0509179030466462,1540.2414910443
-0.057422042534166,1540.2514910443
-0.0636575409124216,1540.2614910443
-0.0697858892484859,1540.2714910443
-0.0755753537699323,1540.2814910443
-0.081261205087303,1540.2914910443
-0.0867378003631713,1540.3014910443
-0.0924966709606559,1540.3114910443
-0.0978422636122151,1540.3214910443
-0.103698681099135,1540.3314910443
-0.109844592234758,1540.3414910443
-0.116322653327627,1540.3514910443
-0.123318515283681,1540.3614910443
-0.130328903772172,1540.3714910443
-0.136891349823779,1540.3814910443
-0.141046374279889,1540.3914910443
-0.140779992306862,1540.4014910443
-0.133095989922145,1540.4114910443
-0.11520266946999,1540.4214910443
-0.086140786046299,1540.4314910443
-0.0459547015260697,1540.4414910443
0.00283868378721885,1540.4514910443
0.0578860834569375,1540.4614910443
0.115158002884456,1540.4714910443
0.170854472249757,1540.4814910443
0.222985305716796,1540.4914910443
0.268512583012844,1540.5014910443
0.306519435308131,1540.5114910443
0.336636896308576,1540.5214910443
0.359457925207093,1540.5314910443
0.376160717764418,1540.5414910443
0.388045544044167,1540.5514910443
0.396635247680272,1540.5614910443
0.402416532267224,1540.5714910443
0.406663359260443,1540.5814910443
0.410413301731753,1540.5914910443
0.413921763631141,1540.6014910443
0.418018585823675,1540.6114910443
0.422583857580466,1540.6214910443
0.427465615800575,1540.6314910443
0.43238367404011,1540.6414910443
0.437282680364892,1540.6514910443
0.44198332665035,1540.6614910443
0.445197188824469,1540.6714910443
0.447286108109532,1540.6814910443
0.447324244773352,1540.6914910443
0.445277437501458,1540.7014910443
0.442280211581402,1540.7114910443
0.438710872027938,1540.7214910443
0.434954052355892,1540.7314910443
0.432184005943883,1540.7414910443
0.430191033733367,1540.7514910443
0.429445166587298,1540.7614910443
0.430883558681787,1540.7714910443
0.433823220375836,1540.7814910443
0.437686495943383,1540.7914910443
0.442389635954047,1540.8014910443
0.446637786535998,1540.8114910443
0.451115840515897,1540.8214910443
0.454650521006232,1540.8314910443
0.457424755141027,1540.8414910443
0.459732622523587,1540.8514910443
0.460841735072269,1540.8614910443
0.460090581349513,1540.8714910443
0.457799645188011,1540.8814910443
0.454304305433463,1540.8914910443
0.449405540616402,1540.9014910443
0.444169242078741,1540.9114910443
0.437939113431423,1540.9214910443
0.431249048637783,1540.9314910443
0.423931427750043,1540.9414910443
0.41606937309617,1540.9514910443
0.407728698612345,1540.9614910443
0.399585000880293,1540.9714910443
0.390975433795861,1540.9814910443
0.382489015521471,1540.9914910443
0.374113229768181,1541.0014910443
0.365220555270253,1541.0114910443
0.356814990945368,1541.0214910443
0.34818317398397,1541.0314910443
0.340309816416279,1541.0414910443
0.332705717218942,1541.0514910443
0.325426948950584,1541.0614910443
0.317813907485307,1541.0714910443
0.31024374804017,1541.0814910443
0.302416837369502,1541.0914910443
0.294114462070847,1541.1014910443
0.286105146778845,1541.1114910443
0.278423788395999,1541.1214910443
0.270922879069764,1541.1314910443
0.263560663940677,1541.1414910443
0.2561514073033,1541.1514910443
0.248578728858533,1541.1614910443
0.241245053759618,1541.1714910443
0.232633829770895,1541.1814910443
0.224092546795756,1541.1914910443
0.215923217391269,1541.2014910443
0.20759982756033,1541.2114910443
0.199176745932931,1541.2214910443
0.190723517319704,1541.2314910443
0.181407238760534,1541.2414910443
0.172190606275421,1541.2514910443
0.163121386484486,1541.2614910443
0.154231815711407,1541.2714910443
0.146046713637043,1541.2814910443
0.138271646030811,1541.2914910443
0.130865315178057,1541.3014910443
0.124018487860677,1541.3114910443
0.116959688855071,1541.3214910443
0.109978205792149,1541.3314910443
0.103221484834385,1541.3414910443
0.0958717086832164,1541.3514910443
0.0884631054704449,1541.3614910443
0.0813401383515743,1541.3714910443
0.0739477527234152,1541.3814910443
0.0662502045117889,1541.3914910443
0.0588980918834637,1541.4014910443
0.051677081714011,1541.4114910443
0.04476727316363,1541.4214910443
0.037564389193068,1541.4314910443
0.0302763026936275,1541.4414910443
0.0228588171704715,1541.4514910443
0.0156787909286006,1541.4614910443
0.00844448217571603,1541.4714910443
0.00119252673257809,1541.4814910443
-0.00658266936118145,1541.4914910443
-0.0143308673216338,1541.5014910443
-0.0220549341623773,1541.5114910443
-0.0293890691000955,1541.5214910443
-0.036316373233002,1541.5314910443
-0.0432491810106111,1541.5414910443
-0.0496400481799655,1541.5514910443
-0.0560704994443427,1541.5614910443
-0.062361812355031,1541.5714910443
-0.0680909080516069,1541.5814910443
-0.0738243000961243,1541.5914910443
-0.0800081654507048,1541.6014910443
-0.0871567435006344,1541.6114910443
-0.0941165236153115,1541.6214910443
-0.101771875333774,1541.6314910443
-0.108345422469153,1541.6414910443
-0.112202855870328,1541.6514910443
-0.110342726166744,1541.6614910443
-0.0995538764713701,1541.6714910443
-0.0781162338690077,1541.6814910443
-0.0451001372430057,1541.6914910443
-0.00168244577031339,1541.7014910443
0.0502816032524131,1541.7114910443
0.106296714803445,1541.7214910443
0.163874632333482,1541.7314910443
0.219528871674635,1541.7414910443
0.269827425037181,1541.7514910443
0.312958980782872,1541.7614910443
0.348137358054847,1541.7714910443
0.375561322150472,1541.7814910443
0.396412251511812,1541.7914910443
0.412121895270674,1541.8014910443
0.423575940528619,1541.8114910443
0.432158884116466,1541.8214910443
0.437983009863761,1541.8314910443
0.441739392179146,1541.8414910443
0.444851066737873,1541.8514910443
0.447982872541817,1541.8614910443
0.451354452845145,1541.8714910443
0.455275206987022,1541.8814910443
0.459340963225132,1541.8914910443
0.464022163780653,1541.9014910443
0.468401871753655,1541.9114910443
0.471524594529576,1541.9214910443
0.472477075728003,1541.9314910443
0.471051387939594,1541.9414910443
0.467044159577278,1541.9514910443
0.461975404216629,1541.9614910443
0.455895614401408,1541.9714910443
0.450275864331799,1541.9814910443
0.445431913583981,1541.9914910443
0.441657542688453,1542.0014910443
0.439588422643989,1542.0114910443
0.438297105857729,1542.0214910443
0.438391296787857,1542.0314910443
0.439322591774396,1542.0414910443
0.441067636360982,1542.0514910443
0.442881126836762,1542.0614910443
0.44508115561047,1542.0714910443
0.44733216756493,1542.0814910443
0.449372574841317,1542.0914910443
0.451059022745507,1542.1014910443
0.452027810473483,1542.1114910443
0.452082159212538,1542.1214910443
0.450934097753696,1542.1314910443
0.448447150692167,1542.1414910443
0.444683160963785,1542.1514910443
0.439745680978544,1542.1614910443
0.434208131235411,1542.1714910443
0.426869235389705,1542.1814910443
0.418972287050414,1542.1914910443
0.410303733071277,1542.2014910443
0.401523440723937,1542.2114910443
0.392706671754088,1542.2214910443
0.383656261546969,1542.2314910443
0.374599212839255,1542.2414910443
0.365724046186926,1542.2514910443
0.356302107881096,1542.2614910443
0.346665285303945,1542.2714910443
0.337033427035096,1542.2814910443
0.327478203072383,1542.2914910443
0.318104361736255,1542.3014910443
0.309758842518188,1542.3114910443
0.302078868351699,1542.3214910443
0.294678719269577,1542.3314910443
0.287685960444802,1542.3414910443
0.280973704057422,1542.3514910443
0.273605282972903,1542.3614910443
0.26519694481967,1542.3714910443
0.256599163934835,1542.3814910443
0.247561097497962,1542.3914910443
0.238774361883209,1542.4014910443
0.230452720043662,1542.4114910443
0.222530881111391,1542.4214910443
0.21503754938669,1542.4314910443
0.207806931789843,1542.4414910443
0.200902805428727,1542.4514910443
0.193949707547715,1542.4614910443
0.186274492606894,1542.4714910443
0.178688281587537,1542.4814910443
0.170178644614978,1542.4914910443
0.16111410817202,1542.5014910443
0.151604145177871,1542.5114910443
0.14215406866601,1542.5214910443
0.133120373178489,1542.5314910443
0.124517238138941,1542.5414910443
0.115991635467169,1542.5514910443
0.107597250522097,1542.5614910443
0.0998773416088569,1542.5714910443
0.0924370002097068,1542.5814910443
0.0850992747971979,1542.5914910443
0.078150900386231,1542.6014910443
0.0703585452402398,1542.6114910443
0.062382961412982,1542.6214910443
0.0543286982063293,1542.6314910443
0.0463177284252962,1542.6414910443
0.0387540339024659,1542.6514910443
0.0313681980623952,1542.6614910443
0.0244499926821884,1542.6714910443
0.0171945121059288,1542.6814910443
0.00983815065639377,1542.6914910443
0.0019243580358888,1542.7014910443
-0.0064005285166303,1542.7114910443
-0.0150649253615456,1542.7214910443
-0.0237037043944082,1542.7314910443
-0.031641730162974,1542.7414910443
-0.03967232680199,1542.7514910443
-0.0474042803858143,1542.7614910443
-0.0554599679186265,1542.7714910443
-0.0629597399184916,1542.7814910443
-0.0704560482575556,1542.7914910443
-0.0783066895732363,1542.8014910443
-0.086484528905512,1542.8114910443
-0.0950747394581083,1542.8214910443
-0.103293523736744,1542.8314910443
-0.1111640670405,1542.8414910443
-0.119105394584548,1542.8514910443
-0.126255159693859,1542.8614910443
-0.133508288016957,1542.8714910443
-0.140666281502472,1542.8814910443
-0.147813012947908,1542.8914910443
-0.155442905666941,1542.9014910443
-0.163347222293838,1542.9114910443
-0.171338586525842,1542.9214910443
-0.177417726778287,1542.9314910443
-0.179478405173101,1542.9414910443
-0.17421957031663,1542.9514910443
-0.159232469406982,1542.9614910443
-0.133119079433538,1542.9714910443
