PPG,time
-0.0130577352725124,2458.57668548024
-0.0218618714167628,2458.58668548024
-0.0134313666460341,2458.59668548024
-0.0104598078978231,2458.60668548024
-0.00512222775461022,2458.61668548024
-0.00171637504406631,2458.62668548024
0.00241046388156822,2458.63668548024
0.0056081892379423,2458.64668548024
0.00868124333292456,2458.65668548024
0.0106638632391264,2458.66668548024
0.0122501754896633,2458.67668548024
0.0133498355948648,2458.68668548024
0.0140389912065064,2458.69668548024
0.0150101440963869,2458.70668548024
0.0151954818858174,2458.71668548024
0.015723781656932,2458.72668548024
0.0165299538905546,2458.73668548024
0.0176280813103851,2458.74668548024
0.0191722864050824,2458.75668548024
0.0215261996710832,2458.76668548024
0.0244386749513607,2458.77668548024
0.0279275212585862,2458.78668548024
0.0316187237531093,2458.79668548024
0.0348393523804709,2458.80668548024
0.0377475916569734,2458.81668548024
0.0399805023821875,2458.82668548024
0.0417432057080641,2458.83668548024
0.04279357864869,2458.84668548024
0.0433457815439447,2458.85668548024
0.0439081417981174,2458.86668548024
0.043972617646119,2458.87668548024
0.0438723594941623,2458.88668548024
0.043274879924372,2458.89668548024
0.0421828829969745,2458.90668548024
0.0406368267479554,2458.91668548024
0.0382451732487591,2458.92668548024
0.036116820106573,2458.93668548024
0.0332817785291049,2458.94668548024
0.0307223796525477,2458.95668548024
0.0282781310810262,2458.96668548024
0.02600692055157,2458.97668548024
0.0238453539023999,2458.98668548024
0.0216036490010865,2458.99668548024
0.0195212059222603,2459.00668548024
0.017390965917391,2459.01668548024
0.0147351619402914,2459.02668548024
0.011842592277709,2459.03668548024
0.00862201257911541,2459.04668548024
0.00526619537953586,2459.05668548024
0.00214824308384058,2459.06668548024
-0.00145393967866358,2459.07668548024
-0.00425475012492628,2459.08668548024
-0.00710530422579301,2459.09668548024
-0.00918781093424149,2459.10668548024
-0.0109819128296321,2459.11668548024
-0.0131402821520109,2459.12668548024
-0.0151227959427403,2459.13668548024
-0.0172685912655913,2459.14668548024
-0.0190848186715627,2459.15668548024
-0.0195151797439538,2459.16668548024
-0.0187432770488782,2459.17668548024
-0.0163419424195885,2459.18668548024
-0.0113662030828762,2459.19668548024
-0.00442068638233395,2459.20668548024
0.00528101550095026,2459.21668548024
0.0177219917737016,2459.22668548024
0.0328237243483563,2459.23668548024
0.0508848770029384,2459.24668548024
0.0697733796130376,2459.25668548024
0.0893136728068145,2459.26668548024
0.108110316564217,2459.27668548024
0.125718309630457,2459.28668548024
0.142005918277045,2459.29668548024
0.156751757708648,2459.30668548024
0.169090073704291,2459.31668548024
0.180206394656958,2459.32668548024
0.189688638822662,2459.33668548024
0.197597922488262,2459.34668548024
0.204252001043589,2459.35668548024
0.209816162094507,2459.36668548024
0.214271456859483,2459.37668548024
0.218371399667895,2459.38668548024
0.221233060508001,2459.39668548024
0.2231084508532,2459.40668548024
0.224954123726442,2459.41668548024
0.22631335249112,2459.42668548024
0.2278659006349,2459.43668548024
0.229258763915391,2459.44668548024
0.230684728296308,2459.45668548024
0.232510380550454,2459.46668548024
0.234545401149847,2459.47668548024
0.237159506410152,2459.48668548024
0.239900398534274,2459.49668548024
0.242617619567203,2459.50668548024
0.246157591956186,2459.51668548024
0.249763994626006,2459.52668548024
0.253780576986277,2459.53668548024
0.258318437018758,2459.54668548024
0.26235946934052,2459.55668548024
0.265199734267997,2459.56668548024
0.267121122464049,2459.57668548024
0.268436482519436,2459.58668548024
0.268820730237197,2459.59668548024
0.268367910412185,2459.60668548024
0.26761470341406,2459.61668548024
0.266376269005245,2459.62668548024
0.265926621488167,2459.63668548024
0.265789860894491,2459.64668548024
0.265707293544658,2459.65668548024
0.265846305267315,2459.66668548024
0.266131811308671,2459.67668548024
0.266521028844435,2459.68668548024
0.265648498298362,2459.69668548024
0.264638424203153,2459.70668548024
0.263056583928148,2459.71668548024
0.260701744744826,2459.72668548024
0.257946921493366,2459.73668548024
0.254678757500255,2459.74668548024
0.25134830905002,2459.75668548024
0.247568050563921,2459.76668548024
0.243096221296268,2459.77668548024
0.23873633045588,2459.78668548024
0.233562336613268,2459.79668548024
0.228291250361843,2459.80668548024
0.2220794211351,2459.81668548024
0.215540449601822,2459.82668548024
0.208246018096907,2459.83668548024
0.201827849292291,2459.84668548024
0.195406874982087,2459.85668548024
0.190336356445837,2459.86668548024
0.18555755480975,2459.87668548024
0.181061264963503,2459.88668548024
0.177017853353868,2459.89668548024
0.172592073487897,2459.90668548024
0.16822905836364,2459.91668548024
0.163626694031085,2459.92668548024
0.158619360336299,2459.93668548024
0.153021792636691,2459.94668548024
0.147456334707553,2459.95668548024
0.142253014984656,2459.96668548024
0.137142725314512,2459.97668548024
0.132846096175328,2459.98668548024
0.130067477454419,2459.99668548024
0.129280890279373,2460.00668548024
0.129928954843572,2460.01668548024
0.133508764562188,2460.02668548024
0.139705067540796,2460.03668548024
0.148179964395328,2460.04668548024
0.15873135141986,2460.05668548024
0.170635787439163,2460.06668548024
0.183371490557211,2460.07668548024
0.195853106131401,2460.08668548024
0.207468493856407,2460.09668548024
0.217729739452253,2460.10668548024
0.225798315155391,2460.11668548024
0.232236441431619,2460.12668548024
0.236721724786409,2460.13668548024
0.23966713098267,2460.14668548024
0.241816204537323,2460.15668548024
0.243299618070828,2460.16668548024
0.244326202272836,2460.17668548024
0.244703637775617,2460.18668548024
0.24481346390366,2460.19668548024
0.244147557873186,2460.20668548024
0.24263548252178,2460.21668548024
0.241060948494846,2460.22668548024
0.238729430434919,2460.23668548024
0.235818531210641,2460.24668548024
0.232869143832905,2460.25668548024
0.229379823448421,2460.26668548024
0.225545618908231,2460.27668548024
0.221704063401191,2460.28668548024
0.217800841455778,2460.29668548024
0.214933265482951,2460.30668548024
0.212527260293069,2460.31668548024
0.21051874463935,2460.32668548024
0.208972760517259,2460.33668548024
0.207792297888631,2460.34668548024
0.20644996643135,2460.35668548024
0.204892704037155,2460.36668548024
0.203416986418845,2460.37668548024
0.201403729451112,2460.38668548024
0.199262467940815,2460.39668548024
0.196881164657301,2460.40668548024
0.193796526681568,2460.41668548024
0.19128041751413,2460.42668548024
0.188449907291923,2460.43668548024
0.185389447555214,2460.44668548024
0.182232122541484,2460.45668548024
0.17942093860213,2460.46668548024
0.176034165509312,2460.47668548024
0.17220056999727,2460.48668548024
0.16918557326532,2460.49668548024
0.165766146486953,2460.50668548024
0.162835676954564,2460.51668548024
0.159238028798817,2460.52668548024
0.1551821755648,2460.53668548024
0.15055592320737,2460.54668548024
0.145757561652278,2460.55668548024
0.140503014518293,2460.56668548024
0.135328341700538,2460.57668548024
0.130552717400372,2460.58668548024
0.125404987010342,2460.59668548024
0.120214875727216,2460.60668548024
0.115533437038589,2460.61668548024
0.1106134150367,2460.62668548024
0.106229079049105,2460.63668548024
0.102071465232616,2460.64668548024
0.0973164897384512,2460.65668548024
0.09198952422239,2460.66668548024
0.0859067831282178,2460.67668548024
0.0804908736145245,2460.68668548024
0.0750318368930271,2460.69668548024
0.0700947526768267,2460.70668548024
0.0659665926338922,2460.71668548024
0.0624567194361598,2460.72668548024
0.0588438135625122,2460.73668548024
0.0546474166013572,2460.74668548024
0.0505278101183652,2460.75668548024
0.0455005461923291,2460.76668548024
0.0404873758161248,2460.77668548024
0.0348809567551627,2460.78668548024
0.0292647047966736,2460.79668548024
0.0239383414020129,2460.80668548024
0.0192605372738906,2460.81668548024
0.0154720614546485,2460.82668548024
0.0125247506205325,2460.83668548024
0.0116308496588109,2460.84668548024
0.0119673199664699,2460.85668548024
0.0138884212213619,2460.86668548024
0.0181131286035366,2460.87668548024
0.0243843583423076,2460.88668548024
0.0329788521203258,2460.89668548024
0.0444203193562069,2460.90668548024
0.0570464646221609,2460.91668548024
0.0705584167415401,2460.92668548024
0.0835001238015474,2460.93668548024
0.0949706284123704,2460.94668548024
0.105010903838979,2460.95668548024
0.11318126730662,2460.96668548024
0.120079465701536,2460.97668548024
0.125698092874369,2460.98668548024
0.129958830610523,2460.99668548024
0.132508254291884,2461.00668548024
0.133639198047174,2461.01668548024
0.133430179749808,2461.02668548024
0.133055778111105,2461.03668548024
0.132025778001354,2461.04668548024
0.131207748466681,2461.05668548024
0.129934434033882,2461.06668548024
0.128128093842655,2461.07668548024
0.125969549218238,2461.08668548024
0.122364381173774,2461.09668548024
0.118791658986719,2461.10668548024
0.11472398142851,2461.11668548024
0.110388939275821,2461.12668548024
0.106856473530685,2461.13668548024
0.103461390725768,2461.14668548024
0.100762402465995,2461.15668548024
0.0990094399943774,2461.16668548024
0.0969366327368013,2461.17668548024
0.0952951880600979,2461.18668548024
0.0936140734673854,2461.19668548024
0.0923441361637138,2461.20668548024
0.091949835890178,2461.21668548024
0.0921572135506975,2461.22668548024
0.0925034864099594,2461.23668548024
0.0923906798430573,2461.24668548024
0.0919517066103514,2461.25668548024
0.090546480606415,2461.26668548024
0.0883790095964656,2461.27668548024
0.0863067584952296,2461.28668548024
0.0843811746979359,2461.29668548024
0.0826907835466908,2461.30668548024
0.0809576290047927,2461.31668548024
0.0793343513871794,2461.32668548024
0.0762750986739806,2461.33668548024
0.0737085642001077,2461.34668548024
0.0707319987228419,2461.35668548024
0.0680534898263852,2461.36668548024
0.0656824192532102,2461.37668548024
0.0632709110077262,2461.38668548024
0.0601053853217614,2461.39668548024
0.0568040905986907,2461.40668548024
0.0528918910047369,2461.41668548024
0.0488171269654032,2461.42668548024
0.0448859119883511,2461.43668548024
0.0409292663169672,2461.44668548024
0.0372235489574725,2461.45668548024
0.0335834488331324,2461.46668548024
0.0292602040549725,2461.47668548024
0.0250536531089576,2461.48668548024
0.0205123175031635,2461.49668548024
0.0166150457352079,2461.50668548024
0.0127722666336185,2461.51668548024
0.00862389054053643,2461.52668548024
0.00377289240406116,2461.53668548024
-0.00114430338393975,2461.54668548024
-0.00556867752145385,2461.55668548024
-0.00954482855696769,2461.56668548024
-0.0132474102838387,2461.57668548024
-0.0168726578315183,2461.58668548024
-0.0210387193287527,2461.59668548024
-0.0252313945317884,2461.60668548024
-0.0295802193242999,2461.61668548024
-0.0338201522083836,2461.62668548024
-0.037764962988729,2461.63668548024
-0.0416879454250398,2461.64668548024
-0.0452077462089077,2461.65668548024
-0.047658335438548,2461.66668548024
-0.0490972729285829,2461.67668548024
-0.0485027141061653,2461.68668548024
-0.045379749693796,2461.69668548024
-0.0394108984637556,2461.70668548024
-0.0310912136623732,2461.71668548024
-0.0205904392988338,2461.72668548024
-0.00858611145238044,2461.73668548024
0.00427714837966253,2461.74668548024
0.0168535649190787,2461.75668548024
0.028472851171754,2461.76668548024
0.0394898389498533,2461.77668548024
0.0492979734169898,2461.78668548024
0.0578816966592654,2461.79668548024
0.0649869031873099,2461.80668548024
0.0709268797710858,2461.81668548024
0.0760672016205965,2461.82668548024
0.0800911335763347,2461.83668548024
0.0831234163829206,2461.84668548024
0.0854855320428931,2461.85668548024
0.0868070449315623,2461.86668548024
0.0879753368594597,2461.87668548024
0.0877211212630356,2461.88668548024
0.0870265953332555,2461.89668548024
0.0854551076342418,2461.90668548024
0.0831349410321135,2461.91668548024
0.0808355297836583,2461.92668548024
0.0777376539898427,2461.93668548024
0.0747290749828907,2461.94668548024
0.0717227746075453,2461.95668548024
0.0695641348147078,2461.96668548024
0.067573089688328,2461.97668548024
0.0660415856307321,2461.98668548024
0.064781211701876,2461.99668548024
0.0641831611543538,2462.00668548024
0.0638570170541761,2462.01668548024
0.0638062857647007,2462.02668548024
0.0643309881347759,2462.03668548024
0.0651683416068074,2462.04668548024
0.0658668251726681,2462.05668548024
0.0666367940871768,2462.06668548024
0.067094905629454,2462.07668548024
0.066904878416814,2462.08668548024
0.0665907227013572,2462.09668548024
0.0659036568058402,2462.10668548024
0.0650591533515232,2462.11668548024
0.0643091647006852,2462.12668548024
0.0634328366212437,2462.13668548024
0.0619909143077227,2462.14668548024
0.0600487787223338,2462.15668548024
0.0574336699287102,2462.16668548024
0.0548066266003359,2462.17668548024
0.0517352237698999,2462.18668548024
0.0489779743962452,2462.19668548024
0.0459583835106548,2462.20668548024
0.0434117988426481,2462.21668548024
0.0407309070452529,2462.22668548024
0.038187065619358,2462.23668548024
0.0353206650141078,2462.24668548024
0.0325658556081326,2462.25668548024
0.0293894261287733,2462.26668548024
0.0258877019362172,2462.27668548024
0.0222733415690905,2462.28668548024
0.018518422376916,2462.29668548024
0.0150260958032165,2462.30668548024
0.0118331467754763,2462.31668548024
0.00846304705839212,2462.32668548024
0.00482426363979724,2462.33668548024
0.00134059377628289,2462.34668548024
-0.00221594575611776,2462.35668548024
-0.00606941642777513,2462.36668548024
-0.00925612412545216,2462.37668548024
-0.0125413655831933,2462.38668548024
-0.0161655677828146,2462.39668548024
-0.0184255258312988,2462.40668548024
-0.0189219916515967,2462.41668548024
-0.0174285662549936,2462.42668548024
-0.0127243390799482,2462.43668548024
-0.00497565134958139,2462.44668548024
0.0051498898832574,2462.45668548024
0.0178839907073587,2462.46668548024
0.0323799265606393,2462.47668548024
0.048081452797735,2462.48668548024
0.0643521556603733,2462.49668548024
0.0799991390269043,2462.50668548024
0.0935427206080037,2462.51668548024
0.105910306443678,2462.52668548024
0.11644232221749,2462.53668548024
0.126022190813813,2462.54668548024
0.134577643950361,2462.55668548024
0.141379592415487,2462.56668548024
0.147443739185288,2462.57668548024
0.152622761860187,2462.58668548024
0.157105880350753,2462.59668548024
0.16130571345409,2462.60668548024
0.16463278409602,2462.61668548024
0.166964747715464,2462.62668548024
0.16840364938408,2462.63668548024
0.169194065788598,2462.64668548024
0.169702611523678,2462.65668548024
0.169564911569124,2462.66668548024
0.168987409992741,2462.67668548024
0.167950586959694,2462.68668548024
0.166409924262373,2462.69668548024
0.164013502632407,2462.70668548024
0.161538744582571,2462.71668548024
0.159500377263173,2462.72668548024
0.157725289059981,2462.73668548024
0.156967066503934,2462.74668548024
0.156922684221898,2462.75668548024
0.157735103744406,2462.76668548024
0.159293724670196,2462.77668548024
0.161426276079771,2462.78668548024
0.163272401641737,2462.79668548024
0.165254374936626,2462.80668548024
0.16672871690841,2462.81668548024
0.167922933616317,2462.82668548024
0.168335924588782,2462.83668548024
0.168274490565686,2462.84668548024
0.167170703411147,2462.85668548024
0.165695714708694,2462.86668548024
0.164156190265564,2462.87668548024
0.16264395593074,2462.88668548024
0.161323347759667,2462.89668548024
0.159613162611499,2462.90668548024
0.157990611626788,2462.91668548024
0.156122096049808,2462.92668548024
0.153803478481216,2462.93668548024
0.151234347039584,2462.94668548024
0.147863205613357,2462.95668548024
0.144171411982169,2462.96668548024
0.140428278638876,2462.97668548024
0.136386037434552,2462.98668548024
0.132725982632325,2462.99668548024
0.129035420489749,2463.00668548024
0.125387047133628,2463.01668548024
0.121771177530575,2463.02668548024
0.117881198035574,2463.03668548024
0.113514347372872,2463.04668548024
0.109264484060174,2463.05668548024
0.105009523722406,2463.06668548024
0.100173792120843,2463.07668548024
0.0953371289082533,2463.08668548024
0.0902347941371773,2463.09668548024
0.0852040972245963,2463.10668548024
0.0801992104850846,2463.11668548024
0.0748365118321927,2463.12668548024
0.069282084403485,2463.13668548024
0.0642021761254716,2463.14668548024
0.0595956573992262,2463.15668548024
0.0562917667962808,2463.16668548024
0.0551118626099957,2463.17668548024
0.0562999031008661,2463.18668548024
0.0604408202344193,2463.19668548024
0.0675820925350472,2463.20668548024
0.0780363313316904,2463.21668548024
0.0911015401660455,2463.22668548024
0.106892115345174,2463.23668548024
0.124136921996133,2463.24668548024
0.142818197829533,2463.25668548024
0.161428184726425,2463.26668548024
0.17919847357681,2463.27668548024
0.196123275726129,2463.28668548024
0.211294302327698,2463.29668548024
0.225178917820028,2463.30668548024
0.237201332698199,2463.31668548024
0.247177985566544,2463.32668548024
0.255761906787657,2463.33668548024
0.262734411829672,2463.34668548024
0.268518281440188,2463.35668548024
0.273626941645931,2463.36668548024
0.277946525072759,2463.37668548024
0.281578204869581,2463.38668548024
0.284538238850199,2463.39668548024
0.2870800393597,2463.40668548024
0.288777512352645,2463.41668548024
0.289238577009676,2463.42668548024
0.288645343620394,2463.43668548024
0.287024971851218,2463.44668548024
0.285275000568484,2463.45668548024
0.283125621935089,2463.46668548024
0.280677970232639,2463.47668548024
0.278847997276425,2463.48668548024
0.277377925235436,2463.49668548024
0.275985946393344,2463.50668548024
0.274502826864127,2463.51668548024
0.273379136982468,2463.52668548024
0.272058499570336,2463.53668548024
0.271110518402675,2463.54668548024
0.270584942079476,2463.55668548024
0.270866739918059,2463.56668548024
0.271139531412107,2463.57668548024
0.271854725944463,2463.58668548024
0.271917406222168,2463.59668548024
0.270749856286834,2463.60668548024
0.26908743074955,2463.61668548024
0.266450687072959,2463.62668548024
0.262969639949044,2463.63668548024
0.259265426788648,2463.64668548024
0.255106997766643,2463.65668548024
0.251038179996388,2463.66668548024
0.247215268896859,2463.67668548024
0.243576924076579,2463.68668548024
0.239511385841847,2463.69668548024
0.235665577303839,2463.70668548024
0.230813612591319,2463.71668548024
0.22518582891062,2463.72668548024
0.218788677456306,2463.73668548024
0.21201499051806,2463.74668548024
0.205264593058358,2463.75668548024
0.198811763267285,2463.76668548024
0.192578843010393,2463.77668548024
0.186317249848848,2463.78668548024
0.18034230285812,2463.79668548024
0.174510592219365,2463.80668548024
0.168944973142733,2463.81668548024
0.163176364406474,2463.82668548024
0.157684519755809,2463.83668548024
0.152057352380881,2463.84668548024
0.14584370571948,2463.85668548024
0.139638122495966,2463.86668548024
0.133406638294131,2463.87668548024
0.126556950204298,2463.88668548024
0.120010872114253,2463.89668548024
0.113446686278933,2463.90668548024
0.107307367244121,2463.91668548024
0.101558166868717,2463.92668548024
0.0960265198252503,2463.93668548024
0.0900810119493173,2463.94668548024
0.0834892897087753,2463.95668548024
0.0769696698561915,2463.96668548024
0.071281569266595,2463.97668548024
0.0663386154925253,2463.98668548024
0.0633099667819529,2463.99668548024
0.0628963340664009,2464.00668548024
0.065029512351031,2464.01668548024
0.071294637994335,2464.02668548024
0.080879387149745,2464.03668548024
0.0934316928181016,2464.04668548024
0.10965611127881,2464.05668548024
0.128120943446314,2464.06668548024
0.148826906044085,2464.07668548024
0.170209025531597,2464.08668548024
0.192143562468398,2464.09668548024
0.212937356570922,2464.10668548024
0.231786826417557,2464.11668548024
0.247887329533664,2464.12668548024
0.261787654147416,2464.13668548024
0.273793605414803,2464.14668548024
0.284292412698501,2464.15668548024
0.293280268150008,2464.16668548024
0.300685316600268,2464.17668548024
0.307218545771284,2464.18668548024
0.313052109806617,2464.19668548024
0.317821302556406,2464.20668548024
0.322028078847611,2464.21668548024
0.325297590642539,2464.22668548024
0.327315210997486,2464.23668548024
0.328360451148299,2464.24668548024
0.327975952535365,2464.25668548024
0.326185084805691,2464.26668548024
0.323387333950484,2464.27668548024
0.320248354837268,2464.28668548024
0.317453480378868,2464.29668548024
0.314537313605786,2464.30668548024
0.311909055329983,2464.31668548024
0.30875804418371,2464.32668548024
0.305198872723327,2464.33668548024
0.301922721926789,2464.34668548024
0.298910594027936,2464.35668548024
0.296994730160109,2464.36668548024
0.29597340506397,2464.37668548024
0.295503586348288,2464.38668548024
0.294970320159575,2464.39668548024
0.294623930585122,2464.40668548024
0.293945999865582,2464.41668548024
0.293182813994696,2464.42668548024
0.292053098624918,2464.43668548024
0.290323997291732,2464.44668548024
0.287354227574005,2464.45668548024
0.28415421404259,2464.46668548024
0.279964155233132,2464.47668548024
0.275876222418695,2464.48668548024
0.27140718781784,2464.49668548024
0.266706786712204,2464.50668548024
0.262021813332028,2464.51668548024
0.256668278474953,2464.52668548024
0.251097762458819,2464.53668548024
0.245663418630825,2464.54668548024
0.239869142158896,2464.55668548024
0.233837822111394,2464.56668548024
0.227216804906654,2464.57668548024
0.220500413331845,2464.58668548024
0.213418355934082,2464.59668548024
0.206345897472793,2464.60668548024
0.19982717391604,2464.61668548024
0.193335159616149,2464.62668548024
0.187370032995907,2464.63668548024
0.181206651378535,2464.64668548024
0.174655174512991,2464.65668548024
0.168029246959513,2464.66668548024
0.161439445241427,2464.67668548024
0.154784460517799,2464.68668548024
0.147765748868824,2464.69668548024
0.140834749991949,2464.70668548024
0.134257241019337,2464.71668548024
0.12802334441845,2464.72668548024
0.122030677840433,2464.73668548024
0.115970116486041,2464.74668548024
0.109687112583391,2464.75668548024
0.103146520856268,2464.76668548024
0.0958504742014395,2464.77668548024
0.0885481630450122,2464.78668548024
0.0815742448328954,2464.79668548024
0.0756123669213255,2464.80668548024
0.0698057341415128,2464.81668548024
0.0648353478513752,2464.82668548024
0.0610569683711347,2464.83668548024
0.0598890110561832,2464.84668548024
0.0616166275054656,2464.85668548024
0.0674885142643188,2464.86668548024
0.0772505683512561,2464.87668548024
0.0906787321644921,2464.88668548024
0.107997356263944,2464.89668548024
0.12837350942708,2464.90668548024
0.15074164136,2464.91668548024
0.174180563265278,2464.92668548024
0.197712145527507,2464.93668548024
0.219849359391714,2464.94668548024
0.240749645958163,2464.95668548024
0.259060729336463,2464.96668548024
0.274185552558531,2464.97668548024
0.287057416290356,2464.98668548024
0.297508651237547,2464.99668548024
0.306063399824062,2465.00668548024
0.313879101441148,2465.01668548024
0.320177514561795,2465.02668548024
0.325673445605736,2465.03668548024
0.330402732837397,2465.04668548024
0.333961590237206,2465.05668548024
0.335998072167016,2465.06668548024
0.3368834622781,2465.07668548024
0.33573466153916,2465.08668548024
0.333412476524691,2465.09668548024
0.329940785999164,2465.10668548024
0.325955620626608,2465.11668548024
0.322149556143422,2465.12668548024
0.317808882017319,2465.13668548024
0.31314182470223,2465.14668548024
0.308260483730898,2465.15668548024
0.303395324880474,2465.16668548024
0.298536825474974,2465.17668548024
0.294256897822124,2465.18668548024
0.290972222667928,2465.19668548024
0.288164125012745,2465.20668548024
0.286156139815891,2465.21668548024
0.284970719425408,2465.22668548024
0.284067027606309,2465.23668548024
0.283137437070492,2465.24668548024
0.281737591374432,2465.25668548024
0.280787468360719,2465.26668548024
0.279861647873717,2465.27668548024
0.278459710819101,2465.28668548024
0.276739600690102,2465.29668548024
0.274204702043776,2465.30668548024
0.270389390299321,2465.31668548024
0.265838938423713,2465.32668548024
0.260957111884768,2465.33668548024
0.255690653454367,2465.34668548024
0.249958827723266,2465.35668548024
0.243853093372694,2465.36668548024
0.238288843671592,2465.37668548024
0.231916324391338,2465.38668548024
0.225032214995876,2465.39668548024
0.217417800263321,2465.40668548024
0.208923364657735,2465.41668548024
0.200595950234178,2465.42668548024
0.191870016570011,2465.43668548024
0.184074304013885,2465.44668548024
0.176546471215453,2465.45668548024
0.169001993780926,2465.46668548024
0.162015239216629,2465.47668548024
0.154802200314649,2465.48668548024
0.148193485170931,2465.49668548024
0.141593460777896,2465.50668548024
0.134270419679946,2465.51668548024
0.126901975363606,2465.52668548024
0.119565540546526,2465.53668548024
0.112374728683593,2465.54668548024
0.105964591145976,2465.55668548024
0.0993386110314772,2465.56668548024
0.0930106647330054,2465.57668548024
0.0863275810012705,2465.58668548024
0.0793152065155051,2465.59668548024
0.0722962051116009,2465.60668548024
0.0650938604687767,2465.61668548024
0.0576933245146761,2465.62668548024
0.0502420783513065,2465.63668548024
0.0437082755092266,2465.64668548024
0.038080888572787,2465.65668548024
0.0341644813469542,2465.66668548024
0.0319849336067426,2465.67668548024
0.0321811386827718,2465.68668548024
0.0353151373734413,2465.69668548024
0.0421131424810305,2465.70668548024
0.0531222838007007,2465.71668548024
0.0681328831112356,2465.72668548024
0.0867689877783975,2465.73668548024
0.108417358439096,2465.74668548024
0.132107911325649,2465.75668548024
0.156527824595826,2465.76668548024
0.180051949884947,2465.77668548024
0.201878407401254,2465.78668548024
0.221448412272922,2465.79668548024
0.238789449512031,2465.80668548024
0.25345916691385,2465.81668548024
0.264756534171211,2465.82668548024
0.2732211847978,2465.83668548024
0.279499727571591,2465.84668548024
0.284278424681691,2465.85668548024
0.288024594124041,2465.86668548024
0.290560799592545,2465.87668548024
0.292527185364153,2465.88668548024
0.293863733654929,2465.89668548024
0.293907867739757,2465.90668548024
0.293070867695663,2465.91668548024
0.291184013274569,2465.92668548024
0.287699804837283,2465.93668548024
0.283035439011127,2465.94668548024
0.27741856780177,2465.95668548024
0.271073249925328,2465.96668548024
0.264623451655856,2465.97668548024
0.25865182062576,2465.98668548024
0.253434198702335,2465.99668548024
0.248627195825712,2466.00668548024
0.244706385820874,2466.01668548024
0.240962038899568,2466.02668548024
0.237579651585388,2466.03668548024
0.234746503595199,2466.04668548024
0.232053944806275,2466.05668548024
0.229694547879605,2466.06668548024
0.227127849677196,2466.07668548024
0.225051382926377,2466.08668548024
0.222604918164524,2466.09668548024
0.220477303199714,2466.10668548024
0.217682094874412,2466.11668548024
0.214467315918235,2466.12668548024
0.210649829039298,2466.13668548024
0.206062226997428,2466.14668548024
0.201150350321967,2466.15668548024
0.195814000997834,2466.16668548024
0.190486059264086,2466.17668548024
0.185674923443069,2466.18668548024
0.180663761713972,2466.19668548024
0.175519319633332,2466.20668548024
0.170132946728702,2466.21668548024
0.163987251145637,2466.22668548024
0.1570767609484,2466.23668548024
0.149114911101908,2466.24668548024
0.140779443476853,2466.25668548024
0.132419001076839,2466.26668548024
0.124141345590612,2466.27668548024
0.115931300600693,2466.28668548024
0.107782742938043,2466.29668548024
0.100050129554717,2466.30668548024
0.0927523993949194,2466.31668548024
0.0857903060800486,2466.32668548024
0.0792787459033195,2466.33668548024
0.0726325516030854,2466.34668548024
0.0653506782534647,2466.35668548024
0.0580637024871975,2466.36668548024
0.0502534355457942,2466.37668548024
0.0426983114081188,2466.38668548024
0.035249511155762,2466.39668548024
0.0283244980448445,2466.40668548024
0.0218354096928733,2466.41668548024
0.0157183599337263,2466.42668548024
0.00923970093113033,2466.43668548024
0.00245782992957087,2466.44668548024
-0.00513405912377164,2466.45668548024
-0.0127208136197231,2466.46668548024
-0.0198584124219395,2466.47668548024
-0.0263116789876251,2466.48668548024
-0.0310811662607029,2466.49668548024
-0.0330363878735686,2466.50668548024
-0.0315756916847688,2466.51668548024
-0.0260926651321504,2466.52668548024
-0.016127833254846,2466.53668548024
-0.00224390306307398,2466.54668548024
0.0149687161699245,2466.55668548024
0.0354885448675283,2466.56668548024
0.0576409935143731,2466.57668548024
0.0805987169428265,2466.58668548024
0.10320394927166,2466.59668548024
0.123829112121572,2466.60668548024
0.142311916030196,2466.61668548024
0.157734405017484,2466.62668548024
0.170462899207205,2466.63668548024
0.180183399334747,2466.64668548024
0.187515941555644,2466.65668548024
0.192559422371097,2466.66668548024
0.195970084322008,2466.67668548024
0.198084346783527,2466.68668548024
0.199028609848338,2466.69668548024
0.198933545625632,2466.70668548024
0.197520274168095,2466.71668548024
0.195111189655033,2466.72668548024
0.191927719828535,2466.73668548024
0.187713913111757,2466.74668548024
0.182688077092271,2466.75668548024
0.177515838297664,2466.76668548024
0.171407013173574,2466.77668548024
0.166134538825127,2466.78668548024
0.160607904568905,2466.79668548024
0.155626975783968,2466.80668548024
0.151216864341877,2466.81668548024
0.147227400901607,2466.82668548024
0.144266309053014,2466.83668548024
0.142510303339745,2466.84668548024
0.141927718469527,2466.85668548024
0.141954553743465,2466.86668548024
0.142523459415306,2466.87668548024
0.14266584830859,2466.88668548024
0.142222441868945,2466.89668548024
0.141387095890968,2466.90668548024
0.139452833867678,2466.91668548024
0.136985116326361,2466.92668548024
0.133849515467773,2466.93668548024
0.130579433932729,2466.94668548024
0.12776671536032,2466.95668548024
0.125163811915315,2466.96668548024
0.122803318152912,2466.97668548024
0.119750683710847,2466.98668548024
0.116084061399988,2466.99668548024
0.111578116897512,2467.00668548024
0.106790264601688,2467.01668548024
0.101503941136816,2467.02668548024
0.0956884083302938,2467.03668548024
0.08966935275894,2467.04668548024
0.0839128057852015,2467.05668548024
0.0776782873141773,2467.06668548024
0.0707857388167568,2467.07668548024
0.0650179299164198,2467.08668548024
0.0586207032510813,2467.09668548024
0.0529091406341741,2467.10668548024
0.0468489815438926,2467.11668548024
0.0409859476425818,2467.12668548024
0.0347390502081201,2467.13668548024
0.0286834543979944,2467.14668548024
0.0228719451431704,2467.15668548024
0.0169565424988445,2467.16668548024
0.0113176452735686,2467.17668548024
0.00561903282774681,2467.18668548024
-5.67869032977519e-05,2467.19668548024
-0.006013549850672,2467.20668548024
-0.012648872607089,2467.21668548024
-0.0187346391304435,2467.22668548024
-0.0249104015597286,2467.23668548024
-0.0306225812283365,2467.24668548024
-0.0346542023708865,2467.25668548024
-0.0367947564637918,2467.26668548024
-0.0359134847364445,2467.27668548024
-0.0319730877185232,2467.28668548024
-0.0244490499864894,2467.29668548024
-0.0127754412899688,2467.30668548024
0.00208075665861853,2467.31668548024
0.0194398715763677,2467.32668548024
0.0382035783382832,2467.33668548024
0.0574183762606319,2467.34668548024
0.0760882158440027,2467.35668548024
0.0932489169449789,2467.36668548024
0.108478233958805,2467.37668548024
0.120741881587922,2467.38668548024
0.130823253331443,2467.39668548024
0.138550971991875,2467.40668548024
0.144479837819348,2467.41668548024
0.148427269162877,2467.42668548024
0.15089389822003,2467.43668548024
0.151879186374605,2467.44668548024
0.15178685328089,2467.45668548024
0.150967648115495,2467.46668548024
0.149243162089151,2467.47668548024
0.147046451925995,2467.48668548024
0.143914148793297,2467.49668548024
0.140530130997545,2467.50668548024
0.1370893662296,2467.51668548024
0.132968957810253,2467.52668548024
0.128987968484735,2467.53668548024
0.124489378550832,2467.54668548024
0.120049609466108,2467.55668548024
0.115899157957711,2467.56668548024
0.111874660833951,2467.57668548024
0.108957875212861,2467.58668548024
0.107235815451573,2467.59668548024
0.106069709409675,2467.60668548024
0.106240488359572,2467.61668548024
0.106564386865829,2467.62668548024
0.106970283225213,2467.63668548024
0.107799564817219,2467.64668548024
0.108504057558103,2467.65668548024
0.108640498397526,2467.66668548024
0.107949454904866,2467.67668548024
0.106619716887015,2467.68668548024
0.104784282845536,2467.69668548024
0.1023398902207,2467.70668548024
0.100317128845315,2467.71668548024
0.0977385315488182,2467.72668548024
0.09518721116314,2467.73668548024
0.0921011988606268,2467.74668548024
0.0884557667133098,2467.75668548024
0.0842983030634473,2467.76668548024
0.0796168349957427,2467.77668548024
0.074656805283702,2467.78668548024
0.0691800667176812,2467.79668548024
0.0641067007017468,2467.80668548024
0.0586211839568897,2467.81668548024
0.0534344774742021,2467.82668548024
0.047887808758056,2467.83668548024
0.0425419567809702,2467.84668548024
0.0375997144028391,2467.85668548024
0.0323581032119021,2467.86668548024
0.0271411021294702,2467.87668548024
0.0217083031777459,2467.88668548024
0.0161358817234668,2467.89668548024
0.0103686837458957,2467.90668548024
0.00400496682773282,2467.91668548024
-0.0022987100928315,2467.92668548024
-0.00911176976213298,2467.93668548024
-0.0153364839469972,2467.94668548024
-0.0212168341126242,2467.95668548024
-0.0260252175152482,2467.96668548024
-0.0303110327546107,2467.97668548024
-0.0336395051498619,2467.98668548024
-0.034685498406696,2467.99668548024
-0.0339935235232869,2468.00668548024
-0.0304277426518724,2468.01668548024
-0.0233464703374826,2468.02668548024
-0.013855924254059,2468.03668548024
-0.00128474185487598,2468.04668548024
0.0126454123643557,2468.05668548024
0.0283138327282895,2468.06668548024
0.0437327859732652,2468.07668548024
0.059096072736709,2468.08668548024
0.0731617370917734,2468.09668548024
0.0852081916253702,2468.10668548024
0.095457500682087,2468.11668548024
0.103503639414479,2468.12668548024
0.109087111934896,2468.13668548024
0.112706117136811,2468.14668548024
0.115371968483104,2468.15668548024
0.117364641352622,2468.16668548024
0.118852061772397,2468.17668548024
0.119883647019064,2468.18668548024
0.120558380391452,2468.19668548024
0.120805119542688,2468.20668548024
0.120466729164842,2468.21668548024
0.119652193402601,2468.22668548024
0.117929725782863,2468.23668548024
0.11576915822153,2468.24668548024
0.112478542141869,2468.25668548024
0.10874625700478,2468.26668548024
0.104590771118299,2468.27668548024
0.100158020092857,2468.28668548024
0.0959624140655555,2468.29668548024
0.0930182390794345,2468.30668548024
0.0902375806264082,2468.31668548024
0.0883253644348137,2468.32668548024
0.0865857830913044,2468.33668548024
0.085446785350739,2468.34668548024
0.0845651510741375,2468.35668548024
0.0845150475555994,2468.36668548024
0.0846927647622243,2468.37668548024
0.0850919949253669,2468.38668548024
0.0850668876577924,2468.39668548024
0.0844761838915417,2468.40668548024
0.0828084134760708,2468.41668548024
0.0806979023090362,2468.42668548024
0.0774215934026682,2468.43668548024
0.0733768565790549,2468.44668548024
0.0696500571688319,2468.45668548024
0.0659648855544579,2468.46668548024
0.0624246670786611,2468.47668548024
0.0587596714800644,2468.48668548024
0.0553296271895565,2468.49668548024
0.051573998396418,2468.50668548024
0.0473515286074094,2468.51668548024
0.0430789882788656,2468.52668548024
0.0382183588031606,2468.53668548024
0.0332868801574506,2468.54668548024
0.0286029512749493,2468.55668548024
0.0239833579871992,2468.56668548024
0.0194508877220734,2468.57668548024
0.0146670729746124,2468.58668548024
0.00984932677172673,2468.59668548024
0.00495546987496158,2468.60668548024
-0.000396222967804821,2468.61668548024
-0.00532260804367454,2468.62668548024
-0.0104443880829253,2468.63668548024
-0.0159856108492907,2468.64668548024
-0.0220050118817581,2468.65668548024
-0.0283612182064818,2468.66668548024
-0.0347808366524369,2468.67668548024
-0.0411671801212998,2468.68668548024
-0.047453939334662,2468.69668548024
-0.0530321259459372,2468.70668548024
-0.0581378038805256,2468.71668548024
-0.0615720921176191,2468.72668548024
-0.0628168208809238,2468.73668548024
-0.0617343560942573,2468.74668548024
-0.0577958443023652,2468.75668548024
-0.0514054385444946,2468.76668548024
-0.0429255068262061,2468.77668548024
-0.032611699102416,2468.78668548024
-0.0211042334599709,2468.79668548024
-0.00884298150896492,2468.80668548024
0.00291903061640201,2468.81668548024
0.0146289734879373,2468.82668548024
0.025605767130498,2468.83668548024
0.0356988333773174,2468.84668548024
0.0446690741369112,2468.85668548024
0.0514400646361877,2468.86668548024
0.0562507886508309,2468.87668548024
0.0593825312413956,2468.88668548024
0.0606605523419149,2468.89668548024
0.0609015172011187,2468.90668548024
0.0607351707441917,2468.91668548024
0.0603278135810358,2468.92668548024
0.05972374625514,2468.93668548024
0.0595610687024696,2468.94668548024
0.0592379164307344,2468.95668548024
0.0580964971266107,2468.96668548024
0.0560315952574067,2468.97668548024
0.0533382230719904,2468.98668548024
0.0498440450230924,2468.99668548024
0.0464439037308744,2469.00668548024
0.0434353609197302,2469.01668548024
0.0402072844249887,2469.02668548024
0.0372595680191114,2469.03668548024
0.0343343740322152,2469.04668548024
0.0310528271684509,2469.05668548024
0.0280494841290336,2469.06668548024
0.0251861749892495,2469.07668548024
0.0229611193313453,2469.08668548024
0.0215989978857474,2469.09668548024
0.0208561847936188,2469.10668548024
0.0204406314127845,2469.11668548024
0.0205407607361389,2469.12668548024
0.0199444305945475,2469.13668548024
0.0185556864479976,2469.14668548024
0.0167742827270879,2469.15668548024
0.0146933700027532,2469.16668548024
0.0119157388777326,2469.17668548024
0.00909943911520352,2469.18668548024
0.00647769375549079,2469.19668548024
0.00385854018096033,2469.20668548024
0.00156391448225161,2469.21668548024
-0.00155909724565266,2469.22668548024
-0.0044730697057212,2469.23668548024
-0.00814076270812925,2469.24668548024
-0.0125581623123525,2469.25668548024
-0.0171515306317268,2469.26668548024
-0.0217417375714417,2469.27668548024
-0.0263999588739881,2469.28668548024
-0.0307314622150661,2469.29668548024
-0.035610739500012,2469.30668548024
-0.0398812806749553,2469.31668548024
-0.0443253407711864,2469.32668548024
-0.0481844891829065,2469.33668548024
-0.0524276787808785,2469.34668548024
-0.0560829405403852,2469.35668548024
-0.05983464329219,2469.36668548024
-0.0637068699137568,2469.37668548024
-0.0674008845753874,2469.38668548024
-0.0716251144788646,2469.39668548024
-0.0762755046629585,2469.40668548024
-0.0818713764122014,2469.41668548024
-0.0879040766653639,2469.42668548024
-0.0936008870109931,2469.43668548024
-0.0995489411575964,2469.44668548024
-0.105278209630406,2469.45668548024
-0.110055916938844,2469.46668548024
-0.113894271028056,2469.47668548024
-0.115887922996489,2469.48668548024
-0.116660451047199,2469.49668548024
-0.11544343481969,2469.50668548024
-0.1119782899804,2469.51668548024
-0.105611125670058,2469.52668548024
-0.097462110726852,2469.53668548024
-0.087906556601387,2469.54668548024
-0.0774377675489276,2469.55668548024
-0.0665503259673537,2469.56668548024
-0.05613285926474,2469.57668548024
-0.0459772145958508,2469.58668548024
-0.0369603254281314,2469.59668548024
-0.0285349413257794,2469.60668548024
-0.0217122825502847,2469.61668548024
-0.0159127827895587,2469.62668548024
-0.0109525755381052,2469.63668548024
-0.0068057123505088,2469.64668548024
-0.00313353845918476,2469.65668548024
-0.000881712637024624,2469.66668548024
0.00172484704349616,2469.67668548024
0.00337471169851972,2469.68668548024
0.00462081568384326,2469.69668548024
0.00516139498266445,2469.70668548024
0.00519029861858412,2469.71668548024
0.00429138841334053,2469.72668548024
0.00246938035358533,2469.73668548024
0.000466105868497776,2469.74668548024
-0.00194952005732804,2469.75668548024
-0.00380939438389007,2469.76668548024
-0.00627635715496422,2469.77668548024
-0.00827117002700681,2469.78668548024
-0.010344108239416,2469.79668548024
-0.0120356678076173,2469.80668548024
-0.012988568662285,2469.81668548024
-0.0136941374238875,2469.82668548024
-0.0139637497656755,2469.83668548024
-0.0150218675409164,2469.84668548024
-0.0163035379851316,2469.85668548024
-0.0177960563027522,2469.86668548024
-0.0190752787858865,2469.87668548024
-0.0203191381136157,2469.88668548024
-0.0215515336713197,2469.89668548024
-0.0229960340889451,2469.90668548024
-0.024432847030676,2469.91668548024
-0.0261005665547543,2469.92668548024
-0.0282924097401617,2469.93668548024
-0.0310348108896764,2469.94668548024
-0.0346050934512782,2469.95668548024
-0.0383601191321142,2469.96668548024
-0.0425687583764889,2469.97668548024
-0.0473272888150627,2469.98668548024
-0.0514489108408524,2469.99668548024
-0.0552104615644083,2470.00668548024
-0.0582239606207344,2470.01668548024
-0.0605759888595686,2470.02668548024
-0.0625091986508974,2470.03668548024
-0.0643663520623907,2470.04668548024
-0.0669579489082683,2470.05668548024
-0.0694480417040997,2470.06668548024
-0.0729968657370269,2470.07668548024
-0.0767019553688582,2470.08668548024
-0.0803854103913868,2470.09668548024
-0.0834901737610628,2470.10668548024
-0.0864307710338406,2470.11668548024
-0.0890088492115482,2470.12668548024
-0.0910582879667002,2470.13668548024
-0.0938030749580125,2470.14668548024
-0.0965098443468053,2470.15668548024
-0.0998820958109755,2470.16668548024
-0.103905032555193,2470.17668548024
-0.10815052406628,2470.18668548024
-0.111903403372488,2470.19668548024
-0.115844010112345,2470.20668548024
-0.118902382654321,2470.21668548024
-0.121885431488759,2470.22668548024
-0.123903687336863,2470.23668548024
-0.124798809077513,2470.24668548024
-0.125110642741268,2470.25668548024
-0.123893475913259,2470.26668548024
-0.120666012005893,2470.27668548024
-0.11570673430625,2470.28668548024
-0.108125018357055,2470.29668548024
-0.0989431538571515,2470.30668548024
-0.08817031609859,2470.31668548024
-0.0766585183073962,2470.32668548024
-0.0655256317776967,2470.33668548024
-0.0551788989018252,2470.34668548024
-0.0459667025811462,2470.35668548024
-0.0384094791913476,2470.36668548024
-0.0318907256012957,2470.37668548024
-0.0271384570286862,2470.38668548024
-0.023007277383308,2470.39668548024
-0.0192347021164451,2470.40668548024
-0.015813585773212,2470.41668548024
-0.0130199536640784,2470.42668548024
-0.0109583403721836,2470.43668548024
-0.00859808181642409,2470.44668548024
-0.00716565712531524,2470.45668548024
-0.00584029819860751,2470.46668548024
-0.0050388378455166,2470.47668548024
-0.00499334178589862,2470.48668548024
-0.00571797872588187,2470.49668548024
-0.0064787814798404,2470.50668548024
-0.00740883187469049,2470.51668548024
-0.00806508849167604,2470.52668548024
-0.0084895645968686,2470.53668548024
-0.00894121416313035,2470.54668548024
-0.00850450505177055,2470.55668548024
-0.0087833093736968,2470.56668548024
-0.00915702396043903,2470.57668548024
-0.00937641822904451,2470.58668548024
-0.00904177815636947,2470.59668548024
-0.00850129410648381,2470.60668548024
-0.00780319891162599,2470.61668548024
-0.00690800348822376,2470.62668548024
-0.00605633636570036,2470.63668548024
-0.00499122027101864,2470.64668548024
-0.00373103453729508,2470.65668548024
-0.00275232888985169,2470.66668548024
-0.00233066448402393,2470.67668548024
-0.00229006010122262,2470.68668548024
-0.00289814452565218,2470.69668548024
-0.0037735327791542,2470.70668548024
-0.00497717000484618,2470.71668548024
-0.00632705684450864,2470.72668548024
-0.00815734896746071,2470.73668548024
-0.0106954084916808,2470.74668548024
-0.0135601016334281,2470.75668548024
-0.0167591977964354,2470.76668548024
-0.0200470233687397,2470.77668548024
-0.0226308043308877,2470.78668548024
-0.0251789379798964,2470.79668548024
-0.0276182354771037,2470.80668548024
-0.0294894064134572,2470.81668548024
-0.031886811393973,2470.82668548024
-0.0341207261903005,2470.83668548024
-0.0365220006383815,2470.84668548024
-0.0390863646949905,2470.85668548024
-0.0422090770469804,2470.86668548024
-0.0454552308554216,2470.87668548024
-0.0488458919126687,2470.88668548024
-0.0522618433017503,2470.89668548024
-0.0556090009148285,2470.90668548024
-0.0589420948326713,2470.91668548024
-0.0616752056995506,2470.92668548024
-0.0642600998216614,2470.93668548024
-0.0669738211040325,2470.94668548024
-0.0699594990191678,2470.95668548024
-0.0728467593284127,2470.96668548024
-0.0758924372730747,2470.97668548024
-0.0791543248143581,2470.98668548024
-0.0823257063627018,2470.99668548024
-0.0854830531402783,2471.00668548024
-0.0881453957233643,2471.01668548024
-0.0899668245627402,2471.02668548024
-0.0909184663909182,2471.03668548024
-0.0902173232511051,2471.04668548024
-0.087467678586009,2471.05668548024
-0.0820155494781489,2471.06668548024
-0.0743419534353055,2471.07668548024
-0.0648961185449779,2471.08668548024
-0.0535746892387522,2471.09668548024
-0.0412302019330696,2471.10668548024
-0.0284095840596397,2471.11668548024
-0.0156471523267897,2471.12668548024
-0.00306705974483878,2471.13668548024
0.00816820312592808,2471.14668548024
0.0178288097787041,2471.15668548024
0.0263121164959759,2471.16668548024
0.0329776776103245,2471.17668548024
0.038577458434617,2471.18668548024
0.0430093865360562,2471.19668548024
0.0472883015812938,2471.20668548024
0.0514160752609011,2471.21668548024
0.0554930698465925,2471.22668548024
0.0590223090398406,2471.23668548024
0.0622818982713604,2471.24668548024
0.0650154080416165,2471.25668548024
0.066950132117402,2471.26668548024
0.0680658194670619,2471.27668548024
0.0687329010037273,2471.28668548024
0.0686049904730523,2471.29668548024
0.0677069962594263,2471.30668548024
0.0665525287946266,2471.31668548024
0.0649947718977699,2471.32668548024
0.063435896018565,2471.33668548024
0.0619883631679155,2471.34668548024
0.0616513903503211,2471.35668548024
0.0621216070617149,2471.36668548024
0.063066038479116,2471.37668548024
0.0641963292058168,2471.38668548024
0.0650272541634563,2471.39668548024
0.0658072252776732,2471.40668548024
0.0670815224886884,2471.41668548024
0.0685162742973175,2471.42668548024
0.0699935457178534,2471.43668548024
0.0712996836474432,2471.44668548024
0.0720794877628733,2471.45668548024
0.0726606183376816,2471.46668548024
0.0725365865749989,2471.47668548024
0.0718544388970318,2471.48668548024
0.0710945105411194,2471.49668548024
0.069875798210846,2471.50668548024
0.0681934738018335,2471.51668548024
0.0662487900935064,2471.52668548024
0.064291299100902,2471.53668548024
0.0615485855976091,2471.54668548024
0.0592055900934057,2471.55668548024
0.0566405904501037,2471.56668548024
0.0538444126011289,2471.57668548024
0.0509516847934787,2471.58668548024
0.0480547389582168,2471.59668548024
0.0454023940825431,2471.60668548024
0.0423675852237622,2471.61668548024
0.0393455813081349,2471.62668548024
0.0361218112111177,2471.63668548024
0.0333856940365529,2471.64668548024
0.0302288261806748,2471.65668548024
0.0265926436152983,2471.66668548024
0.0226697047156664,2471.67668548024
0.0189503257000484,2471.68668548024
0.0148640144783381,2471.69668548024
0.010853997202039,2471.70668548024
0.00703002365859208,2471.71668548024
0.00364991535450329,2471.72668548024
0.000448925352204026,2471.73668548024
-0.00311406942638561,2471.74668548024
-0.00655743237630409,2471.75668548024
-0.0099861028349315,2471.76668548024
-0.0139045652059254,2471.77668548024
-0.0176288388267476,2471.78668548024
-0.0213536182578308,2471.79668548024
-0.0255732622018693,2471.80668548024
-0.0293386943825272,2471.81668548024
-0.0327490510874103,2471.82668548024
-0.0360348929607445,2471.83668548024
-0.0391589410375313,2471.84668548024
-0.0414571580865184,2471.85668548024
-0.0422069600868719,2471.86668548024
-0.0409973636827004,2471.87668548024
-0.0376481396246193,2471.88668548024
-0.0323555342568035,2471.89668548024
-0.0244950084238583,2471.90668548024
-0.0139531616888585,2471.91668548024
-0.00134798975785147,2471.92668548024
0.0132744737439247,2471.93668548024
0.0285794568047096,2471.94668548024
0.0440039755901184,2471.95668548024
0.058329427086416,2471.96668548024
0.0711645795541768,2471.97668548024
0.0818941355619279,2471.98668548024
0.0908878406607583,2471.99668548024
0.0986000248449513,2472.00668548024
0.10472836741353,2472.01668548024
0.109820691407194,2472.02668548024
0.113551161933993,2472.03668548024
0.116822426193153,2472.04668548024
0.119800468069703,2472.05668548024
0.122307852160245,2472.06668548024
0.124706386751318,2472.07668548024
0.126316974662802,2472.08668548024
0.128095876798095,2472.09668548024
0.129159725766508,2472.10668548024
0.12972183027404,2472.11668548024
0.130086189960235,2472.12668548024
0.129702635594035,2472.13668548024
0.128780080135953,2472.14668548024
0.127897390551714,2472.15668548024
0.126930949005643,2472.16668548024
0.126287462159853,2472.17668548024
0.125838448311996,2472.18668548024
0.125684563870979,2472.19668548024
0.125562021555866,2472.20668548024
0.12549324312923,2472.21668548024
0.125958017634463,2472.22668548024
0.12601842088249,2472.23668548024
0.12599117414292,2472.24668548024
0.126410214414721,2472.25668548024
0.126611572034717,2472.26668548024
0.12720273399054,2472.27668548024
0.127406512558471,2472.28668548024
0.127294794723241,2472.29668548024
0.126547459718686,2472.30668548024
0.12528841494996,2472.31668548024
0.123716787290692,2472.32668548024
0.121443218185292,2472.33668548024
0.118846538695815,2472.34668548024
0.116104174461997,2472.35668548024
0.113502753039849,2472.36668548024
0.110860504396456,2472.37668548024
0.108061807464987,2472.38668548024
0.104958099887092,2472.39668548024
0.101564094583742,2472.40668548024
0.0975176311470838,2472.41668548024
0.0933009935557405,2472.42668548024
0.0886871019158693,2472.43668548024
0.0834301542353586,2472.44668548024
0.0777853728787801,2472.45668548024
0.0728118534626813,2472.46668548024
0.068021778087316,2472.47668548024
0.0636750895859546,2472.48668548024
0.0593435034388997,2472.49668548024
0.0551923187134779,2472.50668548024
0.0514247335283268,2472.51668548024
0.0472500901303117,2472.52668548024
0.0430655048849389,2472.53668548024
0.0385948002827862,2472.54668548024
0.0340247231092274,2472.55668548024
0.0295912783403904,2472.56668548024
0.0252030896335577,2472.57668548024
0.0207086435861157,2472.58668548024
0.0164906223456652,2472.59668548024
0.0117660211825001,2472.60668548024
0.00695432309003983,2472.61668548024
0.00160319134420639,2472.62668548024
-0.00398909293537539,2472.63668548024
-0.00972399518121146,2472.64668548024
-0.0155971515523213,2472.65668548024
-0.0213261179566723,2472.66668548024
-0.0261902469969323,2472.67668548024
-0.0300739389269727,2472.68668548024
-0.0321084004698583,2472.69668548024
-0.032467406211838,2472.70668548024
-0.0303146603544427,2472.71668548024
-0.0257532096858058,2472.72668548024
-0.0192010142112123,2472.73668548024
-0.0101505122728068,2472.74668548024
0.00120033872035475,2472.75668548024
0.0142092335896833,2472.76668548024
0.0282345218131294,2472.77668548024
0.0418853282339206,2472.78668548024
0.0543939212141513,2472.79668548024
0.0655302505988327,2472.80668548024
0.0747086519716275,2472.81668548024
0.0817609724953193,2472.82668548024
0.0867370113625289,2472.83668548024
0.0899885623658311,2472.84668548024
0.0924030036317149,2472.85668548024
0.0938103426413259,2472.86668548024
0.0951325755497449,2472.87668548024
0.0962747426421863,2472.88668548024
0.0972652195399561,2472.89668548024
0.097911183586924,2472.90668548024
0.0973865731670788,2472.91668548024
0.0956024564647632,2472.92668548024
0.0938498133474313,2472.93668548024
0.0911635680548592,2472.94668548024
0.0881890206509331,2472.95668548024
0.0848272862707637,2472.96668548024
0.0811127313539607,2472.97668548024
0.0772643144217882,2472.98668548024
0.0731609985254788,2472.99668548024
0.0697776277098625,2473.00668548024
0.0670460652045297,2473.01668548024
0.0654419465495843,2473.02668548024
0.0647052685114101,2473.03668548024
0.0652319396250152,2473.04668548024
0.0659119716256132,2473.05668548024
0.0667682719785184,2473.06668548024
0.0676070393704862,2473.07668548024
0.0681995789701939,2473.08668548024
0.0685771688726662,2473.09668548024
0.0685192121786575,2473.10668548024
0.0676316130391854,2473.11668548024
0.0665654501249254,2473.12668548024
0.065342437276916,2473.13668548024
0.0637537901078789,2473.14668548024
0.0612332417079378,2473.15668548024
0.0582043251597063,2473.16668548024
0.0540070786722637,2473.17668548024
0.0495722375435518,2473.18668548024
0.0448963176526933,2473.19668548024
0.0402036178918072,2473.20668548024
0.0360040802861513,2473.21668548024
0.0320177983471244,2473.22668548024
0.0284872314917557,2473.23668548024
0.0245932352259389,2473.24668548024
0.020480939960275,2473.25668548024
0.0161211674645419,2473.26668548024
0.0115828310878062,2473.27668548024
0.0072987511412043,2473.28668548024
0.0033213588685696,2473.29668548024
-0.000509312956525726,2473.30668548024
-0.00417247940337921,2473.31668548024
-0.0079084555060613,2473.32668548024
-0.0117589788774237,2473.33668548024
-0.0152235987527997,2473.34668548024
-0.0186578258547499,2473.35668548024
-0.0222324283334074,2473.36668548024
-0.0258186582963082,2473.37668548024
-0.0297488203326392,2473.38668548024
-0.0342757928151767,2473.39668548024
-0.0389107170783383,2473.40668548024
-0.0441718921675113,2473.41668548024
-0.0493036745497932,2473.42668548024
-0.0542723412065693,2473.43668548024
-0.058865316563264,2473.44668548024
-0.0635351335065055,2473.45668548024
-0.0680544695990916,2473.46668548024
-0.0724457966886005,2473.47668548024
-0.0765981320183831,2473.48668548024
-0.0809614290330134,2473.49668548024
-0.0841183043838907,2473.50668548024
-0.0846073888321062,2473.51668548024
-0.0823965096333536,2473.52668548024
-0.0774395170519922,2473.53668548024
-0.0700110191449332,2473.54668548024
-0.0607326774762466,2473.55668548024
-0.0499231035306613,2473.56668548024
-0.0385437090766409,2473.57668548024
-0.0272850182586491,2473.58668548024
-0.017021932101711,2473.59668548024
-0.00807637606686452,2473.60668548024
-0.000651897239282931,2473.61668548024
0.00499885808972072,2473.62668548024
0.00914684886081497,2473.63668548024
0.0125237847994297,2473.64668548024
0.0149426044326496,2473.65668548024
0.0169252754527407,2473.66668548024
0.0185827400469813,2473.67668548024
0.0198764880655656,2473.68668548024
0.0212244269747708,2473.69668548024
0.022453640862291,2473.70668548024
0.022686189502316,2473.71668548024
0.0219931143340318,2473.72668548024
0.0207365984569085,2473.73668548024
0.0184017044733162,2473.74668548024
0.0153989764476411,2473.75668548024
0.0120630431702042,2473.76668548024
0.00842074010231388,2473.77668548024
0.00518585826457214,2473.78668548024
0.00270686467027587,2473.79668548024
0.00050572405938381,2473.80668548024
-0.00151641625411083,2473.81668548024
-0.00266828659243749,2473.82668548024
-0.00355152331352527,2473.83668548024
-0.00374766394849403,2473.84668548024
-0.00336747330856916,2473.85668548024
-0.00292856657158302,2473.86668548024
-0.00219894752979994,2473.87668548024
-0.00121929230501212,2473.88668548024
0.000202358156355977,2473.89668548024
0.00212443999604704,2473.90668548024
0.00376305154270051,2473.91668548024
0.00470793016487206,2473.92668548024
0.00487919984055783,2473.93668548024
0.00396014226127289,2473.94668548024
0.00271375894212258,2473.95668548024
0.00110875872129482,2473.96668548024
-0.000206256642099576,2473.97668548024
-0.00132055719608682,2473.98668548024
-0.00233459887450357,2473.99668548024
-0.00330188127815699,2474.00668548024
-0.00428136863227204,2474.01668548024
-0.00562097389555348,2474.02668548024
-0.00792239133140108,2474.03668548024
-0.0108162788717745,2474.04668548024
-0.0144399176101577,2474.05668548024
-0.0188266987226722,2474.06668548024
-0.0238073403801147,2474.07668548024
-0.0285065102179642,2474.08668548024
-0.0330992551920382,2474.09668548024
-0.0370867366011096,2474.10668548024
-0.0408364399003988,2474.11668548024
-0.0446943833328891,2474.12668548024
-0.048839208891642,2474.13668548024
-0.0539337009690821,2474.14668548024
-0.0591513431224532,2474.15668548024
-0.0645783590285576,2474.16668548024
-0.0697728093215455,2474.17668548024
-0.0747949801181351,2474.18668548024
-0.0798355988591955,2474.19668548024
-0.0845304992240074,2474.20668548024
-0.0889968478179241,2474.21668548024
-0.0935923836444382,2474.22668548024
-0.098163408495587,2474.23668548024
-0.102069415624895,2474.24668548024
-0.104825711517774,2474.25668548024
-0.106524709088005,2474.26668548024
-0.10682260956425,2474.27668548024
-0.105901661276435,2474.28668548024
-0.102888627355876,2474.29668548024
-0.098316756949126,2474.30668548024
-0.0919171917979999,2474.31668548024
-0.0833936765519187,2474.32668548024
-0.073416480514299,2474.33668548024
-0.0616991239947205,2474.34668548024
-0.0488246236835196,2474.35668548024
-0.0358299588217935,2474.36668548024
-0.0233788857151214,2474.37668548024
-0.0129157908126417,2474.38668548024
-0.00443484893025693,2474.39668548024
0.00233188991005078,2474.40668548024
0.00778538022903838,2474.41668548024
0.0116323318834494,2474.42668548024
0.0147429721074105,2474.43668548024
0.0166880322543761,2474.44668548024
0.0184560458171629,2474.45668548024
0.0202677765446751,2474.46668548024
0.0218885476036314,2474.47668548024
0.0240228604495522,2474.48668548024
0.0254987315958803,2474.49668548024
0.0266003908007988,2474.50668548024
0.02717849960033,2474.51668548024
0.0268989012574344,2474.52668548024
0.0268252577227983,2474.53668548024
0.0264646694098437,2474.54668548024
0.025349990029953,2474.55668548024
0.0240136415370838,2474.56668548024
0.0226632298573522,2474.57668548024
0.0212915193011213,2474.58668548024
0.0202444707744843,2474.59668548024
0.0189403475586503,2474.60668548024
0.0177254571547569,2474.61668548024
0.0167174644416723,2474.62668548024
0.0157664469186454,2474.63668548024
0.0155916516354886,2474.64668548024
0.0160181454517207,2474.65668548024
0.016643018346191,2474.66668548024
0.0171303405349362,2474.67668548024
0.0174152761118478,2474.68668548024
0.0174761344234133,2474.69668548024
0.0174370185833022,2474.70668548024
0.0168608690297606,2474.71668548024
0.0154657181194474,2474.72668548024
0.013859697561776,2474.73668548024
0.0123243974134052,2474.74668548024
0.0108620031798742,2474.75668548024
0.00944622740554949,2474.76668548024
0.00739820744519896,2474.77668548024
0.00514292112087131,2474.78668548024
0.00198896594379787,2474.79668548024
-0.00131654414358273,2474.80668548024
-0.00486097219090837,2474.81668548024
-0.00840123890269415,2474.82668548024
-0.011577509214876,2474.83668548024
-0.0147131614192683,2474.84668548024
-0.0175365647467329,2474.85668548024
-0.0204568048180166,2474.86668548024
-0.0236614174343107,2474.87668548024
-0.0270068461802142,2474.88668548024
-0.0303064248808339,2474.89668548024
-0.0336293684770254,2474.90668548024
-0.0366956693955286,2474.91668548024
-0.040458687825958,2474.92668548024
-0.0441750528144251,2474.93668548024
-0.0478076805586756,2474.94668548024
-0.0510830730366783,2474.95668548024
-0.054391026817178,2474.96668548024
-0.0573855206647632,2474.97668548024
-0.0596827041772988,2474.98668548024
-0.061277852059728,2474.99668548024
-0.0628903398999107,2475.00668548024
-0.064165861641813,2475.01668548024
-0.0654708359007926,2475.02668548024
-0.067345817117802,2475.03668548024
-0.0691968110135638,2475.04668548024
-0.0708284953294529,2475.05668548024
-0.0712832450197435,2475.06668548024
-0.0701815291044783,2475.07668548024
-0.066807785726055,2475.08668548024
-0.061241055520382,2475.09668548024
-0.0527255328230326,2475.10668548024
-0.0418593596300228,2475.11668548024
-0.0282055918653193,2475.12668548024
-0.0130988259949997,2475.13668548024
0.00337617359638555,2475.14668548024
0.0196664510433719,2475.15668548024
0.0352418659944658,2475.16668548024
0.049273656452674,2475.17668548024
0.0612184415606506,2475.18668548024
0.0704622989180032,2475.19668548024
0.0772704617271759,2475.20668548024
0.0822994005329977,2475.21668548024
0.0861306451934994,2475.22668548024
0.0892821448584506,2475.23668548024
0.0917497152774454,2475.24668548024
0.0932916186060343,2475.25668548024
0.0942292232330543,2475.26668548024
0.0949896917121234,2475.27668548024
0.0953626694267026,2475.28668548024
0.095305069807186,2475.29668548024
0.0942179905037578,2475.30668548024
0.0926168187701273,2475.31668548024
0.090143877384976,2475.32668548024
0.0869477053451514,2475.33668548024
0.0831859327790872,2475.34668548024
0.0798122776482218,2475.35668548024
0.0766396921052635,2475.36668548024
0.0739316354915665,2475.37668548024
0.0717231500411961,2475.38668548024
0.0704494079004266,2475.39668548024
0.0700949638715107,2475.40668548024
0.0709053710389372,2475.41668548024
0.0718705268041339,2475.42668548024
0.0733263646018288,2475.43668548024
0.0749440418053638,2475.44668548024
0.0761182451227932,2475.45668548024
0.0770722787605592,2475.46668548024
0.0776110763824051,2475.47668548024
0.0782322660105879,2475.48668548024
0.0782997896557293,2475.49668548024
0.0777528557137413,2475.50668548024
0.076496641929979,2475.51668548024
0.0752869304504653,2475.52668548024
0.0737857696022718,2475.53668548024
0.071973755956498,2475.54668548024
0.0700870420364505,2475.55668548024
0.0679090131162609,2475.56668548024
0.0654801991028536,2475.57668548024
0.0621152525018942,2475.58668548024
0.0585840651257719,2475.59668548024
0.0545177640819728,2475.60668548024
0.0506171559355321,2475.61668548024
0.046285258316331,2475.62668548024
0.0422161923650679,2475.63668548024
0.0387881927289283,2475.64668548024
0.034445317319951,2475.65668548024
0.0303162039799709,2475.66668548024
0.0257680970620613,2475.67668548024
0.0209122159340161,2475.68668548024
0.0166055059038433,2475.69668548024
0.0121000775820214,2475.70668548024
0.0074851745717095,2475.71668548024
0.00312888801802785,2475.72668548024
-0.00157709861504897,2475.73668548024
-0.00663009942588866,2475.74668548024
-0.0114188680140373,2475.75668548024
-0.0157958714918434,2475.76668548024
-0.0203720344235184,2475.77668548024
-0.0247194999367582,2475.78668548024
-0.0288987012226845,2475.79668548024
-0.0334274645330031,2475.80668548024
-0.0380323050368018,2475.81668548024
-0.0425912565220213,2475.82668548024
-0.0474008668994456,2475.83668548024
-0.0513054936805834,2475.84668548024
-0.0541145061389502,2475.85668548024
-0.0566535393781051,2475.86668548024
-0.0583806824907601,2475.87668548024
-0.0586703339890022,2475.88668548024
-0.0577752854862057,2475.89668548024
-0.054740711250051,2475.90668548024
-0.04921134058372,2475.91668548024
-0.0410806861441692,2475.92668548024
-0.0306623928375676,2475.93668548024
-0.0182115636072824,2475.94668548024
-0.00428710810394998,2475.95668548024
0.0100802751715293,2475.96668548024
0.0242462445656996,2475.97668548024
0.0375786584669791,2475.98668548024
0.0494502292208741,2475.99668548024
0.0593026415966417,2476.00668548024
0.0681221994326281,2476.01668548024
0.075533689771353,2476.02668548024
0.0811973780032547,2476.03668548024
0.0856741118591324,2476.04668548024
0.0890127162677404,2476.05668548024
0.091904833212928,2476.06668548024
0.0944342342219749,2476.07668548024
0.0967702995868206,2476.08668548024
0.0988594493092075,2476.09668548024
0.0998808456993694,2476.10668548024
0.100135268376046,2476.11668548024
0.100266100611915,2476.12668548024
0.0993239275703443,2476.13668548024
0.0983690371273009,2476.14668548024
0.0967285525680918,2476.15668548024
0.0944416660314309,2476.16668548024
0.0914061858593606,2476.17668548024
0.088638351559186,2476.18668548024
0.0861195692558234,2476.19668548024
0.0838422799644021,2476.20668548024
0.082158218714446,2476.21668548024
0.0810267458234034,2476.22668548024
0.0807976655338244,2476.23668548024
0.0814946030946187,2476.24668548024
0.0820956421398611,2476.25668548024
0.0828298758827202,2476.26668548024
0.0827292584383073,2476.27668548024
0.0820497957267219,2476.28668548024
0.0810620458121395,2476.29668548024
0.0802316141471122,2476.30668548024
0.079101950232032,2476.31668548024
0.0773825636879984,2476.32668548024
0.0758027786018741,2476.33668548024
0.074006404223309,2476.34668548024
0.0721568855756149,2476.35668548024
0.0699838318515535,2476.36668548024
0.0669199615219549,2476.37668548024
0.0638652667356372,2476.38668548024
0.060133341741622,2476.39668548024
0.0566267994046448,2476.40668548024
0.0536094796087384,2476.41668548024
0.0508163280151155,2476.42668548024
0.0480969750980869,2476.43668548024
0.0441962406365033,2476.44668548024
0.0398145598523917,2476.45668548024
0.0351369810397002,2476.46668548024
0.0301259332114872,2476.47668548024
0.025352195571824,2476.48668548024
0.0209035025290306,2476.49668548024
0.0165017051341085,2476.50668548024
0.0118965238416252,2476.51668548024
0.007646297119035,2476.52668548024
0.00279371753155343,2476.53668548024
-0.00264139534330749,2476.54668548024
-0.00749345159363904,2476.55668548024
-0.013024837622816,2476.56668548024
-0.0183889348526761,2476.57668548024
-0.0237720946685449,2476.58668548024
-0.0292849344303118,2476.59668548024
-0.0346714582285701,2476.60668548024
-0.0394869689241413,2476.61668548024
-0.044251948270176,2476.62668548024
-0.0489451382090916,2476.63668548024
-0.0534606922204554,2476.64668548024
-0.0570355598126549,2476.65668548024
-0.0592241044239746,2476.66668548024
-0.0593603372458439,2476.67668548024
-0.0570950874155501,2476.68668548024
-0.052190287487416,2476.69668548024
-0.0445682763460914,2476.70668548024
-0.0346428294782254,2476.71668548024
-0.0224774889557207,2476.72668548024
-0.00889786867594398,2476.73668548024
0.00523271728730657,2476.74668548024
0.0190111936817433,2476.75668548024
0.0326476820971162,2476.76668548024
0.0449551630389243,2476.77668548024
0.055632002700001,2476.78668548024
0.0643550095181685,2476.79668548024
0.071084549167812,2476.80668548024
0.0758824308390576,2476.81668548024
0.0793830970932026,2476.82668548024
0.0813395183334964,2476.83668548024
0.0833701552996681,2476.84668548024
0.0854722382912,2476.85668548024
0.0874770378795842,2476.86668548024
0.0886239104741476,2476.87668548024
0.0890817568195057,2476.88668548024
0.0886249823018597,2476.89668548024
0.0876991178817419,2476.90668548024
0.0863314047214434,2476.91668548024
0.0847167276396803,2476.92668548024
0.0830533881016015,2476.93668548024
0.0807788146826267,2476.94668548024
0.0787327805154108,2476.95668548024
0.0763956361486821,2476.96668548024
0.0739509920806673,2476.97668548024
0.0716456235754903,2476.98668548024
0.0695080421090686,2476.99668548024
0.0675430565328536,2477.00668548024
0.0664585019107196,2477.01668548024
0.0655741617379854,2477.02668548024
0.0655113960522687,2477.03668548024
0.0658426056180747,2477.04668548024
0.0654396310153844,2477.05668548024
0.0647802669294334,2477.06668548024
0.0634811413774973,2477.07668548024
0.0620829520678738,2477.08668548024
0.0604037192780906,2477.09668548024
0.0583087624332027,2477.10668548024
0.0565140434947842,2477.11668548024
0.0538657912471779,2477.12668548024
0.0512572938626553,2477.13668548024
0.0487051725810164,2477.14668548024
0.0457921842284936,2477.15668548024
0.0427687064962305,2477.16668548024
0.0393373032283598,2477.17668548024
0.0356327847018358,2477.18668548024
0.0318879112548116,2477.19668548024
0.0276566948741715,2477.20668548024
0.0238790129849034,2477.21668548024
0.0201707584759176,2477.22668548024
0.0163808118147518,2477.23668548024
0.0122522186711844,2477.24668548024
0.00761536331363582,2477.25668548024
0.00274748554349135,2477.26668548024
-0.0023860847755678,2477.27668548024
-0.00755208224094293,2477.28668548024
-0.01272006233034,2477.29668548024
-0.0172761614799428,2477.30668548024
-0.0219004440317358,2477.31668548024
-0.0259592278459835,2477.32668548024
-0.0302443172445488,2477.33668548024
-0.0348686071981819,2477.34668548024
-0.0399947162305739,2477.35668548024
-0.0453491454349804,2477.36668548024
-0.0501397046054877,2477.37668548024
-0.0551984249419265,2477.38668548024
-0.0602946619619373,2477.39668548024
-0.0652458363353257,2477.40668548024
-0.0705980060671114,2477.41668548024
-0.0753910584399499,2477.42668548024
-0.0797036681543037,2477.43668548024
-0.0833693323849012,2477.44668548024
-0.0854638364277723,2477.45668548024
-0.0864968687129992,2477.46668548024
-0.0851320360312798,2477.47668548024
-0.0816430836753382,2477.48668548024
-0.0749098999772125,2477.49668548024
-0.06544821582423,2477.50668548024
-0.0530475841080495,2477.51668548024
-0.0385750337159052,2477.52668548024
-0.0231162086411057,2477.53668548024
-0.00741216300357409,2477.54668548024
0.00749733532246126,2477.55668548024
0.0215167469506351,2477.56668548024
0.0336560096257648,2477.57668548024
0.0436734627272912,2477.58668548024
0.051909400845785,2477.59668548024
0.0578153438045739,2477.60668548024
0.0619764748589946,2477.61668548024
0.0648689780278795,2477.62668548024
0.0665867341264175,2477.63668548024
0.067861035054379,2477.64668548024
0.0682643833775017,2477.65668548024
0.0680320476721625,2477.66668548024
0.067001813228274,2477.67668548024
0.0652036551581536,2477.68668548024
0.0633125665920358,2477.69668548024
0.0604635827127194,2477.70668548024
0.0575182562154498,2477.71668548024
0.0544546186607503,2477.72668548024
0.0508879146183524,2477.73668548024
0.0477506672198613,2477.74668548024
0.0452799748375559,2477.75668548024
0.0431049351483635,2477.76668548024
0.0414128371686758,2477.77668548024
0.0404604992336238,2477.78668548024
0.0398908961685607,2477.79668548024
0.0395850341245974,2477.80668548024
0.0400062148318208,2477.81668548024
0.0404874245694641,2477.82668548024
0.0404991334002132,2477.83668548024
0.0405499095367768,2477.84668548024
0.0403588281081777,2477.85668548024
0.0395891420431116,2477.86668548024
0.0393220386432595,2477.87668548024
0.0384118129679238,2477.88668548024
0.03744286184008,2477.89668548024
0.0359278250008575,2477.90668548024
0.0338670947458269,2477.91668548024
0.0313511841817914,2477.92668548024
0.0283306908691107,2477.93668548024
0.0248088850896113,2477.94668548024
0.0211924374171002,2477.95668548024
0.0175089937071936,2477.96668548024
0.0137189743107879,2477.97668548024
0.00981603537598371,2477.98668548024
0.0060436418088663,2477.99668548024
0.00166014284874906,2478.00668548024
-0.00273714520282003,2478.01668548024
-0.00700657930149919,2478.02668548024
-0.0112733498818396,2478.03668548024
-0.015445163749038,2478.04668548024
-0.0195380966017894,2478.05668548024
-0.0235427388774583,2478.06668548024
-0.0277387383159342,2478.07668548024
-0.0321531270173649,2478.08668548024
-0.0362104512650737,2478.09668548024
-0.0405312970689463,2478.10668548024
-0.0449132433860468,2478.11668548024
-0.0495394287910768,2478.12668548024
-0.0544150983329822,2478.13668548024
-0.0596993127598063,2478.14668548024
-0.0651830511859522,2478.15668548024
-0.0708200982306935,2478.16668548024
-0.0765665370690431,2478.17668548024
-0.0819881897898797,2478.18668548024
-0.0863879931352979,2478.19668548024
-0.0895181981811401,2478.20668548024
-0.0911844825669896,2478.21668548024
-0.0904277845696448,2478.22668548024
-0.087184313971738,2478.23668548024
-0.0811476627973818,2478.24668548024
-0.072647877454959,2478.25668548024
-0.0616351537604303,2478.26668548024
-0.0492660373757059,2478.27668548024
-0.0360741840503496,2478.28668548024
-0.0227989578307859,2478.29668548024
-0.0099755840212873,2478.30668548024
0.0017217741731659,2478.31668548024
0.0115709725934692,2478.32668548024
0.0195281638582542,2478.33668548024
0.02579076552195,2478.34668548024
0.0309820464794091,2478.35668548024
0.035035220276599,2478.36668548024
0.0380231354784763,2478.37668548024
0.040112798460587,2478.38668548024
0.0417568198858325,2478.39668548024
0.0424975235289133,2478.40668548024
0.042570144036351,2478.41668548024
0.0425545954577338,2478.42668548024
0.0418542391988024,2478.43668548024
0.0403936586991751,2478.44668548024
0.0384906865757384,2478.45668548024
0.0359717567422283,2478.46668548024
0.0332189975635599,2478.47668548024
0.0303460572990972,2478.48668548024
0.0272068906562554,2478.49668548024
0.0248701999206749,2478.50668548024
0.0227640781060831,2478.51668548024
0.0210390266011821,2478.52668548024
0.0197288416862231,2478.53668548024
0.0182909831159869,2478.54668548024
0.0173291406679346,2478.55668548024
0.0169123046969877,2478.56668548024
0.0168497699056936,2478.57668548024
0.0166534892772939,2478.58668548024
0.0167431302513692,2478.59668548024
0.0168801749529937,2478.60668548024
0.0167070523928274,2478.61668548024
0.016372205410655,2478.62668548024
0.0153907327491534,2478.63668548024
0.0138767402731311,2478.64668548024
0.0115546147579379,2478.65668548024
0.00889814240670282,2478.66668548024
0.00540135649452403,2478.67668548024
0.00153945953900621,2478.68668548024
-0.00247600964340319,2478.69668548024
-0.00632499255316283,2478.70668548024
-0.0103649199612017,2478.71668548024
-0.0134140901251621,2478.72668548024
-0.0167961568848557,2478.73668548024
-0.0201064344072413,2478.74668548024
-0.0237652841888548,2478.75668548024
-0.0278439485182228,2478.76668548024
-0.0318787397450403,2478.77668548024
-0.0355499339947687,2478.78668548024
-0.03930895429166,2478.79668548024
-0.0432605892358745,2478.80668548024
-0.0468414580250362,2478.81668548024
-0.0505860521200883,2478.82668548024
-0.053903638438289,2478.83668548024
-0.057284695678247,2478.84668548024
-0.0607523320170329,2478.85668548024
-0.0641769558757665,2478.86668548024
-0.0674028107098184,2478.87668548024
-0.0713193129590771,2478.88668548024
-0.0754798962518751,2478.89668548024
-0.0805198806828244,2478.90668548024
-0.0855131381020605,2478.91668548024
-0.0903407087670951,2478.92668548024
-0.0947244391914247,2478.93668548024
-0.0981076072657839,2478.94668548024
-0.100015422019226,2478.95668548024
-0.100241176252823,2478.96668548024
-0.0984665169020006,2478.97668548024
-0.0937918413686123,2478.98668548024
-0.0871426816805219,2478.99668548024
-0.0783330871131682,2479.00668548024
-0.0677519354894631,2479.01668548024
-0.0563838726212617,2479.02668548024
-0.0446204008228157,2479.03668548024
-0.0337335413888169,2479.04668548024
-0.0234365296367677,2479.05668548024
-0.0143615258467857,2479.06668548024
-0.00709485125945248,2479.07668548024
-0.00089584305197306,2479.08668548024
0.00366434628709584,2479.09668548024
0.00706630126285616,2479.10668548024
0.00969592806920879,2479.11668548024
0.0118395290909367,2479.12668548024
0.0132640337867245,2479.13668548024
0.0141167876882349,2479.14668548024
0.0150614911717692,2479.15668548024
0.0157155335544852,2479.16668548024
0.0159862690568795,2479.17668548024
0.0158247915382714,2479.18668548024
0.0151830234461134,2479.19668548024
0.0137612278156361,2479.20668548024
0.0125709779609213,2479.21668548024
0.0112330185364066,2479.22668548024
0.00955281987200414,2479.23668548024
0.00780018937515487,2479.24668548024
0.00583447545607634,2479.25668548024
0.00414909547979346,2479.26668548024
0.00247008590192632,2479.27668548024
0.000660161450290943,2479.28668548024
-0.000829661343638191,2479.29668548024
-0.00194357556043268,2479.30668548024
-0.00262231216267446,2479.31668548024
-0.00261269571240493,2479.32668548024
-0.00270816072509454,2479.33668548024
-0.00291158115792449,2479.34668548024
-0.00342636893875514,2479.35668548024
-0.00439178288177666,2479.36668548024
-0.00584634814897463,2479.37668548024
-0.00758603708663076,2479.38668548024
-0.00920414241080507,2479.39668548024
-0.0110735057626993,2479.40668548024
-0.0132494814175389,2479.41668548024
-0.0156261064390164,2479.42668548024
-0.018476218998173,2479.43668548024
-0.0218054056171748,2479.44668548024
-0.0246214750389545,2479.45668548024
-0.0274458826923032,2479.46668548024
-0.0299445100757927,2479.47668548024
-0.0323556081648223,2479.48668548024
-0.0351525844450136,2479.49668548024
-0.0384386057376101,2479.50668548024
-0.0418425823468272,2479.51668548024
-0.0454920058075111,2479.52668548024
-0.0494741481271113,2479.53668548024
-0.0530734766419611,2479.54668548024
-0.0565947706708015,2479.55668548024
-0.0597968101142531,2479.56668548024
-0.0630522474746449,2479.57668548024
-0.0669565558534362,2479.58668548024
-0.0705102637762474,2479.59668548024
-0.074062143484947,2479.60668548024
-0.0774587767025106,2479.61668548024
-0.081711426243787,2479.62668548024
-0.0857942952237568,2479.63668548024
-0.0893438477090117,2479.64668548024
-0.093277983840852,2479.65668548024
-0.09582161609793,2479.66668548024
-0.099099771132846,2479.67668548024
-0.10200834730095,2479.68668548024
-0.105397388892712,2479.69668548024
-0.109428156622925,2479.70668548024
-0.113279457693186,2479.71668548024
-0.116708366707053,2479.72668548024
-0.119092321589447,2479.73668548024
-0.119305099678839,2479.74668548024
-0.11689181172291,2479.75668548024
-0.11207584871831,2479.76668548024
-0.104966404295124,2479.77668548024
-0.0959235764260362,2479.78668548024
-0.0856741973706715,2479.79668548024
-0.0740527931921509,2479.80668548024
-0.0631489702306167,2479.81668548024
-0.052735111377264,2479.82668548024
-0.0434698035184968,2479.83668548024
-0.0351807819016029,2479.84668548024
-0.0277265160295824,2479.85668548024
-0.0220348921202987,2479.86668548024
-0.0172421169504088,2479.87668548024
-0.0138032132185085,2479.88668548024
-0.0109238284164269,2479.89668548024
-0.00899432493608364,2479.90668548024
-0.00768668598797995,2479.91668548024
-0.00620213091062061,2479.92668548024
-0.00475522793304005,2479.93668548024
-0.00351952745334765,2479.94668548024
-0.0025671052534616,2479.95668548024
-0.00194867572535394,2479.96668548024
-0.00212613575485684,2479.97668548024
-0.00271725392540552,2479.98668548024
-0.00425241841376387,2479.99668548024
-0.00653582394069508,2480.00668548024
-0.00938113911894677,2480.01668548024
-0.0121806185122612,2480.02668548024
-0.0153591369434194,2480.03668548024
-0.0179211499111457,2480.04668548024
-0.0204177076005502,2480.05668548024
-0.0225151941759643,2480.06668548024
-0.023491687690667,2480.07668548024
-0.0240765663331365,2480.08668548024
-0.023714285498494,2480.09668548024
-0.0231870121381935,2480.10668548024
-0.0224233099573679,2480.11668548024
-0.0221152018294506,2480.12668548024
-0.0220530402835121,2480.13668548024
-0.0219622884390142,2480.14668548024
-0.0224801792306579,2480.15668548024
-0.022902708371751,2480.16668548024
-0.0240751205642355,2480.17668548024
-0.0253379451859552,2480.18668548024
-0.0270761276716418,2480.19668548024
-0.0297763207506804,2480.20668548024
-0.0319803395155441,2480.21668548024
-0.0340401585408257,2480.22668548024
-0.0359187535891804,2480.23668548024
-0.0373898235174394,2480.24668548024
-0.0389688896828148,2480.25668548024
-0.0410029606786699,2480.26668548024
-0.0437242912236344,2480.27668548024
-0.0471533561411192,2480.28668548024
-0.0506158733930176,2480.29668548024
-0.0540473968219462,2480.30668548024
-0.0574066495186075,2480.31668548024
-0.0604800421876436,2480.32668548024
-0.0637287582149624,2480.33668548024
-0.0666483264969624,2480.34668548024
-0.069949914846198,2480.35668548024
-0.0729360958908411,2480.36668548024
-0.0757045437711465,2480.37668548024
-0.0785252325784921,2480.38668548024
-0.0815355467949164,2480.39668548024
-0.0849540649141937,2480.40668548024
-0.088194477943631,2480.41668548024
-0.0913986620357109,2480.42668548024
-0.0949108536599153,2480.43668548024
-0.0985895974781471,2480.44668548024
-0.101857552381225,2480.45668548024
-0.105146153791025,2480.46668548024
-0.108638114631509,2480.47668548024
-0.112372084497636,2480.48668548024
-0.116515631700224,2480.49668548024
-0.120660418204271,2480.50668548024
-0.124376344407193,2480.51668548024
-0.126891856335469,2480.52668548024
-0.127892479556604,2480.53668548024
-0.126569848689165,2480.54668548024
-0.122919388033421,2480.55668548024
-0.117141696687785,2480.56668548024
-0.109640104151924,2480.57668548024
-0.100915412129388,2480.58668548024
-0.0911516899884385,2480.59668548024
-0.0805248218432992,2480.60668548024
-0.0699437880939987,2480.61668548024
-0.0594831644197208,2480.62668548024
-0.0497188339595966,2480.63668548024
-0.0414540371692589,2480.64668548024
-0.03478215371116,2480.65668548024
-0.0289664737003965,2480.66668548024
-0.024390319933337,2480.67668548024
-0.0206722282765242,2480.68668548024
-0.017680496882712,2480.69668548024
-0.0158696287574573,2480.70668548024
-0.0143018411814814,2480.71668548024
-0.0126378698375185,2480.72668548024
-0.0114036064296942,2480.73668548024
-0.00984758352076267,2480.74668548024
-0.00820105639235727,2480.75668548024
-0.00756932108236027,2480.76668548024
-0.00736753724483862,2480.77668548024
-0.00836568643084312,2480.78668548024
-0.00986710385365576,2480.79668548024
-0.0118149615371741,2480.80668548024
-0.0134263200221199,2480.81668548024
-0.0151374303128111,2480.82668548024
-0.0167005136403478,2480.83668548024
-0.0184163147427604,2480.84668548024
-0.0201379025776198,2480.85668548024
-0.0216362418296446,2480.86668548024
-0.0226495625355991,2480.87668548024
-0.0238613188382048,2480.88668548024
-0.0247677196748509,2480.89668548024
-0.0262598896291966,2480.90668548024
-0.0277520578697932,2480.91668548024
-0.0290784402752294,2480.92668548024
-0.0303121325917939,2480.93668548024
-0.0308759219806642,2480.94668548024
-0.0309337129591885,2480.95668548024
-0.0311678845085982,2480.96668548024
-0.0311946570122742,2480.97668548024
-0.0317481372854209,2480.98668548024
-0.0327814608686209,2480.99668548024
-0.0343923642332569,2481.00668548024
-0.0370160188348616,2481.01668548024
-0.0396259944702988,2481.02668548024
-0.0433332637344076,2481.03668548024
-0.0465696755124386,2481.04668548024
-0.0498424058777064,2481.05668548024
-0.0532205736523131,2481.06668548024
-0.0558666349903958,2481.07668548024
-0.0586266363058973,2481.08668548024
-0.0616032821924508,2481.09668548024
-0.0647117571325437,2481.10668548024
-0.0675124250563379,2481.11668548024
-0.0703715110865312,2481.12668548024
-0.0732834341523875,2481.13668548024
-0.0760700228629703,2481.14668548024
-0.079070271067597,2481.15668548024
-0.0819336029653975,2481.16668548024
-0.0843938759058993,2481.17668548024
-0.0865681613636576,2481.18668548024
-0.0889765599097846,2481.19668548024
-0.0908537430981036,2481.20668548024
-0.0931560185648812,2481.21668548024
-0.0959663122628747,2481.22668548024
-0.0988841229462761,2481.23668548024
-0.102296753877639,2481.24668548024
-0.105882504745972,2481.25668548024
-0.109421981410876,2481.26668548024
-0.112995374444597,2481.27668548024
-0.115821564628133,2481.28668548024
-0.119288389309564,2481.29668548024
-0.12253482841333,2481.30668548024
-0.125756217033822,2481.31668548024
-0.128619000864145,2481.32668548024
-0.129895562779915,2481.33668548024
-0.129685406772338,2481.34668548024
-0.126975218093152,2481.35668548024
-0.121721522094615,2481.36668548024
-0.114429944605216,2481.37668548024
-0.104129976562778,2481.38668548024
-0.0921193107117748,2481.39668548024
-0.0795840376080696,2481.40668548024
-0.0674391409210648,2481.41668548024
-0.056573396556528,2481.42668548024
-0.0472536518788737,2481.43668548024
-0.0384490261668199,2481.44668548024
-0.0311814235393459,2481.45668548024
-0.0247123000370152,2481.46668548024
-0.0193978661506402,2481.47668548024
-0.015189862778557,2481.48668548024
-0.0116229870005409,2481.49668548024
-0.00898595140105746,2481.50668548024
-0.0068374206644297,2481.51668548024
-0.00471187333894401,2481.52668548024
-0.00345852104981787,2481.53668548024
-0.00330342382203906,2481.54668548024
-0.00389296027146985,2481.55668548024
-0.00483602721595918,2481.56668548024
-0.00580153082577377,2481.57668548024
-0.00681525505949595,2481.58668548024
-0.00818789839468305,2481.59668548024
-0.00983424679580452,2481.60668548024
-0.0114433600984069,2481.61668548024
-0.0128303699684721,2481.62668548024
-0.0140829540069161,2481.63668548024
-0.014770306663206,2481.64668548024
-0.0152155417397862,2481.65668548024
-0.0148507643289444,2481.66668548024
-0.0137375624251565,2481.67668548024
-0.0128627726847084,2481.68668548024
-0.0115603275852586,2481.69668548024
-0.0105868932175224,2481.70668548024
-0.0100931989926804,2481.71668548024
-0.0100004605610261,2481.72668548024
-0.0100451852397795,2481.73668548024
-0.0103392322763442,2481.74668548024
-0.0102631156147421,2481.75668548024
-0.0104684519685725,2481.76668548024
-0.0104840924344494,2481.77668548024
-0.0110231255268075,2481.78668548024
-0.0118054472320472,2481.79668548024
-0.0129176946816209,2481.80668548024
-0.0142256472546977,2481.81668548024
-0.0156093162086346,2481.82668548024
-0.0171412355313086,2481.83668548024
-0.0187046618404156,2481.84668548024
-0.0207014850886456,2481.85668548024
-0.0222313488100453,2481.86668548024
-0.0238083756710301,2481.87668548024
-0.0258560152805952,2481.88668548024
-0.027704592794564,2481.89668548024
-0.0298111508246342,2481.90668548024
-0.0322345977224058,2481.91668548024
-0.0345272578273167,2481.92668548024
-0.0377097185045707,2481.93668548024
-0.0410134794888201,2481.94668548024
-0.04393050377411,2481.95668548024
-0.0468731463574924,2481.96668548024
-0.0494815740512983,2481.97668548024
-0.0521984308316714,2481.98668548024
-0.0552995759821789,2481.99668548024
-0.0589648585341656,2482.00668548024
-0.0630649465276171,2482.01668548024
-0.0663952435030549,2482.02668548024
-0.0695505640377742,2482.03668548024
-0.0723610738678583,2482.04668548024
-0.0750519296391496,2482.05668548024
-0.0777589276395421,2482.06668548024
-0.080277761170789,2482.07668548024
-0.0829353789304215,2482.08668548024
-0.0853918835499256,2482.09668548024
-0.0874728633960151,2482.10668548024
-0.0881145191041575,2482.11668548024
-0.0860910147514385,2482.12668548024
-0.0813927508242534,2482.13668548024
-0.0737938330874625,2482.14668548024
-0.0636072755171939,2482.15668548024
-0.0519662365713917,2482.16668548024
-0.0387483590608556,2482.17668548024
-0.0246942108217796,2482.18668548024
-0.0101935613299968,2482.19668548024
0.00409149191398716,2482.20668548024
0.0173401476619157,2482.21668548024
0.0294017471123233,2482.22668548024
0.0396102023293121,2482.23668548024
0.0481021329249007,2482.24668548024
0.0549990826140106,2482.25668548024
0.0601701711799531,2482.26668548024
0.0640340493502621,2482.27668548024
0.0666192241130315,2482.28668548024
0.0692550987841127,2482.29668548024
0.0712626995037656,2482.30668548024
0.0736412996912209,2482.31668548024
0.0755884358435361,2482.32668548024
0.0773520342266987,2482.33668548024
0.078889554176184,2482.34668548024
0.0790399010171852,2482.35668548024
0.0786399743281839,2482.36668548024
0.0772089020275479,2482.37668548024
0.0753171501730203,2482.38668548024
0.0736928731860289,2482.39668548024
0.0725524858614154,2482.40668548024
0.0719826348778213,2482.41668548024
0.0717531549927563,2482.42668548024
0.0717736266000282,2482.43668548024
0.0723840361569578,2482.44668548024
0.0732038908677016,2482.45668548024
0.0749525151959725,2482.46668548024
0.0767070605858945,2482.47668548024
0.07828800141581,2482.48668548024
0.0794891421531379,2482.49668548024
0.0800376839861308,2482.50668548024
0.0804601043076186,2482.51668548024
0.0809329001329899,2482.52668548024
0.0810334119008227,2482.53668548024
0.0812781719065671,2482.54668548024
0.0807169630817427,2482.55668548024
0.0799082361002917,2482.56668548024
0.0786387630292484,2482.57668548024
0.0768665619097659,2482.58668548024
0.0754126433082237,2482.59668548024
0.0738178888631341,2482.60668548024
0.0724733749235762,2482.61668548024
0.0710764497132691,2482.62668548024
0.0696929651828283,2482.63668548024
0.0680518616861473,2482.64668548024
0.0662964719637606,2482.65668548024
0.0645796544643969,2482.66668548024
0.0624909823955597,2482.67668548024
0.0601835844587652,2482.68668548024
0.0575010302344859,2482.69668548024
0.0546992803040702,2482.70668548024
0.0517498078420809,2482.71668548024
0.0486272986401131,2482.72668548024
0.0454362276330341,2482.73668548024
0.0424266290500514,2482.74668548024
0.0397363560003509,2482.75668548024
0.0364258342132371,2482.76668548024
0.0328591774313527,2482.77668548024
0.028854149055712,2482.78668548024
0.0249352592857359,2482.79668548024
0.0207831425054917,2482.80668548024
0.0175355270884849,2482.81668548024
0.0144218583809633,2482.82668548024
0.0124941623537696,2482.83668548024
0.0117574038015233,2482.84668548024
0.0129391474008177,2482.85668548024
0.0163624729288793,2482.86668548024
0.0226503060832418,2482.87668548024
0.0309387401696063,2482.88668548024
0.0419080855573405,2482.89668548024
0.0552241417186906,2482.90668548024
0.0702234613566928,2482.91668548024
0.0863840392997801,2482.92668548024
0.101897705579488,2482.93668548024
0.11704181734592,2482.94668548024
0.130980459295677,2482.95668548024
0.142878278539732,2482.96668548024
0.152786276818232,2482.97668548024
0.160782174817136,2482.98668548024
0.166724674594101,2482.99668548024
0.171337104395845,2483.00668548024
0.175216787119742,2483.01668548024
0.17918039234086,2483.02668548024
0.18332451028111,2483.03668548024
0.187333662288489,2483.04668548024
0.190456435290951,2483.05668548024
0.192873628118747,2483.06668548024
0.193965310309059,2483.07668548024
0.19422508629986,2483.08668548024
0.193719412135767,2483.09668548024
0.193086549903707,2483.10668548024
0.191573338848748,2483.11668548024
0.189785261612937,2483.12668548024
0.187750120913876,2483.13668548024
0.184921418086274,2483.14668548024
0.182156613444698,2483.15668548024
0.180070635767419,2483.16668548024
0.178736660170084,2483.17668548024
0.178528169865678,2483.18668548024
0.179037361892169,2483.19668548024
0.180557459357897,2483.20668548024
0.181570319326862,2483.21668548024
0.182734454631627,2483.22668548024
0.183573308416694,2483.23668548024
0.184213404948304,2483.24668548024
0.18485897653548,2483.25668548024
0.184744073805807,2483.26668548024
0.184629080472054,2483.27668548024
0.183584572676446,2483.28668548024
0.182571615793583,2483.29668548024
0.180296135752767,2483.30668548024
0.177492068222332,2483.31668548024
0.174089670469726,2483.32668548024
0.17033711856109,2483.33668548024
0.167112114418354,2483.34668548024
0.163941490938603,2483.35668548024
0.160780196477506,2483.36668548024
0.157795943047095,2483.37668548024
0.155568453010431,2483.38668548024
0.153329659169176,2483.39668548024
0.149806145235641,2483.40668548024
0.145356819838196,2483.41668548024
0.13991969036169,2483.42668548024
0.134475638808387,2483.43668548024
0.129662820398455,2483.44668548024
0.126620282287914,2483.45668548024
0.124642923247137,2483.46668548024
0.122085261172472,2483.47668548024
0.118645623353028,2483.48668548024
0.113684311144935,2483.49668548024
0.108725689945516,2483.50668548024
0.104027618522048,2483.51668548024
0.100827146325126,2483.52668548024
0.0983098776098804,2483.53668548024
0.0944579841720715,2483.54668548024
0.0896138031857937,2483.55668548024
0.0840959364469784,2483.56668548024
0.079887592316067,2483.57668548024
0.078496892638633,2483.58668548024
0.0809365169314261,2483.59668548024
0.0874159313791239,2483.60668548024
0.0960430924408349,2483.61668548024
0.106907915325884,2483.62668548024
0.119633579308225,2483.63668548024
0.134175656046323,2483.64668548024
0.149915395205676,2483.65668548024
0.166983066941679,2483.66668548024
0.184174324626792,2483.67668548024
0.198939435322171,2483.68668548024
0.211307507583961,2483.69668548024
0.220913416209195,2483.70668548024
0.228151597905305,2483.71668548024
0.233630485612954,2483.72668548024
0.238809757761523,2483.73668548024
0.243444116239842,2483.74668548024
0.247080839734978,2483.75668548024
0.24914425131721,2483.76668548024
0.250275723306105,2483.77668548024
0.25132831406595,2483.78668548024
0.252005384437824,2483.79668548024
0.253492304486017,2483.80668548024
0.255001297235333,2483.81668548024
0.25464223692911,2483.82668548024
0.252354784914544,2483.83668548024
0.249234526878231,2483.84668548024
0.244831155523088,2483.85668548024
0.241441812295605,2483.86668548024
0.238930519492059,2483.87668548024
0.236900569375668,2483.88668548024
0.235097067048716,2483.89668548024
0.232316250602408,2483.90668548024
0.229945813732792,2483.91668548024
0.227356426517394,2483.92668548024
0.225813552821402,2483.93668548024
0.225964949861919,2483.94668548024
0.226330582813905,2483.95668548024
0.226662511532459,2483.96668548024
0.226380857928263,2483.97668548024
0.224776697596163,2483.98668548024
0.222634900972892,2483.99668548024
0.220507405666784,2484.00668548024
0.21838563149502,2484.01668548024
0.216680455316792,2484.02668548024
0.214200910235396,2484.03668548024
0.210658512612826,2484.04668548024
0.206603701250175,2484.05668548024
0.202011355222979,2484.06668548024
0.197671864507862,2484.07668548024
0.194709179215911,2484.08668548024
0.192269665409743,2484.09668548024
0.189331571395494,2484.10668548024
0.184453677730475,2484.11668548024
0.178305054979415,2484.12668548024
0.171648434858955,2484.13668548024
0.165845254096292,2484.14668548024
0.162161739600325,2484.15668548024
0.159398857178696,2484.16668548024
0.156124769831627,2484.17668548024
0.151860387025071,2484.18668548024
0.146978485018397,2484.19668548024
0.14131207540758,2484.20668548024
0.135849934559292,2484.21668548024
0.132001345965531,2484.22668548024
0.129221786425468,2484.23668548024
0.126054762951309,2484.24668548024
0.121532084612735,2484.25668548024
0.115667170621479,2484.26668548024
0.109417075618323,2484.27668548024
0.103920021642771,2484.28668548024
0.0992667573693187,2484.29668548024
0.095038074819189,2484.30668548024
0.0902803322921787,2484.31668548024
0.0846790246419903,2484.32668548024
0.0797393670501492,2484.33668548024
0.0762185746207421,2484.34668548024
0.0755591907292174,2484.35668548024
0.0786408604615116,2484.36668548024
0.0853697626939238,2484.37668548024
0.0952059588703998,2484.38668548024
0.107122226779248,2484.39668548024
0.120632032850198,2484.40668548024
0.136000374431689,2484.41668548024
0.15252753911132,2484.42668548024
0.16976229794366,2484.43668548024
0.186446236387502,2484.44668548024
0.200155904557165,2484.45668548024
0.210182110278999,2484.46668548024
0.217660890671505,2484.47668548024
0.22277367688328,2484.48668548024
0.226563882117324,2484.49668548024
0.230752288825794,2484.50668548024
0.234595754252229,2484.51668548024
0.237317685200686,2484.52668548024
0.238778664735541,2484.53668548024
0.238943062425519,2484.54668548024
0.238747293484586,2484.55668548024
0.238761874662946,2484.56668548024
0.239939455929054,2484.57668548024
0.240341815142904,2484.58668548024
0.239471112181381,2484.59668548024
0.236672597591777,2484.60668548024
0.232646661331549,2484.61668548024
0.227758493172821,2484.62668548024
0.223098934933149,2484.63668548024
0.219896657538013,2484.64668548024
0.217824850861736,2484.65668548024
0.215829724817217,2484.66668548024
0.213263718738755,2484.67668548024
0.210590374374718,2484.68668548024
0.208271756502208,2484.69668548024
0.206458971451042,2484.70668548024
0.206566577536088,2484.71668548024
0.207316090066245,2484.72668548024
0.20718435021346,2484.73668548024
0.205841417231895,2484.74668548024
0.203412585385102,2484.75668548024
0.200701804920728,2484.76668548024
0.197572263936674,2484.77668548024
0.195586386701769,2484.78668548024
0.194026863498186,2484.79668548024
0.191568343737507,2484.80668548024
0.187877152955903,2484.81668548024
0.183173987894102,2484.82668548024
0.178134894423211,2484.83668548024
0.173299236465272,2484.84668548024
0.169784737967776,2484.85668548024
0.166534790308056,2484.86668548024
0.162639129479515,2484.87668548024
0.156998031722106,2484.88668548024
0.150827221286203,2484.89668548024
0.144178267422287,2484.90668548024
0.13806699336591,2484.91668548024
0.132974453079331,2484.92668548024
0.128609305145606,2484.93668548024
0.124587128758002,2484.94668548024
0.119295326573567,2484.95668548024
0.114104894608707,2484.96668548024
0.108733882939603,2484.97668548024
0.103652180896046,2484.98668548024
0.0994133664963227,2484.99668548024
0.095792567145762,2485.00668548024
0.0919328330208075,2485.01668548024
0.0869422503547784,2485.02668548024
0.0813371618610414,2485.03668548024
0.0753398315946922,2485.04668548024
0.0701256368813354,2485.05668548024
0.066211612410159,2485.06668548024
0.062289699376417,2485.07668548024
0.0580425245120015,2485.08668548024
0.0521399799342709,2485.09668548024
0.0458511588908428,2485.10668548024
0.0397108072690557,2485.11668548024
0.0351267234005743,2485.12668548024
0.0339764793292901,2485.13668548024
0.0355972082114438,2485.14668548024
0.0393632264776689,2485.15668548024
0.0443377809649529,2485.16668548024
0.0509244613673248,2485.17668548024
0.0585294356423656,2485.18668548024
0.0681861524344689,2485.19668548024
0.0793200454226531,2485.20668548024
0.0901889571007365,2485.21668548024
0.100267122918789,2485.22668548024
0.107523575241686,2485.23668548024
0.112770003646161,2485.24668548024
0.116133267554959,2485.25668548024
0.118337543905873,2485.26668548024
0.120368421122109,2485.27668548024
0.122320448917646,2485.28668548024
0.123019278521779,2485.29668548024
0.122039848378891,2485.30668548024
0.1207510398685,2485.31668548024
0.119234935606382,2485.32668548024
0.118088424099012,2485.33668548024
0.117711739427079,2485.34668548024
0.117267969970062,2485.35668548024
0.115400476013796,2485.36668548024
0.1123456923548,2485.37668548024
0.108956550090389,2485.38668548024
0.104693587002969,2485.39668548024
0.100483978146222,2485.40668548024
0.097357841638948,2485.41668548024
0.0946305805240295,2485.42668548024
0.0915303724226966,2485.43668548024
0.0879542420533654,2485.44668548024
0.0839782341437641,2485.45668548024
0.0804608336789203,2485.46668548024
0.078223541340079,2485.47668548024
0.0766421803001778,2485.48668548024
0.0761821530606621,2485.49668548024
0.0751542840759232,2485.50668548024
0.0732180339407109,2485.51668548024
0.0702428601019251,2485.52668548024
0.0664121173655639,2485.53668548024
0.0630757083329591,2485.54668548024
0.060839302161811,2485.55668548024
0.0587124044987746,2485.56668548024
0.0554775549695063,2485.57668548024
0.0517162783539463,2485.58668548024
0.0473135119877341,2485.59668548024
0.0423592666639481,2485.60668548024
0.0379200000931027,2485.61668548024
0.0345611527190096,2485.62668548024
0.0316129228758568,2485.63668548024
0.0280686854288059,2485.64668548024
0.023615480004685,2485.65668548024
0.0185588805584067,2485.66668548024
0.0134308492635191,2485.67668548024
0.00835720481354687,2485.68668548024
0.00394955728480698,2485.69668548024
-5.17410364781546e-05,2485.70668548024
-0.00443363491499803,2485.71668548024
-0.0100762094265905,2485.72668548024
-0.0165899640896045,2485.73668548024
-0.0233429111669865,2485.74668548024
-0.0293972134127889,2485.75668548024
-0.034153414077538,2485.76668548024
-0.0379387764155871,2485.77668548024
-0.0421948873542262,2485.78668548024
-0.047408256890671,2485.79668548024
-0.0533384512377399,2485.80668548024
-0.0597758387895015,2485.81668548024
-0.0657882465942066,2485.82668548024
-0.0704143933896675,2485.83668548024
-0.0741345362717141,2485.84668548024
-0.0782659308047631,2485.85668548024
-0.0834172550133624,2485.86668548024
-0.0887610356694061,2485.87668548024
-0.0945400441060143,2485.88668548024
-0.09955576712567,2485.89668548024
-0.102966362972906,2485.90668548024
-0.104807567446232,2485.91668548024
-0.10574908472483,2485.92668548024
-0.106394132192768,2485.93668548024
-0.105506462698993,2485.94668548024
-0.10295986014249,2485.95668548024
-0.0984075232102534,2485.96668548024
-0.0911698185768555,2485.97668548024
-0.0831193968954698,2485.98668548024
-0.0758479889653105,2485.99668548024
-0.0702301866436726,2486.00668548024
-0.0657984460913445,2486.01668548024
-0.062568863040897,2486.02668548024
-0.0598298072212499,2486.03668548024
-0.0563636386707036,2486.04668548024
-0.0538577427127353,2486.05668548024
-0.0524380030916564,2486.06668548024
-0.0522192250523517,2486.07668548024
-0.0527272892227612,2486.08668548024
-0.0537813178698172,2486.09668548024
-0.0545608930266808,2486.10668548024
-0.0540241325023546,2486.11668548024
-0.0539162402765237,2486.12668548024
-0.0542915491638448,2486.13668548024
-0.0564759061107971,2486.14668548024
-0.0598408886530852,2486.15668548024
-0.0636395246208584,2486.16668548024
-0.0668008841746691,2486.17668548024
-0.0690312158811021,2486.18668548024
-0.0706473569443579,2486.19668548024
-0.0731774624276946,2486.20668548024
-0.0765624594672666,2486.21668548024
-0.0804150457714558,2486.22668548024
-0.0841756480850333,2486.23668548024
-0.0868190752394203,2486.24668548024
-0.0876741365837627,2486.25668548024
-0.087513852088637,2486.26668548024
-0.0881229414907624,2486.27668548024
-0.0895427876045286,2486.28668548024
-0.0913579334385148,2486.29668548024
-0.0939154878173154,2486.30668548024
-0.0960417103460928,2486.31668548024
-0.0974789464774551,2486.32668548024
-0.0986472319915389,2486.33668548024
-0.0993649475271773,2486.34668548024
-0.100069806545961,2486.35668548024
-0.100981151095882,2486.36668548024
-0.103007506002414,2486.37668548024
-0.103499064732977,2486.38668548024
-0.103157319547123,2486.39668548024
-0.104662315246865,2486.40668548024
-0.107570720739547,2486.41668548024
-0.111613011691608,2486.42668548024
-0.116130645411049,2486.43668548024
-0.120630640572255,2486.44668548024
-0.122591936444589,2486.45668548024
-0.123115307258221,2486.46668548024
-0.124856689287996,2486.47668548024
-0.128861873256445,2486.48668548024
-0.134305935455783,2486.49668548024
-0.140131297321841,2486.50668548024
-0.145422669929874,2486.51668548024
-0.14769724071187,2486.52668548024
-0.147763463838975,2486.53668548024
-0.148623001565104,2486.54668548024
-0.152054234642581,2486.55668548024
-0.156711848763475,2486.56668548024
-0.16145549150759,2486.57668548024
-0.166430141130405,2486.58668548024
-0.168432440973199,2486.59668548024
-0.167744783868075,2486.60668548024
-0.168645011728306,2486.61668548024
-0.171722843897165,2486.62668548024
-0.177034175144452,2486.63668548024
-0.183560209771157,2486.64668548024
-0.189277894046013,2486.65668548024
-0.191663832445632,2486.66668548024
-0.191279511612127,2486.67668548024
-0.191108203392214,2486.68668548024
-0.191972402886367,2486.69668548024
-0.193139681553811,2486.70668548024
-0.193260297014936,2486.71668548024
-0.191181806428333,2486.72668548024
-0.184527923330968,2486.73668548024
-0.175289563613678,2486.74668548024
-0.166507773438283,2486.75668548024
-0.159766964900063,2486.76668548024
-0.15536601209098,2486.77668548024
-0.151595414148998,2486.78668548024
-0.148102537408478,2486.79668548024
-0.14208956121904,2486.80668548024
-0.134896810599403,2486.81668548024
-0.129305229331772,2486.82668548024
-0.126183839008321,2486.83668548024
-0.125501038309756,2486.84668548024
-0.12572321982885,2486.85668548024
-0.126570211182767,2486.86668548024
-0.124842941751341,2486.87668548024
-0.121582019537709,2486.88668548024
-0.119594564424013,2486.89668548024
-0.119485824810821,2486.90668548024
-0.121284240567796,2486.91668548024
-0.12368772532017,2486.92668548024
-0.125789101298307,2486.93668548024
-0.125371545377252,2486.94668548024
-0.123134656579028,2486.95668548024
-0.121801185866448,2486.96668548024
-0.123563437131199,2486.97668548024
-0.127125909221457,2486.98668548024
-0.130885129118103,2486.99668548024
-0.133796540510599,2487.00668548024
-0.133396629546553,2487.01668548024
-0.131426780514136,2487.02668548024
-0.130163842971875,2487.03668548024
-0.130407370854757,2487.04668548024
-0.132168684226525,2487.05668548024
-0.133883352248282,2487.06668548024
-0.135762140231859,2487.07668548024
-0.134879969388183,2487.08668548024
-0.132737793872278,2487.09668548024
-0.132225023270934,2487.10668548024
-0.13338797297953,2487.11668548024
-0.135437457828323,2487.12668548024
-0.137725218591079,2487.13668548024
-0.139597064116729,2487.14668548024
-0.1384811161782,2487.15668548024
-0.136522929938632,2487.16668548024
-0.135714463943149,2487.17668548024
-0.13753020741875,2487.18668548024
-0.141149735241707,2487.19668548024
-0.144649672377478,2487.20668548024
-0.148336892999447,2487.21668548024
-0.14933305611721,2487.22668548024
-0.148595022934145,2487.23668548024
-0.148914086224466,2487.24668548024
-0.15158661786627,2487.25668548024
-0.155356962253829,2487.26668548024
-0.159931297649741,2487.27668548024
-0.164195160943817,2487.28668548024
-0.165195646884616,2487.29668548024
-0.164509509680422,2487.30668548024
-0.164836171631115,2487.31668548024
-0.167865241981051,2487.32668548024
-0.172806633045182,2487.33668548024
-0.178523059486689,2487.34668548024
-0.183131505307998,2487.35668548024
-0.185802196633764,2487.36668548024
-0.187333244177419,2487.37668548024
-0.186413075753172,2487.38668548024
-0.184468672649431,2487.39668548024
-0.183842561758973,2487.40668548024
-0.185787985390943,2487.41668548024
-0.188925762485254,2487.42668548024
-0.191399866903306,2487.43668548024
-0.192085606597449,2487.44668548024
-0.188352934395005,2487.45668548024
-0.180833601601407,2487.46668548024
-0.173293574463372,2487.47668548024
-0.166697584195664,2487.48668548024
-0.161364994938346,2487.49668548024
-0.156088763707554,2487.50668548024
-0.150189970002491,2487.51668548024
-0.140857263488883,2487.52668548024
-0.129805636006802,2487.53668548024
-0.120661655474506,2487.54668548024
-0.114473374509617,2487.55668548024
-0.110746428849106,2487.56668548024
-0.10832319174521,2487.57668548024
-0.106529544467152,2487.58668548024
-0.101778189776459,2487.59668548024
-0.095942716807547,2487.60668548024
-0.091601792957443,2487.61668548024
-0.0899143616637309,2487.62668548024
-0.0903973205567731,2487.63668548024
-0.0912489994869991,2487.64668548024
-0.0919059990357035,2487.65668548024
-0.0896935839880645,2487.66668548024
-0.0860396676972952,2487.67668548024
-0.0838435402488629,2487.68668548024
-0.0843549930067314,2487.69668548024
-0.0865846019615309,2487.70668548024
-0.0892859092445211,2487.71668548024
-0.0917123087637112,2487.72668548024
-0.0907801217494346,2487.73668548024
-0.0882634255466794,2487.74668548024
-0.0867325616118011,2487.75668548024
-0.0874494776866708,2487.76668548024
-0.0895741156041244,2487.77668548024
-0.0916058575087784,2487.78668548024
-0.0931925129601994,2487.79668548024
-0.091308949122036,2487.80668548024
-0.0870443374148719,2487.81668548024
-0.0832588527251824,2487.82668548024
-0.0820055255335406,2487.83668548024
-0.0823984900818927,2487.84668548024
-0.0839368806531539,2487.85668548024
-0.0853521802228847,2487.86668548024
-0.0840207360199402,2487.87668548024
-0.0814597661283054,2487.88668548024
-0.0802366083449586,2487.89668548024
-0.0812823720409932,2487.90668548024
-0.0847458382072347,2487.91668548024
-0.0885261642575487,2487.92668548024
-0.0918722736670915,2487.93668548024
-0.0923313482201307,2487.94668548024
-0.0911211234605433,2487.95668548024
-0.0910014512005777,2487.96668548024
-0.0926323896844379,2487.97668548024
-0.0963714424212138,2487.98668548024
-0.100248525447778,2487.99668548024
-0.104097705929513,2488.00668548024
-0.105033521787001,2488.01668548024
-0.104339906621809,2488.02668548024
-0.104489099914735,2488.03668548024
-0.106890697568309,2488.04668548024
-0.110042468765157,2488.05668548024
-0.113614848676938,2488.06668548024
-0.116728382596114,2488.07668548024
-0.116958435544103,2488.08668548024
-0.116213880918704,2488.09668548024
-0.116556815773779,2488.10668548024
-0.119732160532485,2488.11668548024
-0.123921839270346,2488.12668548024
-0.128393972336205,2488.13668548024
-0.132077318013341,2488.14668548024
-0.132087413731109,2488.15668548024
-0.130697332250657,2488.16668548024
-0.13029507185163,2488.17668548024
-0.132918880804557,2488.18668548024
-0.136296022480165,2488.19668548024
-0.139075128589593,2488.20668548024
-0.139866135203398,2488.21668548024
-0.135145812273198,2488.22668548024
-0.126678760979981,2488.23668548024
-0.117614595387022,2488.24668548024
-0.109407314707388,2488.25668548024
-0.102170065125318,2488.26668548024
-0.0942516349356147,2488.27668548024
-0.0856574886023764,2488.28668548024
-0.0742107646047593,2488.29668548024
-0.0618798865142561,2488.30668548024
-0.0523695310366233,2488.31668548024
-0.0462963179969371,2488.32668548024
-0.0435378168771877,2488.33668548024
-0.0421420482669115,2488.34668548024
-0.0410718317630423,2488.35668548024
-0.0388935354756861,2488.36668548024
-0.0357794365833535,2488.37668548024
-0.0302096146890281,2488.38668548024
-0.0239132180874101,2488.39668548024
-0.019528577382853,2488.40668548024
-0.0174693055770828,2488.41668548024
-0.0175039430723228,2488.42668548024
-0.0177310043237647,2488.43668548024
-0.018326316180745,2488.44668548024
-0.0159653680150236,2488.45668548024
-0.0128070367933547,2488.46668548024
-0.0107645379695676,2488.47668548024
-0.0111239800476306,2488.48668548024
-0.0137053203440238,2488.49668548024
-0.0164126902769482,2488.50668548024
-0.0181369606080593,2488.51668548024
-0.0163210072893241,2488.52668548024
-0.0126319448413758,2488.53668548024
-0.00981584783532567,2488.54668548024
-0.0088442398193948,2488.55668548024
-0.0101065122641326,2488.56668548024
-0.0114195899779503,2488.57668548024
-0.0127487758526108,2488.58668548024
-0.0108047240118899,2488.59668548024
-0.00724349795554421,2488.60668548024
-0.00518411543385938,2488.61668548024
-0.00547590232044664,2488.62668548024
-0.0076292971704192,2488.63668548024
-0.0103373845142047,2488.64668548024
-0.012982157588289,2488.65668548024
-0.0125926041171669,2488.66668548024
-0.0106256362571323,2488.67668548024
-0.00945014496282265,2488.68668548024
-0.0104674262666791,2488.69668548024
-0.013070075558398,2488.70668548024
-0.016066889686587,2488.71668548024
-0.0189326249460472,2488.72668548024
-0.019503495133424,2488.73668548024
-0.0186753285504684,2488.74668548024
-0.0196122848219352,2488.75668548024
-0.0226803351080328,2488.76668548024
-0.0265601487698793,2488.77668548024
-0.0315129724994035,2488.78668548024
-0.0363192156984938,2488.79668548024
-0.0381040567818068,2488.80668548024
-0.0379908622618993,2488.81668548024
-0.0388931255865389,2488.82668548024
-0.0419417205684949,2488.83668548024
-0.0464485940525786,2488.84668548024
-0.0519223970932809,2488.85668548024
-0.0565596113550652,2488.86668548024
-0.0578265920162824,2488.87668548024
-0.0575628406356158,2488.88668548024
-0.0586442908823617,2488.89668548024
-0.0625068432895448,2488.90668548024
-0.0684770086845415,2488.91668548024
-0.0741788631994135,2488.92668548024
-0.0797994253314529,2488.93668548024
-0.0812802668298347,2488.94668548024
-0.0813607479131875,2488.95668548024
-0.082512996217184,2488.96668548024
-0.0852121023358303,2488.97668548024
-0.0886730342051564,2488.98668548024
-0.0913451727431763,2488.99668548024
-0.0917981764348919,2489.00668548024
-0.0872819255064878,2489.01668548024
-0.0791787889311975,2489.02668548024
-0.0711862351888932,2489.03668548024
-0.0647445128956279,2489.04668548024
-0.0592013876499129,2489.05668548024
-0.0533414581536232,2489.06668548024
-0.0474913706002846,2489.07668548024
-0.0385906459727094,2489.08668548024
-0.0287054005332567,2489.09668548024
-0.0212118928225684,2489.10668548024
-0.0161477105949511,2489.11668548024
-0.0136026688744231,2489.12668548024
-0.0129003656943825,2489.13668548024
-0.0122986193087127,2489.14668548024
-0.00922886010313263,2489.15668548024
-0.00427920054832261,2489.16668548024
-0.000533368116503242,2489.17668548024
0.00115674826042316,2489.18668548024
0.00103078241900969,2489.19668548024
7.92611513046016e-05,2489.20668548024
-0.000428397750181415,2489.21668548024
0.00190936550464309,2489.22668548024
0.00493141010967635,2489.23668548024
0.00595865190327076,2489.24668548024
0.00380689144226837,2489.25668548024
-0.000595893243691894,2489.26668548024
-0.00515492629222541,2489.27668548024
-0.0090442543694869,2489.28668548024
-0.00910180139007579,2489.29668548024
-0.00675302693064471,2489.30668548024
-0.00562582589000172,2489.31668548024
-0.00613655313333884,2489.32668548024
-0.0090399694185084,2489.33668548024
-0.0121302305712373,2489.34668548024
-0.0145738115059846,2489.35668548024
-0.015922424952266,2489.36668548024
-0.0159695584294299,2489.37668548024
-0.0134326108283453,2489.38668548024
-0.0103258080712715,2489.39668548024
-0.00908297118681127,2489.40668548024
-0.0105262099169701,2489.41668548024
-0.0141421520253167,2489.42668548024
-0.0176253911165011,2489.43668548024
-0.0209890430749303,2489.44668548024
-0.0211753364392697,2489.45668548024
-0.0196517808525177,2489.46668548024
-0.0191787361383236,2489.47668548024
-0.0212477240567186,2489.48668548024
-0.0246518654033216,2489.49668548024
-0.0283752142140801,2489.50668548024
-0.0316205063002483,2489.51668548024
-0.0320594624412273,2489.52668548024
-0.0309700327102095,2489.53668548024
-0.0314896768087978,2489.54668548024
-0.0353027375921205,2489.55668548024
-0.0405661742030822,2489.56668548024
-0.0469910395703851,2489.57668548024
-0.0520940954615685,2489.58668548024
-0.0537914978789766,2489.59668548024
-0.0534210087556177,2489.60668548024
-0.0535277179955241,2489.61668548024
-0.0556416374547781,2489.62668548024
-0.0592540881001499,2489.63668548024
-0.0633336807436387,2489.64668548024
-0.0672069453364631,2489.65668548024
-0.0681023134683667,2489.66668548024
-0.0679105627087048,2489.67668548024
-0.0691068169970141,2489.68668548024
-0.0725737023118798,2489.69668548024
-0.0785060827086554,2489.70668548024
-0.0850272984720675,2489.71668548024
-0.0902452007979504,2489.72668548024
-0.0921364406200753,2489.73668548024
-0.0919221180614969,2489.74668548024
-0.092428284337996,2489.75668548024
-0.094671657031955,2489.76668548024
-0.0975492944844651,2489.77668548024
-0.100053434873563,2489.78668548024
-0.101183502039725,2489.79668548024
-0.0971910085140583,2489.80668548024
-0.0899993667243011,2489.81668548024
-0.0820904937534098,2489.82668548024
-0.0758202088137168,2489.83668548024
-0.0705991218511374,2489.84668548024
-0.0650479548063054,2489.85668548024
-0.0597623996082883,2489.86668548024
-0.0509491261517397,2489.87668548024
-0.04136589711641,2489.88668548024
-0.0337679910009003,2489.89668548024
-0.029424559515914,2489.90668548024
-0.0283910589689839,2489.91668548024
-0.0287897557752132,2489.92668548024
-0.0304125835813186,2489.93668548024
-0.0295147769536455,2489.94668548024
-0.0274075972592305,2489.95668548024
-0.0263884295262217,2489.96668548024
-0.0273809902146433,2489.97668548024
-0.0299117905049459,2489.98668548024
-0.0328845383849992,2489.99668548024
-0.0357647946270372,2490.00668548024
-0.0356983190908819,2490.01668548024
-0.033901900163709,2490.02668548024
-0.0339249700841989,2490.03668548024
-0.0364711347305357,2490.04668548024
-0.0414321509775561,2490.05668548024
-0.0463971712422291,2490.06668548024
-0.050742792107163,2490.07668548024
-0.0512479808864416,2490.08668548024
-0.0494894988954524,2490.09668548024
-0.0477834236073895,2490.10668548024
-0.048477564767634,2490.11668548024
-0.0504530732962005,2490.12668548024
-0.0525775753956262,2490.13668548024
-0.0548751279274975,2490.14668548024
-0.0535239850481227,2490.15668548024
-0.0511632301089511,2490.16668548024
-0.0504015572661409,2490.17668548024
-0.0519118522348019,2490.18668548024
-0.0554390112791307,2490.19668548024
-0.0593304346021067,2490.20668548024
-0.0622878120842378,2490.21668548024
-0.0621478743260472,2490.22668548024
-0.0604510365641025,2490.23668548024
-0.0595192257582329,2490.24668548024
-0.0606587388765924,2490.25668548024
-0.0637421932200613,2490.26668548024
-0.066950510934804,2490.27668548024
-0.0702495051666282,2490.28668548024
-0.0704188054434811,2490.29668548024
-0.0692808128771003,2490.30668548024
-0.0697704079799759,2490.31668548024
-0.0724862401203625,2490.32668548024
-0.0773344095283885,2490.33668548024
-0.0827983979340033,2490.34668548024
-0.087643641416566,2490.35668548024
-0.0907983642328162,2490.36668548024
-0.0933434735596442,2490.37668548024
-0.0929438761114773,2490.38668548024
-0.0918124644055635,2490.39668548024
-0.0919317544152625,2490.40668548024
-0.0941633678077251,2490.41668548024
-0.0975316150202279,2490.42668548024
-0.101047172378801,2490.43668548024
-0.104403446609288,2490.44668548024
-0.105371543712291,2490.45668548024
-0.104751974143167,2490.46668548024
-0.105022886196489,2490.47668548024
-0.108029120549822,2490.48668548024
-0.112338768552392,2490.49668548024
-0.117351498797861,2490.50668548024
-0.122003514612209,2490.51668548024
-0.123782765934064,2490.52668548024
-0.123431409510885,2490.53668548024
-0.12244118253358,2490.54668548024
-0.121491785525412,2490.55668548024
-0.120051958360966,2490.56668548024
-0.117455782310839,2490.57668548024
-0.113392473120003,2490.58668548024
-0.105549069151186,2490.59668548024
-0.0954148424319039,2490.60668548024
-0.0856182192321024,2490.61668548024
-0.0779721099372999,2490.62668548024
-0.0726140652275392,2490.63668548024
-0.0692870235926374,2490.64668548024
-0.0670084523061191,2490.65668548024
-0.0621591503084812,2490.66668548024
-0.0560463015322689,2490.67668548024
-0.0515340382317995,2490.68668548024
-0.0499394410882312,2490.69668548024
-0.0507409448968245,2490.70668548024
-0.0525398432766925,2490.71668548024
-0.0544727677961693,2490.72668548024
-0.0529800656383195,2490.73668548024
-0.0498978660805211,2490.74668548024
-0.0478499126110419,2490.75668548024
-0.0479297955579304,2490.76668548024
-0.0499547806638073,2490.77668548024
-0.0528251699194542,2490.78668548024
-0.0559235680972627,2490.79668548024
-0.0558233323921669,2490.80668548024
-0.0544447288352885,2490.81668548024
-0.0541567589929649,2490.82668548024
-0.0561858637398545,2490.83668548024
-0.0594310787210498,2490.84668548024
-0.0630184621432241,2490.85668548024
-0.0658683569505842,2490.86668548024
-0.0657341820247553,2490.87668548024
-0.0632291929131944,2490.88668548024
-0.0614599586524649,2490.89668548024
-0.0616599276040766,2490.90668548024
-0.0635831222439695,2490.91668548024
-0.0660863518747422,2490.92668548024
-0.069097997109966,2490.93668548024
-0.069253885964819,2490.94668548024
-0.0677097628887257,2490.95668548024
-0.0669174307665182,2490.96668548024
-0.067601171269084,2490.97668548024
-0.0700819442430041,2490.98668548024
-0.072514822183169,2490.99668548024
-0.0748424147879339,2491.00668548024
-0.0741624060464923,2491.01668548024
-0.0723183403874849,2491.02668548024
-0.0712815748769129,2491.03668548024
-0.0721039566065774,2491.04668548024
-0.0750576443144971,2491.05668548024
-0.0783402796069393,2491.06668548024
-0.0815157577021347,2491.07668548024
-0.082158750480216,2491.08668548024
-0.0817528151888517,2491.09668548024
-0.0828530965632709,2491.10668548024
-0.0857315142826068,2491.11668548024
-0.0901544715466809,2491.12668548024
-0.0944850334244254,2491.13668548024
-0.098288409822456,2491.14668548024
-0.0992455717338209,2491.15668548024
-0.0984051819946125,2491.16668548024
-0.0982375834641231,2491.17668548024
-0.100494001798789,2491.18668548024
-0.104121264470653,2491.19668548024
-0.107921236164576,2491.20668548024
-0.111706286612779,2491.21668548024
-0.112775639491506,2491.22668548024
-0.111956544107456,2491.23668548024
-0.112515801133548,2491.24668548024
-0.115082618029232,2491.25668548024
-0.118589872918368,2491.26668548024
-0.121551728578396,2491.27668548024
-0.123196756356541,2491.28668548024
-0.120670412726769,2491.29668548024
-0.114922265315934,2491.30668548024
-0.109267119881722,2491.31668548024
-0.104363459937675,2491.32668548024
-0.100232809238773,2491.33668548024
-0.0955802262918048,2491.34668548024
-0.0899752206302216,2491.35668548024
-0.0831033380329986,2491.36668548024
-0.0757486225800853,2491.37668548024
-0.0663604213951722,2491.38668548024
-0.0565765308343639,2491.39668548024
-0.0489273600484134,2491.40668548024
-0.0443917233182634,2491.41668548024
-0.042163753476944,2491.42668548024
-0.0411536543738655,2491.43668548024
-0.0406572968073262,2491.44668548024
-0.0382212087306783,2491.45668548024
-0.0354800790492885,2491.46668548024
-0.033614757036303,2491.47668548024
-0.0333628859197055,2491.48668548024
-0.0346543434665967,2491.49668548024
-0.036073005224529,2491.50668548024
-0.0375699721086302,2491.51668548024
-0.0362504070021612,2491.52668548024
-0.033320462464163,2491.53668548024
-0.0312492979997163,2491.54668548024
-0.0315307763908303,2491.55668548024
-0.0339757828734686,2491.56668548024
-0.0365815472621462,2491.57668548024
-0.0390047427995438,2491.58668548024
-0.0382814022680963,2491.59668548024
-0.0361975810211015,2491.60668548024
-0.0348824121977124,2491.61668548024
-0.0348905354281275,2491.62668548024
-0.0366765916497582,2491.63668548024
-0.0382412216450397,2491.64668548024
-0.0395293226780559,2491.65668548024
-0.037880668797928,2491.66668548024
-0.0351799603385524,2491.67668548024
-0.0330631281783401,2491.68668548024
-0.0329807925570307,2491.69668548024
-0.0350142718803481,2491.70668548024
-0.0375483869274414,2491.71668548024
-0.0402617745382503,2491.72668548024
-0.0401960292768654,2491.73668548024
-0.0387094721875933,2491.74668548024
-0.0376674078114216,2491.75668548024
-0.0383534333684385,2491.76668548024
-0.0406642176796271,2491.77668548024
-0.0431118951135839,2491.78668548024
-0.0457640713245474,2491.79668548024
-0.0462164513900877,2491.80668548024
-0.0451292275297877,2491.81668548024
