PPG,time
-0.0975187467683889,2648.15354970099
-0.175417557504429,2648.16354970099
-0.135732913031942,2648.17354970099
-0.138909243221488,2648.18354970099
-0.126153550591954,2648.19354970099
-0.130763806264213,2648.20354970099
-0.129717887528859,2648.21354970099
-0.136518752141992,2648.22354970099
-0.141523891689544,2648.23354970099
-0.149818877230164,2648.24354970099
-0.157846217669165,2648.25354970099
-0.165945126519843,2648.26354970099
-0.17427019622236,2648.27354970099
-0.181831560595266,2648.28354970099
-0.189142720514971,2648.29354970099
-0.195564976781339,2648.30354970099
-0.202265027119225,2648.31354970099
-0.208593117867159,2648.32354970099
-0.215391156897666,2648.33354970099
-0.222999409145907,2648.34354970099
-0.230350729005865,2648.35354970099
-0.238145896879844,2648.36354970099
-0.245675672123708,2648.37354970099
-0.253487105585611,2648.38354970099
-0.261137778844072,2648.39354970099
-0.26843843603167,2648.40354970099
-0.275050843774412,2648.41354970099
-0.281087138838511,2648.42354970099
-0.285096171697448,2648.43354970099
-0.28796094797453,2648.44354970099
-0.289553646153767,2648.45354970099
-0.290084813110796,2648.46354970099
-0.289780807416287,2648.47354970099
-0.288908607334034,2648.48354970099
-0.287889917017648,2648.49354970099
-0.286424571916393,2648.50354970099
-0.285794976667281,2648.51354970099
-0.285478396496066,2648.52354970099
-0.285933456950666,2648.53354970099
-0.28756134175127,2648.54354970099
-0.290075856679093,2648.55354970099
-0.293651320195777,2648.56354970099
-0.297882854011684,2648.57354970099
-0.302622092036323,2648.58354970099
-0.307591677607233,2648.59354970099
-0.312521704777991,2648.60354970099
-0.317253375457581,2648.61354970099
-0.322109168603903,2648.62354970099
-0.326693877856725,2648.63354970099
-0.330226791875728,2648.64354970099
-0.333907276533816,2648.65354970099
-0.336996582976899,2648.66354970099
-0.340614440809772,2648.67354970099
-0.344282189267508,2648.68354970099
-0.348035977147548,2648.69354970099
-0.351829815694186,2648.70354970099
-0.356189871192143,2648.71354970099
-0.360847042545234,2648.72354970099
-0.365182915727749,2648.73354970099
-0.36965865862074,2648.74354970099
-0.373654134817925,2648.75354970099
-0.374865507648772,2648.76354970099
-0.371437662390877,2648.77354970099
-0.36075986265631,2648.78354970099
-0.342145642056203,2648.79354970099
-0.315899783641184,2648.80354970099
-0.283709823325384,2648.81354970099
-0.248487846407306,2648.82354970099
-0.21314313546883,2648.83354970099
-0.180765811572224,2648.84354970099
-0.153523306834102,2648.85354970099
-0.132476620639202,2648.86354970099
-0.117069244119308,2648.87354970099
-0.10777209614554,2648.88354970099
-0.103973221919585,2648.89354970099
-0.103787379602605,2648.90354970099
-0.107368251604948,2648.91354970099
-0.112829998378658,2648.92354970099
-0.119831938905027,2648.93354970099
-0.127481270073976,2648.94354970099
-0.135618958857612,2648.95354970099
-0.143536384697464,2648.96354970099
-0.151531907524607,2648.97354970099
-0.159551625442872,2648.98354970099
-0.167392255268614,2648.99354970099
-0.175025167295003,2649.00354970099
-0.182234076424566,2649.01354970099
-0.189304129730984,2649.02354970099
-0.196492391758246,2649.03354970099
-0.20436915307963,2649.04354970099
-0.212137531361415,2649.05354970099
-0.221001023363878,2649.06354970099
-0.229469819034561,2649.07354970099
-0.238206837053019,2649.08354970099
-0.245951177513404,2649.09354970099
-0.252583987527034,2649.10354970099
-0.258043527750338,2649.11354970099
-0.261885982674887,2649.12354970099
-0.263949645504813,2649.13354970099
-0.264409708678928,2649.14354970099
-0.263405311886066,2649.15354970099
-0.261988402603811,2649.16354970099
-0.260645700458584,2649.17354970099
-0.258830751927231,2649.18354970099
-0.256970988715387,2649.19354970099
-0.255755256145142,2649.20354970099
-0.255104230645558,2649.21354970099
-0.255052074312307,2649.22354970099
-0.255527721763425,2649.23354970099
-0.257064600874374,2649.24354970099
-0.259275206023788,2649.25354970099
-0.261954958169341,2649.26354970099
-0.265142053467904,2649.27354970099
-0.268788355544899,2649.28354970099
-0.27315204861628,2649.29354970099
-0.27785097493179,2649.30354970099
-0.282851898822015,2649.31354970099
-0.287894353185036,2649.32354970099
-0.292457709865444,2649.33354970099
-0.296127966384011,2649.34354970099
-0.299621171020315,2649.35354970099
-0.303358172431902,2649.36354970099
-0.30728212813266,2649.37354970099
-0.311262635635882,2649.38354970099
-0.315169753512343,2649.39354970099
-0.319435497098033,2649.40354970099
-0.323769916731182,2649.41354970099
-0.328249675637884,2649.42354970099
-0.332374657644979,2649.43354970099
-0.335662712436765,2649.44354970099
-0.336340230530356,2649.45354970099
-0.332833737074958,2649.46354970099
-0.322798819917653,2649.47354970099
-0.304765838435734,2649.48354970099
-0.27899362954902,2649.49354970099
-0.246463235573659,2649.50354970099
-0.209689777864921,2649.51354970099
-0.17183048601407,2649.52354970099
-0.136619970704126,2649.53354970099
-0.105270687117635,2649.54354970099
-0.080302053304946,2649.55354970099
-0.0619498996686862,2649.56354970099
-0.0498793088266539,2649.57354970099
-0.0438831760907825,2649.58354970099
-0.0420704508857564,2649.59354970099
-0.0438274828942343,2649.60354970099
-0.0478040207503815,2649.61354970099
-0.0533763445193287,2649.62354970099
-0.0595803235709192,2649.63354970099
-0.0660543448646058,2649.64354970099
-0.0726215464460028,2649.65354970099
-0.0794495618521077,2649.66354970099
-0.0866072995401034,2649.67354970099
-0.0935991291977672,2649.68354970099
-0.101131747548816,2649.69354970099
-0.108362900133781,2649.70354970099
-0.115874484420371,2649.71354970099
-0.123444409590045,2649.72354970099
-0.131439698988742,2649.73354970099
-0.140266925604336,2649.74354970099
-0.149414957728981,2649.75354970099
-0.157855430823041,2649.76354970099
-0.165731977949586,2649.77354970099
-0.17276680777139,2649.78354970099
-0.178908885044012,2649.79354970099
-0.182940502469096,2649.80354970099
-0.185166086801529,2649.81354970099
-0.185770171907107,2649.82354970099
-0.184842883640405,2649.83354970099
-0.183265838396908,2649.84354970099
-0.180895455106089,2649.85354970099
-0.177876928001242,2649.86354970099
-0.174623954993045,2649.87354970099
-0.171335056456918,2649.88354970099
-0.168284433625801,2649.89354970099
-0.165962371975082,2649.90354970099
-0.164839402395843,2649.91354970099
-0.164498879330463,2649.92354970099
-0.165671190331724,2649.93354970099
-0.167520690035535,2649.94354970099
-0.170063628048641,2649.95354970099
-0.172563820540925,2649.96354970099
-0.175702616302288,2649.97354970099
-0.178736428671063,2649.98354970099
-0.181478386854993,2649.99354970099
-0.184503029604349,2650.00354970099
-0.187497798378415,2650.01354970099
-0.190862430547567,2650.02354970099
-0.194214375942896,2650.03354970099
-0.198059610980651,2650.04354970099
-0.202141499672551,2650.05354970099
-0.206666332887623,2650.06354970099
-0.21088311218863,2650.07354970099
-0.214943468590291,2650.08354970099
-0.218858836180657,2650.09354970099
-0.222436977168729,2650.10354970099
-0.22588273935352,2650.11354970099
-0.229321554790083,2650.12354970099
-0.231867532642654,2650.13354970099
-0.231063529020133,2650.14354970099
-0.224312854704104,2650.15354970099
-0.20929547547005,2650.16354970099
-0.184986269417437,2650.17354970099
-0.151654669364073,2650.18354970099
-0.111262544802997,2650.19354970099
-0.0667759932319989,2650.20354970099
-0.0216360406338655,2650.21354970099
0.0215800814458802,2650.22354970099
0.0599813078970236,2650.23354970099
0.0915108746523688,2650.24354970099
0.115485936132448,2650.25354970099
0.132314188687315,2650.26354970099
0.14188894951875,2650.27354970099
0.146020267592672,2650.28354970099
0.145574130039314,2650.29354970099
0.141329191298602,2650.30354970099
0.134989426356449,2650.31354970099
0.126985667997098,2650.32354970099
0.118496640520146,2650.33354970099
0.110193166331781,2650.34354970099
0.102999390914663,2650.35354970099
0.0964477232943629,2650.36354970099
0.0902995459126318,2650.37354970099
0.0849515503604566,2650.38354970099
0.0794555660961535,2650.39354970099
0.0742936771964798,2650.40354970099
0.0687369520318535,2650.41354970099
0.0622065416953713,2650.42354970099
0.0549734312896898,2650.43354970099
0.0476534175304451,2650.44354970099
0.0401152701164261,2650.45354970099
0.0328764140263385,2650.46354970099
0.0262153058848123,2650.47354970099
0.0207914282687104,2650.48354970099
0.0165392939835696,2650.49354970099
0.0138609163216538,2650.50354970099
0.0127180711944041,2650.51354970099
0.0136275151029222,2650.52354970099
0.0158309121477066,2650.53354970099
0.0191438811750472,2650.54354970099
0.0234652378760562,2650.55354970099
0.0279885164780101,2650.56354970099
0.0322358196485048,2650.57354970099
0.0352473069924865,2650.58354970099
0.0376434065359026,2650.59354970099
0.0392239932071348,2650.60354970099
0.0399123432510598,2650.61354970099
0.0399198504528424,2650.62354970099
0.0389094401961559,2650.63354970099
0.0373269146198251,2650.64354970099
0.0352541016292605,2650.65354970099
0.0321007867321451,2650.66354970099
0.0282065735517508,2650.67354970099
0.0235818050536714,2650.68354970099
0.0188189434809362,2650.69354970099
0.0144209499613458,2650.70354970099
0.00972817253132589,2650.71354970099
0.00549155240619757,2650.72354970099
0.00124897795306215,2650.73354970099
-0.00324142622517723,2650.74354970099
-0.00774648259940805,2650.75354970099
-0.0119513004235761,2650.76354970099
-0.0163150212696088,2650.77354970099
-0.0209248176690758,2650.78354970099
-0.0257286406232673,2650.79354970099
-0.0300342925048508,2650.80354970099
-0.0337874597224612,2650.81354970099
-0.0346588879351298,2650.82354970099
-0.0300840933957939,2650.83354970099
-0.0175581497640651,2650.84354970099
0.00610741460966859,2650.85354970099
0.0410958886460383,2650.86354970099
0.0853079085874307,2650.87354970099
0.136541747738697,2650.88354970099
0.191064434655377,2650.89354970099
0.243663869707852,2650.90354970099
0.29173554132476,2650.91354970099
0.332462011258677,2650.92354970099
0.364631898477205,2650.93354970099
0.38803361221161,2650.94354970099
0.402967285429611,2650.95354970099
0.410513555413547,2650.96354970099
0.41231460677628,2650.97354970099
0.409560383099341,2650.98354970099
0.403904534582044,2650.99354970099
0.396269346011447,2651.00354970099
0.387923578931559,2651.01354970099
0.379553141088636,2651.02354970099
0.371714198003863,2651.03354970099
0.363854856785361,2651.04354970099
0.356128001594702,2651.05354970099
0.348390766505787,2651.06354970099
0.340836723691381,2651.07354970099
0.333782194940481,2651.08354970099
0.326442891095778,2651.09354970099
0.318267230823134,2651.10354970099
0.30915349057085,2651.11354970099
0.298559215104216,2651.12354970099
0.288228496840169,2651.13354970099
0.278015292998555,2651.14354970099
0.268435171999536,2651.15354970099
0.260076251509092,2651.16354970099
0.253352423906215,2651.17354970099
0.248361132165223,2651.18354970099
0.245349714095688,2651.19354970099
0.244314639398657,2651.20354970099
0.244492492488022,2651.21354970099
0.245860714139562,2651.22354970099
0.24843644840754,2651.23354970099
0.251819286112127,2651.24354970099
0.255251818449165,2651.25354970099
0.258512955358458,2651.26354970099
0.260772939877529,2651.27354970099
0.262094782376302,2651.28354970099
0.262098969711972,2651.29354970099
0.260406203210515,2651.30354970099
0.257655491316814,2651.31354970099
0.253917084719165,2651.32354970099
0.249363192028864,2651.33354970099
0.244607101886513,2651.34354970099
0.240126196648285,2651.35354970099
0.235562972591366,2651.36354970099
0.231306654065316,2651.37354970099
0.226701367354152,2651.38354970099
0.221560219906707,2651.39354970099
0.216035235108084,2651.40354970099
0.209922485785135,2651.41354970099
0.203829401631945,2651.42354970099
0.197835592843985,2651.43354970099
0.192272839475207,2651.44354970099
0.187320388738037,2651.45354970099
0.182998287578483,2651.46354970099
0.178718512579421,2651.47354970099
0.174073240953119,2651.48354970099
0.169225965404679,2651.49354970099
0.165443293642516,2651.50354970099
0.165682433338913,2651.51354970099
0.173898437261861,2651.52354970099
0.192707995641283,2651.53354970099
0.223891573276198,2651.54354970099
0.266983818860525,2651.55354970099
0.319830001117086,2651.56354970099
0.379208025171228,2651.57354970099
0.439414880566829,2651.58354970099
0.496247154218961,2651.59354970099
0.546020700584341,2651.60354970099
0.585771062088709,2651.61354970099
0.615833609798022,2651.62354970099
0.635685110953601,2651.63354970099
0.646776535935424,2651.64354970099
0.650266807873825,2651.65354970099
0.647968985927439,2651.66354970099
0.641451904535761,2651.67354970099
0.632042668245222,2651.68354970099
0.621058194800783,2651.69354970099
0.608992136469888,2651.70354970099
0.597157831739494,2651.71354970099
0.585926590894867,2651.72354970099
0.575186075086597,2651.73354970099
0.564735010487023,2651.74354970099
0.554653772117771,2651.75354970099
0.544653976903719,2651.76354970099
0.5344859138115,2651.77354970099
0.523827177125988,2651.78354970099
0.512905427526454,2651.79354970099
0.502057078669522,2651.80354970099
0.490567133807105,2651.81354970099
0.478898774759587,2651.82354970099
0.466384397932566,2651.83354970099
0.454312720363256,2651.84354970099
0.443698485156599,2651.85354970099
0.435470089318974,2651.86354970099
0.429503870254584,2651.87354970099
0.426899929469621,2651.88354970099
0.426835276156195,2651.89354970099
0.428525228594909,2651.90354970099
0.431911931662908,2651.91354970099
0.435977065678249,2651.92354970099
0.440619705701405,2651.93354970099
0.444834718018402,2651.94354970099
0.447917413935147,2651.95354970099
0.449138016230373,2651.96354970099
0.448175009804824,2651.97354970099
0.445827322557881,2651.98354970099
0.442190998021831,2651.99354970099
0.438107713402639,2652.00354970099
0.433727338958669,2652.01354970099
0.428637138433181,2652.02354970099
0.423415687839205,2652.03354970099
0.417489788846518,2652.04354970099
0.411433780209763,2652.05354970099
0.40485090867301,2652.06354970099
0.397804349419225,2652.07354970099
0.390410678459998,2652.08354970099
0.382955553451868,2652.09354970099
0.375545714301159,2652.10354970099
0.368419799819963,2652.11354970099
0.361642723901344,2652.12354970099
0.355516047798135,2652.13354970099
0.349113729505278,2652.14354970099
0.342996334725875,2652.15354970099
0.336538076807321,2652.16354970099
0.329676475759118,2652.17354970099
0.32259370798041,2652.18354970099
0.31513761133711,2652.19354970099
0.307978192809018,2652.20354970099
0.302310421663855,2652.21354970099
0.301053265809932,2652.22354970099
0.307420847401077,2652.23354970099
0.325706874861405,2652.24354970099
0.357671295185456,2652.25354970099
0.402547275519154,2652.26354970099
0.458795962737643,2652.27354970099
0.521796129526398,2652.28354970099
0.586736670554366,2652.29354970099
0.64847141800453,2652.30354970099
0.702036004256684,2652.31354970099
0.744982461041108,2652.32354970099
0.776567231123491,2652.33354970099
0.79656761088031,2652.34354970099
0.807020518540004,2652.35354970099
0.809365131282781,2652.36354970099
0.80544851312567,2652.37354970099
0.797113878374744,2652.38354970099
0.786134702042599,2652.39354970099
0.773417129319851,2652.40354970099
0.760002339910678,2652.41354970099
0.746664216860259,2652.42354970099
0.733546133203446,2652.43354970099
0.720724026343699,2652.44354970099
0.708090622789726,2652.45354970099
0.695271180958675,2652.46354970099
0.682765702823602,2652.47354970099
0.670670838664015,2652.48354970099
0.658856608148931,2652.49354970099
0.6466779473276,2652.50354970099
0.634006759860829,2652.51354970099
0.620782279684846,2652.52354970099
0.607293728454123,2652.53354970099
0.594140742339,2652.54354970099
0.581314107470803,2652.55354970099
0.570118097588023,2652.56354970099
0.560496261223802,2652.57354970099
0.553648907795001,2652.58354970099
0.548503460356197,2652.59354970099
0.5465572078042,2652.60354970099
0.546825964246025,2652.61354970099
0.548479655721559,2652.62354970099
0.551621392429047,2652.63354970099
0.554532094738717,2652.64354970099
0.557102134404797,2652.65354970099
0.559316853882906,2652.66354970099
0.559901820453477,2652.67354970099
0.559107200000095,2652.68354970099
0.557051861532618,2652.69354970099
0.554034223521512,2652.70354970099
0.549401232565556,2652.71354970099
0.543241803415818,2652.72354970099
0.537073634223186,2652.73354970099
0.529722752526888,2652.74354970099
0.521945743028243,2652.75354970099
0.513657966910275,2652.76354970099
0.505472754562318,2652.77354970099
0.49702811872321,2652.78354970099
0.489289513347594,2652.79354970099
0.480957215734986,2652.80354970099
0.472001252722628,2652.81354970099
0.46348077190007,2652.82354970099
0.455305794013314,2652.83354970099
0.447401409235928,2652.84354970099
0.439819090473825,2652.85354970099
0.432473199683993,2652.86354970099
0.424883858000852,2652.87354970099
0.417175610471151,2652.88354970099
0.409225828186261,2652.89354970099
0.400709695584858,2652.90354970099
0.391997483190629,2652.91354970099
0.38300259510425,2652.92354970099
0.374094723517504,2652.93354970099
0.365605057266837,2652.94354970099
0.358558727034477,2652.95354970099
0.354564932822901,2652.96354970099
0.357823427147687,2652.97354970099
0.371522950381786,2652.98354970099
0.399180662486373,2652.99354970099
0.441694607383495,2653.00354970099
0.496693965429279,2653.01354970099
0.560375921107919,2653.02354970099
0.627947927350659,2653.03354970099
0.692528767431462,2653.04354970099
0.750423119614007,2653.05354970099
0.798188647053445,2653.06354970099
0.833602173180405,2653.07354970099
0.857940171146437,2653.08354970099
0.871243673708892,2653.09354970099
0.875747746279374,2653.10354970099
0.87369369271839,2653.11354970099
0.867074104978247,2653.12354970099
0.857339082958242,2653.13354970099
0.845215156236751,2653.14354970099
0.831810996605786,2653.15354970099
0.817292828035319,2653.16354970099
0.802352974906878,2653.17354970099
0.787031428706045,2653.18354970099
0.771744715416029,2653.19354970099
0.757377403953147,2653.20354970099
0.743700422955782,2653.21354970099
0.73003034319656,2653.22354970099
0.716710320856152,2653.23354970099
0.702695004689178,2653.24354970099
0.688268415927423,2653.25354970099
0.67299868257285,2653.26354970099
0.657437708950215,2653.27354970099
0.641734444114485,2653.28354970099
0.62657727890008,2653.29354970099
0.612430064624244,2653.30354970099
0.600809594485312,2653.31354970099
0.591870118917118,2653.32354970099
0.585838280655482,2653.33354970099
0.582422403393823,2653.34354970099
0.581734399816915,2653.35354970099
0.582201535285765,2653.36354970099
0.583631344833966,2653.37354970099
0.584911803268227,2653.38354970099
0.586062382614252,2653.39354970099
0.58677944101399,2653.40354970099
0.586840545674328,2653.41354970099
0.58585429104004,2653.42354970099
0.583531070759603,2653.43354970099
0.579936548457384,2653.44354970099
0.574531609615347,2653.45354970099
0.568521189196481,2653.46354970099
0.562060657091458,2653.47354970099
0.554936813479635,2653.48354970099
0.546640332675377,2653.49354970099
0.538224265090212,2653.50354970099
0.529837066647953,2653.51354970099
0.521876633977526,2653.52354970099
0.514499995853846,2653.53354970099
0.506211887408382,2653.54354970099
0.498191549904523,2653.55354970099
0.489320486032029,2653.56354970099
0.480155097452176,2653.57354970099
0.470651416305134,2653.58354970099
0.461313257410468,2653.59354970099
0.451693639872297,2653.60354970099
0.441740367356091,2653.61354970099
0.431622004354815,2653.62354970099
0.422135862234627,2653.63354970099
0.413544474289225,2653.64354970099
0.405070388934838,2653.65354970099
0.397068677722192,2653.66354970099
0.389071869080343,2653.67354970099
0.380632676827481,2653.68354970099
0.371690413302956,2653.69354970099
0.363307857733203,2653.70354970099
0.354691849566206,2653.71354970099
0.346833281998657,2653.72354970099
0.343038150741468,2653.73354970099
0.345402929816819,2653.74354970099
0.357631305278301,2653.75354970099
0.382414421560463,2653.76354970099
0.420829096301686,2653.77354970099
0.47286157677288,2653.78354970099
0.534864211094455,2653.79354970099
0.602325082095187,2653.80354970099
0.6699352567695,2653.81354970099
0.732192201518492,2653.82354970099
0.785410094393583,2653.83354970099
0.827074076076108,2653.84354970099
0.856635782394978,2653.85354970099
0.874515799785708,2653.86354970099
0.882866746374172,2653.87354970099
0.883660162286162,2653.88354970099
0.87769175360051,2653.89354970099
0.867328973326896,2653.90354970099
0.853724813599648,2653.91354970099
0.838546918628764,2653.92354970099
0.822427710029632,2653.93354970099
0.806615015853746,2653.94354970099
0.791797047120661,2653.95354970099
0.776700253918139,2653.96354970099
0.761421792107741,2653.97354970099
0.746772894080938,2653.98354970099
0.732050001899169,2653.99354970099
0.717013092460946,2654.00354970099
0.703485931086918,2654.01354970099
0.689602254627616,2654.02354970099
0.67523668346431,2654.03354970099
0.66019842132897,2654.04354970099
0.644143424073411,2654.05354970099
0.628355938811777,2654.06354970099
0.612125741758528,2654.07354970099
0.597763276583018,2654.08354970099
0.585865145638549,2654.09354970099
0.576886669089434,2654.10354970099
0.5706751081947,2654.11354970099
0.56780928807689,2654.12354970099
0.567357004980878,2654.13354970099
0.568336201601196,2654.14354970099
0.570844288675905,2654.15354970099
0.574278831654011,2654.16354970099
0.576966796033784,2654.17354970099
0.57830599386029,2654.18354970099
0.578841569347642,2654.19354970099
0.57732472930795,2654.20354970099
0.574219903599734,2654.21354970099
0.569681635757655,2654.22354970099
0.564514821380879,2654.23354970099
0.558134920998436,2654.24354970099
0.550815238797022,2654.25354970099
0.542794814551447,2654.26354970099
0.533969231426964,2654.27354970099
0.524418392206851,2654.28354970099
0.514945462160768,2654.29354970099
0.505526546597017,2654.30354970099
0.495835088131536,2654.31354970099
0.485937045382503,2654.32354970099
0.476052982337807,2654.33354970099
0.465825542943628,2654.34354970099
0.455810584096967,2654.35354970099
0.446637970211597,2654.36354970099
0.437215860743281,2654.37354970099
0.42762144355962,2654.38354970099
0.418044214575518,2654.39354970099
0.408901455524432,2654.40354970099
0.399949259691655,2654.41354970099
0.391470362243993,2654.42354970099
0.383211629718118,2654.43354970099
0.375146667333848,2654.44354970099
0.36700773232718,2654.45354970099
0.358692544964397,2654.46354970099
0.349518169665352,2654.47354970099
0.339858674068312,2654.48354970099
0.330093330585184,2654.49354970099
0.320712966726123,2654.50354970099
0.31169072659681,2654.51354970099
0.303585002456997,2654.52354970099
0.298085780555581,2654.53354970099
0.29861022666416,2654.54354970099
0.308660842709473,2654.55354970099
0.330888436810363,2654.56354970099
0.368511998371623,2654.57354970099
0.419776150435949,2654.58354970099
0.481910217629011,2654.59354970099
0.550305817497651,2654.60354970099
0.618984142228356,2654.61354970099
0.683234735638967,2654.62354970099
0.738437016675705,2654.63354970099
0.782289608716771,2654.64354970099
0.81339692303793,2654.65354970099
0.832176051230311,2654.66354970099
0.839533002819681,2654.67354970099
0.838437648169942,2654.68354970099
0.831147366715469,2654.69354970099
0.818793780234892,2654.70354970099
0.804676530018575,2654.71354970099
0.788986365546071,2654.72354970099
0.772549553499986,2654.73354970099
0.755863245937514,2654.74354970099
0.739598893345603,2654.75354970099
0.723658171351573,2654.76354970099
0.7079136321864,2654.77354970099
0.692891303729532,2654.78354970099
0.678625962684035,2654.79354970099
0.664193162690421,2654.80354970099
0.64998587563676,2654.81354970099
0.63518180289934,2654.82354970099
0.61966175280351,2654.83354970099
0.603307558970514,2654.84354970099
0.58707820115612,2654.85354970099
0.571648146267252,2654.86354970099
0.556598103416515,2654.87354970099
0.543146267696003,2654.88354970099
0.531795668390667,2654.89354970099
0.522414714660779,2654.90354970099
0.51604115217761,2654.91354970099
0.513067685307137,2654.92354970099
0.512326852693026,2654.93354970099
0.512689006908548,2654.94354970099
0.513733543409695,2654.95354970099
0.514979106889188,2654.96354970099
0.516027506902663,2654.97354970099
0.516728609008069,2654.98354970099
0.517132046961321,2654.99354970099
0.5159341802306,2655.00354970099
0.513525214022558,2655.01354970099
0.509509257136641,2655.02354970099
0.503370060164579,2655.03354970099
0.49613305506932,2655.04354970099
0.488028574602671,2655.05354970099
0.479515801565519,2655.06354970099
0.471156378822703,2655.07354970099
0.461723915308696,2655.08354970099
0.451740308519259,2655.09354970099
0.441331576906013,2655.10354970099
0.430211363702558,2655.11354970099
0.418792103013165,2655.12354970099
0.407818217228388,2655.13354970099
0.398180093203939,2655.14354970099
0.388421633350895,2655.15354970099
0.37862077818297,2655.16354970099
0.369349177140875,2655.17354970099
0.359914002755568,2655.18354970099
0.350523658910143,2655.19354970099
0.341723274620509,2655.20354970099
0.33285609373979,2655.21354970099
0.324162969569643,2655.22354970099
0.314910598220576,2655.23354970099
0.305682284792891,2655.24354970099
0.296427934549319,2655.25354970099
0.28713153425826,2655.26354970099
0.278649553804683,2655.27354970099
0.269761825819922,2655.28354970099
0.260619245587866,2655.29354970099
0.25088433517114,2655.30354970099
0.240750568389416,2655.31354970099
0.230774254172045,2655.32354970099
0.223348056726792,2655.33354970099
0.221673350122356,2655.34354970099
0.229303182627152,2655.35354970099
0.249084253644883,2655.36354970099
0.282441384927965,2655.37354970099
0.330046874053989,2655.38354970099
0.389113062724931,2655.39354970099
0.455980109526039,2655.40354970099
0.524950179873051,2655.41354970099
0.590122757012267,2655.42354970099
0.646290021775288,2655.43354970099
0.691076536884043,2655.44354970099
0.722661805005051,2655.45354970099
0.742289092735983,2655.46354970099
0.750894794326247,2655.47354970099
0.751177381502469,2655.48354970099
0.744913580736041,2655.49354970099
0.733548719547319,2655.50354970099
0.718487654450053,2655.51354970099
0.701966245188978,2655.52354970099
0.684640280541013,2655.53354970099
0.667906253112162,2655.54354970099
0.652493209442184,2655.55354970099
0.638527669806533,2655.56354970099
0.624686780110597,2655.57354970099
0.610513061420217,2655.58354970099
0.596268477297605,2655.59354970099
0.581543004546697,2655.60354970099
0.565933123463652,2655.61354970099
0.550173021321866,2655.62354970099
0.534155209833676,2655.63354970099
0.517664173923495,2655.64354970099
0.501119309087889,2655.65354970099
0.485789032784747,2655.66354970099
0.471049447476874,2655.67354970099
0.457361052776385,2655.68354970099
0.445971499286656,2655.69354970099
0.437094257468721,2655.70354970099
0.431068141099654,2655.71354970099
0.427750774526186,2655.72354970099
0.427747746399401,2655.73354970099
0.429502899262196,2655.74354970099
0.432618139633593,2655.75354970099
0.436624030794312,2655.76354970099
0.440496810111639,2655.77354970099
0.443181515978924,2655.78354970099
0.445131613169591,2655.79354970099
0.445651578561227,2655.80354970099
0.443607040912753,2655.81354970099
0.439769001907008,2655.82354970099
0.434263687133662,2655.83354970099
0.427787052949466,2655.84354970099
0.420045328268094,2655.85354970099
0.411174803975524,2655.86354970099
0.402610255209374,2655.87354970099
0.393557981255364,2655.88354970099
0.38405322021666,2655.89354970099
0.374548590718536,2655.90354970099
0.364814451145088,2655.91354970099
0.35451142338536,2655.92354970099
0.344490134024772,2655.93354970099
0.334967876696977,2655.94354970099
0.324607154143768,2655.95354970099
0.314326476723083,2655.96354970099
0.304018856479192,2655.97354970099
0.293674635260287,2655.98354970099
0.283378329647355,2655.99354970099
0.273068106837136,2656.00354970099
0.263496012995694,2656.01354970099
0.254057957086061,2656.02354970099
0.244959550602232,2656.03354970099
0.235981590435826,2656.04354970099
0.226555241236761,2656.05354970099
0.217210709104062,2656.06354970099
0.208374975756158,2656.07354970099
0.199656395313495,2656.08354970099
0.191014097142215,2656.09354970099
0.182254577736765,2656.10354970099
0.174141517887795,2656.11354970099
0.166350144757496,2656.12354970099
0.159763528294541,2656.13354970099
0.157634271873905,2656.14354970099
0.163939000102028,2656.15354970099
0.181835525816108,2656.16354970099
0.213956053048995,2656.17354970099
0.261837904574367,2656.18354970099
0.32142181384415,2656.19354970099
0.389372052960986,2656.20354970099
0.459460436007668,2656.21354970099
0.526760391926671,2656.22354970099
0.58573277334227,2656.23354970099
0.633551121307038,2656.24354970099
0.6693397641941,2656.25354970099
0.692309017302777,2656.26354970099
0.704071638789381,2656.27354970099
0.705881887112185,2656.28354970099
0.700019168561775,2656.29354970099
0.688816788522819,2656.30354970099
0.673341936441079,2656.31354970099
0.656762184170462,2656.32354970099
0.639503413951898,2656.33354970099
0.622303234086373,2656.34354970099
0.604827018201213,2656.35354970099
0.588149640033135,2656.36354970099
0.571774895967137,2656.37354970099
0.554901305562718,2656.38354970099
0.538766197352883,2656.39354970099
0.522810155814706,2656.40354970099
0.506471520158525,2656.41354970099
0.489577497269174,2656.42354970099
0.472713899595355,2656.43354970099
0.455645044607133,2656.44354970099
0.439245503787474,2656.45354970099
0.423814639035342,2656.46354970099
0.409509523346182,2656.47354970099
0.397206132495416,2656.48354970099
0.386958242744415,2656.49354970099
0.380374728765184,2656.50354970099
0.375099612692834,2656.51354970099
0.374131664145144,2656.52354970099
0.376175439903231,2656.53354970099
0.380143289946678,2656.54354970099
0.385452985673129,2656.55354970099
0.391029413373588,2656.56354970099
0.396391275126365,2656.57354970099
0.399068252565224,2656.58354970099
0.401709627856617,2656.59354970099
0.402666413968048,2656.60354970099
0.401896986038106,2656.61354970099
0.398528552014518,2656.62354970099
0.393373234561855,2656.63354970099
0.386941810549661,2656.64354970099
0.378665022673192,2656.65354970099
0.371164225390294,2656.66354970099
0.363470716266694,2656.67354970099
0.353933911959173,2656.68354970099
0.343542856595041,2656.69354970099
0.332436275437176,2656.70354970099
0.321459690249434,2656.71354970099
0.309920256912593,2656.72354970099
0.299770074838538,2656.73354970099
0.290678318265394,2656.74354970099
0.28101276417349,2656.75354970099
0.270692695762191,2656.76354970099
0.26066038732368,2656.77354970099
0.250879672628283,2656.78354970099
0.240113442512647,2656.79354970099
0.23096149301721,2656.80354970099
0.222606428260034,2656.81354970099
0.214134812636483,2656.82354970099
0.205530388830717,2656.83354970099
0.19655302073344,2656.84354970099
0.187470996802457,2656.85354970099
0.177433431075054,2656.86354970099
0.168445046990104,2656.87354970099
0.159520596235054,2656.88354970099
0.150553149205495,2656.89354970099
0.141587468086052,2656.90354970099
0.132358848049877,2656.91354970099
0.122544640134079,2656.92354970099
0.111524622995952,2656.93354970099
0.101663384349299,2656.94354970099
0.0932893127977002,2656.95354970099
0.0887296217038963,2656.96354970099
0.0911225818280128,2656.97354970099
0.105218478272109,2656.98354970099
0.134196423225797,2656.99354970099
0.177654389088153,2657.00354970099
0.237411569949761,2657.01354970099
0.307420683532021,2657.02354970099
0.381786535222146,2657.03354970099
0.453957588053337,2657.04354970099
0.518773214194954,2657.05354970099
0.572455122195316,2657.06354970099
0.612305431279435,2657.07354970099
0.639568512210913,2657.08354970099
0.654593818480191,2657.09354970099
0.658835891599158,2657.10354970099
0.655168991880992,2657.11354970099
0.646101084904003,2657.12354970099
0.633394617911951,2657.13354970099
0.617809532215074,2657.14354970099
0.60213470948352,2657.15354970099
0.586827016486116,2657.16354970099
0.570753509831516,2657.17354970099
0.554348162535092,2657.18354970099
0.537586383699189,2657.19354970099
0.520742304068824,2657.20354970099
0.502802278372488,2657.21354970099
0.486710128800593,2657.22354970099
0.470674573387958,2657.23354970099
0.45489812350144,2657.24354970099
0.438490222155148,2657.25354970099
0.422643081444537,2657.26354970099
0.407342139798771,2657.27354970099
0.391779921711172,2657.28354970099
0.378405268456629,2657.29354970099
0.366516888293456,2657.30354970099
0.356773809571459,2657.31354970099
0.348730531683139,2657.32354970099
0.343277706337032,2657.33354970099
0.341184155490321,2657.34354970099
0.34098064275431,2657.35354970099
0.344744558086114,2657.36354970099
0.350423217033206,2657.37354970099
0.357152270937989,2657.38354970099
0.36271009499546,2657.39354970099
0.367480326281385,2657.40354970099
0.370602829576198,2657.41354970099
0.370569603182378,2657.42354970099
0.369770433037654,2657.43354970099
0.366776242888941,2657.44354970099
0.361841562229786,2657.45354970099
0.35529840636685,2657.46354970099
0.347365352241884,2657.47354970099
0.338613917588154,2657.48354970099
0.329408442126729,2657.49354970099
0.320715603023851,2657.50354970099
0.309729906499315,2657.51354970099
0.30065602402704,2657.52354970099
0.291601256246354,2657.53354970099
0.282293260330388,2657.54354970099
0.272511787797305,2657.55354970099
0.262589743674303,2657.56354970099
0.253117943327323,2657.57354970099
0.242265345327436,2657.58354970099
0.233064450194023,2657.59354970099
0.224008212715162,2657.60354970099
0.215271339820766,2657.61354970099
0.206018706625287,2657.62354970099
0.196328098242521,2657.63354970099
0.186689528571542,2657.64354970099
0.17642316465799,2657.65354970099
0.167142887886139,2657.66354970099
0.158595842840038,2657.67354970099
0.150029231133709,2657.68354970099
0.141495189222611,2657.69354970099
0.133631599238724,2657.70354970099
0.125701443168429,2657.71354970099
0.1167624417731,2657.72354970099
0.108238989159157,2657.73354970099
0.0998423745042139,2657.74354970099
0.0904010323464131,2657.75354970099
0.0808468517566318,2657.76354970099
0.071419052608378,2657.77354970099
0.0619529328519855,2657.78354970099
0.0519393065303735,2657.79354970099
0.0442743337043051,2657.80354970099
0.0395790156699442,2657.81354970099
0.0405716449623545,2657.82354970099
0.0516476580908255,2657.83354970099
0.0766843833783849,2657.84354970099
0.117852767015292,2657.85354970099
0.173060333464223,2657.86354970099
0.241581229136169,2657.87354970099
0.316268152041892,2657.88354970099
0.39087426289618,2657.89354970099
0.459509886567862,2657.90354970099
0.517852267547582,2657.91354970099
0.564262214177267,2657.92354970099
0.595738861642471,2657.93354970099
0.61604778005651,2657.94354970099
0.625436213388327,2657.95354970099
0.625512751396039,2657.96354970099
0.617860522636885,2657.97354970099
0.605958348672383,2657.98354970099
0.590797467016317,2657.99354970099
0.572968000620475,2658.00354970099
0.55630048200765,2658.01354970099
0.539555904672751,2658.02354970099
0.523092754010379,2658.03354970099
0.506586126438062,2658.04354970099
0.490646406427767,2658.05354970099
0.475325331885204,2658.06354970099
0.459341774507375,2658.07354970099
0.445434036294565,2658.08354970099
0.43177722188891,2658.09354970099
0.417476576864364,2658.10354970099
0.402214232024165,2658.11354970099
0.386616985076718,2658.12354970099
0.370758044191085,2658.13354970099
0.355269736797293,2658.14354970099
0.343452513092909,2658.15354970099
0.334149577877416,2658.16354970099
0.328104046090171,2658.17354970099
0.324567572602437,2658.18354970099
0.323463456640929,2658.19354970099
0.325359224344117,2658.20354970099
0.329026770116654,2658.21354970099
0.334956744983079,2658.22354970099
0.341752997104601,2658.23354970099
0.348513860851677,2658.24354970099
0.353966346793482,2658.25354970099
0.357128089470184,2658.26354970099
0.35856177739673,2658.27354970099
0.35677511066148,2658.28354970099
0.35483421275628,2658.29354970099
0.351446159688086,2658.30354970099
0.346988235081217,2658.31354970099
0.340753931718229,2658.32354970099
0.332769228505121,2658.33354970099
0.32397811880753,2658.34354970099
0.313324605014341,2658.35354970099
0.304028146945279,2658.36354970099
0.29530800641284,2658.37354970099
0.286119763588868,2658.38354970099
0.276272504721903,2658.39354970099
0.266328496480021,2658.40354970099
0.256564703973876,2658.41354970099
0.246242376224588,2658.42354970099
0.237823046444276,2658.43354970099
0.22945464384237,2658.44354970099
0.221832083078717,2658.45354970099
0.213402288534742,2658.46354970099
0.204946524783747,2658.47354970099
0.196149317877514,2658.48354970099
0.187505679608453,2658.49354970099
0.179440962278883,2658.50354970099
0.170344537819069,2658.51354970099
0.162528537276688,2658.52354970099
0.154403865655794,2658.53354970099
0.146338548195626,2658.54354970099
0.137198828387035,2658.55354970099
0.127916293610667,2658.56354970099
0.11897728436817,2658.57354970099
0.108722776723053,2658.58354970099
0.0998243834636009,2658.59354970099
0.0911776836015111,2658.60354970099
0.0825940792849674,2658.61354970099
0.0727554036925479,2658.62354970099
0.0633016471004971,2658.63354970099
0.0544831857684245,2658.64354970099
0.0446905652057516,2658.65354970099
0.036755209063468,2658.66354970099
0.029204388340459,2658.67354970099
0.0211640921606488,2658.68354970099
0.0126724437646785,2658.69354970099
0.00483642783527254,2658.70354970099
-0.000348492866781195,2658.71354970099
8.22100076567281e-06,2658.72354970099
0.0121218231156377,2658.73354970099
0.0387187053226289,2658.74354970099
0.0808156902000761,2658.75354970099
0.138054395443647,2658.76354970099
0.207824893828826,2658.77354970099
0.285477585818337,2658.78354970099
0.363472404359921,2658.79354970099
0.438028938850255,2658.80354970099
0.502925921210085,2658.81354970099
0.554512887278853,2658.82354970099
0.591267515106652,2658.83354970099
0.613881586639211,2658.84354970099
0.625155348831979,2658.85354970099
0.62577904863377,2658.86354970099
0.621556565798327,2658.87354970099
0.613192945094167,2658.88354970099
0.601719808248628,2658.89354970099
0.587822215216384,2658.90354970099
0.572135068082008,2658.91354970099
0.556237909516466,2658.92354970099
0.538650786327336,2658.93354970099
0.522885810992103,2658.94354970099
0.508217005601905,2658.95354970099
0.494216027925102,2658.96354970099
0.479528210963093,2658.97354970099
0.464546234186935,2658.98354970099
0.449410226562446,2658.99354970099
0.432872567371866,2659.00354970099
0.417783733654572,2659.01354970099
0.403321395433915,2659.02354970099
0.389197079606457,2659.03354970099
0.375950194478323,2659.04354970099
0.364014535276971,2659.05354970099
0.354789775395878,2659.06354970099
0.346638446925486,2659.07354970099
0.342902204405789,2659.08354970099
0.342523345313067,2659.09354970099
0.345310601130857,2659.10354970099
0.34991575453905,2659.11354970099
0.356911306010113,2659.12354970099
0.364437400223428,2659.13354970099
0.370309005541346,2659.14354970099
0.376667717276437,2659.15354970099
0.381554284264648,2659.16354970099
0.383842613489386,2659.17354970099
0.383727370216467,2659.18354970099
0.381749695122185,2659.19354970099
0.37808759552546,2659.20354970099
0.371783673261852,2659.21354970099
0.365807347229972,2659.22354970099
0.359029873683519,2659.23354970099
0.351517671144246,2659.24354970099
0.342586410526904,2659.25354970099
0.333271703709136,2659.26354970099
0.323895374113173,2659.27354970099
0.313101544475673,2659.28354970099
0.303355251523138,2659.29354970099
0.294116581316983,2659.30354970099
0.28446518627739,2659.31354970099
0.274720974505341,2659.32354970099
0.264960012136478,2659.33354970099
0.255439348803263,2659.34354970099
0.245434145872651,2659.35354970099
0.237090075260605,2659.36354970099
0.228846943815316,2659.37354970099
0.221170270452006,2659.38354970099
0.212908607277909,2659.39354970099
0.204093797051694,2659.40354970099
0.195809150548978,2659.41354970099
0.186893669230054,2659.42354970099
0.178861163234884,2659.43354970099
0.170941034698159,2659.44354970099
0.16276065346742,2659.45354970099
0.154039823107513,2659.46354970099
0.144370592208918,2659.47354970099
0.134799049593388,2659.48354970099
0.125531865557052,2659.49354970099
0.116490272050114,2659.50354970099
0.107104742625123,2659.51354970099
0.0995336779543299,2659.52354970099
0.0918557023769362,2659.53354970099
0.0839338268448904,2659.54354970099
0.0753171485315837,2659.55354970099
0.0658770112275416,2659.56354970099
0.0563525542998762,2659.57354970099
0.0459752582882265,2659.58354970099
0.0375154141292384,2659.59354970099
0.0296202952509701,2659.60354970099
0.0221270168856553,2659.61354970099
0.0138863717409438,2659.62354970099
0.0059881904817815,2659.63354970099
-0.000640415260972587,2659.64354970099
-0.00557824044103395,2659.65354970099
-0.00231735516866877,2659.66354970099
0.0119587326855127,2659.67354970099
0.0405781528259572,2659.68354970099
0.0853088044720392,2659.69354970099
0.145989618276907,2659.70354970099
0.220269065700956,2659.71354970099
0.301051131142312,2659.72354970099
0.384815212313845,2659.73354970099
0.46359172551642,2659.74354970099
0.531768610414636,2659.75354970099
0.58585296365879,2659.76354970099
0.624996062425714,2659.77354970099
0.650448972953099,2659.78354970099
0.662020525652389,2659.79354970099
0.664710033637291,2659.80354970099
0.65935281154461,2659.81354970099
0.647973755003124,2659.82354970099
0.632782100191079,2659.83354970099
0.615735921685973,2659.84354970099
0.597921300020191,2659.85354970099
0.579654729532838,2659.86354970099
0.563139992415645,2659.87354970099
0.547577775266096,2659.88354970099
0.532355611917758,2659.89354970099
0.517024464296255,2659.90354970099
0.501452188269907,2659.91354970099
0.485776057621586,2659.92354970099
0.4692018961897,2659.93354970099
0.453341891031204,2659.94354970099
0.437580846268011,2659.95354970099
0.422159672266386,2659.96354970099
0.406377592547775,2659.97354970099
0.391997569332434,2659.98354970099
0.379043522843896,2659.99354970099
0.366839446700669,2660.00354970099
0.359227269235973,2660.01354970099
0.354511423381849,2660.02354970099
0.353252420377959,2660.03354970099
0.354634305404689,2660.04354970099
0.358424180186084,2660.05354970099
0.365280051096453,2660.06354970099
0.372610333609592,2660.07354970099
0.381825535218108,2660.08354970099
0.390865283805822,2660.09354970099
0.398329627743984,2660.10354970099
0.402301057797499,2660.11354970099
0.403623213654495,2660.12354970099
0.40318549170149,2660.13354970099
0.399309884153889,2660.14354970099
0.394883888485102,2660.15354970099
0.388941809521801,2660.16354970099
0.381894910586408,2660.17354970099
0.373502574626832,2660.18354970099
0.364094426387466,2660.19354970099
0.354985967313689,2660.20354970099
0.344705675088791,2660.21354970099
0.335594523862508,2660.22354970099
0.326487621319338,2660.23354970099
0.316465208924143,2660.24354970099
0.305353406993892,2660.25354970099
0.294430128797426,2660.26354970099
0.284134734270352,2660.27354970099
0.273033277162383,2660.28354970099
0.263712655711006,2660.29354970099
0.254377580148458,2660.30354970099
0.24511618174178,2660.31354970099
0.234769397895512,2660.32354970099
0.224424225648881,2660.33354970099
0.215477772332864,2660.34354970099
0.205187690365186,2660.35354970099
0.196705599890388,2660.36354970099
0.188488779779923,2660.37354970099
0.180114966312256,2660.38354970099
0.171274002097274,2660.39354970099
0.16234959412075,2660.40354970099
0.153237042513952,2660.41354970099
0.143385628362341,2660.42354970099
0.134352102293722,2660.43354970099
0.125372236125656,2660.44354970099
0.116241920841263,2660.45354970099
0.107102422066196,2660.46354970099
0.0975110534311248,2660.47354970099
0.0873191765779695,2660.48354970099
0.077938769926084,2660.49354970099
0.0694013583906752,2660.50354970099
0.059884826040638,2660.51354970099
0.0523382141719103,2660.52354970099
0.0447066652612848,2660.53354970099
0.0370557915828559,2660.54354970099
0.0287483281079464,2660.55354970099
0.0204883615621874,2660.56354970099
0.0120141229258297,2660.57354970099
0.00242810621008426,2660.58354970099
-0.00622074387638539,2660.59354970099
-0.0145223300945568,2660.60354970099
-0.0212209400490856,2660.61354970099
-0.0243578801997515,2660.62354970099
-0.0189808768458608,2660.63354970099
-0.000302713419365127,2660.64354970099
0.0338580647776173,2660.65354970099
0.0866377172286497,2660.66354970099
0.155650986908358,2660.67354970099
0.236289904313078,2660.68354970099
0.322174836844398,2660.69354970099
0.40663687791291,2660.70354970099
0.483795805445542,2660.71354970099
0.547508446020546,2660.72354970099
0.597874378205228,2660.73354970099
0.633269139303074,2660.74354970099
0.653755567196142,2660.75354970099
0.661338107397499,2660.76354970099
0.65957002383239,2660.77354970099
0.650327673324731,2660.78354970099
0.635139451880028,2660.79354970099
0.618260830674889,2660.80354970099
0.59939199594261,2660.81354970099
0.579351691642972,2660.82354970099
0.558537862902753,2660.83354970099
0.537746378458644,2660.84354970099
0.51797749198391,2660.85354970099
0.497820847433413,2660.86354970099
0.47936267312461,2660.87354970099
0.461277598965232,2660.88354970099
0.443298327160396,2660.89354970099
0.424362211033192,2660.90354970099
0.405760609516804,2660.91354970099
0.387914177090939,2660.92354970099
0.368625525321641,2660.93354970099
0.351970057312244,2660.94354970099
0.337525321871161,2660.95354970099
0.325920964529372,2660.96354970099
0.317190442022985,2660.97354970099
0.312509760538839,2660.98354970099
0.31306877864443,2660.99354970099
0.316775621654297,2661.00354970099
0.325656545169037,2661.01354970099
0.338024381190251,2661.02354970099
0.350897351387451,2661.03354970099
0.3638048278033,2661.04354970099
0.375431402074659,2661.05354970099
0.385260093479638,2661.06354970099
0.391623858198666,2661.07354970099
0.395768044891605,2661.08354970099
0.396762260484203,2661.09354970099
0.395145151354434,2661.10354970099
0.390145561809561,2661.11354970099
0.382903919949676,2661.12354970099
0.374470940831527,2661.13354970099
0.363499182834663,2661.14354970099
0.353452390228294,2661.15354970099
0.343308224581814,2661.16354970099
0.333249194565823,2661.17354970099
0.322373979468206,2661.18354970099
0.311441783594938,2661.19354970099
0.30077510588408,2661.20354970099
0.28948601327898,2661.21354970099
0.27967805426431,2661.22354970099
0.270273332614727,2661.23354970099
0.261162707777871,2661.24354970099
0.251374536073131,2661.25354970099
0.241877602981791,2661.26354970099
0.232785064970484,2661.27354970099
0.223114853235942,2661.28354970099
0.21486519998905,2661.29354970099
0.206303229085489,2661.30354970099
0.197352942453701,2661.31354970099
0.188074505875818,2661.32354970099
0.17914700489934,2661.33354970099
0.170832726750568,2661.34354970099
0.162130090137514,2661.35354970099
0.154830517385911,2661.36354970099
0.147835357078425,2661.37354970099
0.14006374767993,2661.38354970099
0.131370059695276,2661.39354970099
0.122165792536402,2661.40354970099
0.112183469001296,2661.41354970099
0.101484168983374,2661.42354970099
0.0919089391813152,2661.43354970099
0.08290037037249,2661.44354970099
0.0742660722403425,2661.45354970099
0.0653752878214179,2661.46354970099
0.0564044902392075,2661.47354970099
0.047253964069727,2661.48354970099
0.0381494433338413,2661.49354970099
0.0292870624134309,2661.50354970099
0.0189388676681832,2661.51354970099
0.0109073198190355,2661.52354970099
0.00413413192771288,2661.53354970099
0.00127646557674104,2661.54354970099
0.00508820054900609,2661.55354970099
0.0218778713987805,2661.56354970099
0.0553850572243618,2661.57354970099
0.105630528433768,2661.58354970099
0.174094500198929,2661.59354970099
0.255366794002938,2661.60354970099
0.342994143772706,2661.61354970099
0.42985155841451,2661.62354970099
0.509607173543687,2661.63354970099
0.577066111289513,2661.64354970099
0.628242625068426,2661.65354970099
0.665582990762611,2661.66354970099
0.688201895372264,2661.67354970099
0.697225889989982,2661.68354970099
0.695501558948927,2661.69354970099
0.685901545249868,2661.70354970099
0.671112240293745,2661.71354970099
0.65164946971445,2661.72354970099
0.631971641953981,2661.73354970099
0.611464714697227,2661.74354970099
0.590758166138006,2661.75354970099
0.569644522800185,2661.76354970099
0.549243992967702,2661.77354970099
0.529305713216283,2661.78354970099
0.508730970288911,2661.79354970099
0.490525793750013,2661.80354970099
0.47224310262197,2661.81354970099
0.453393419792272,2661.82354970099
0.433623489309859,2661.83354970099
0.414183667553088,2661.84354970099
0.395429416034999,2661.85354970099
0.377011422409664,2661.86354970099
0.361462489254272,2661.87354970099
0.348460414165901,2661.88354970099
0.33870182424378,2661.89354970099
0.332087491831167,2661.90354970099
0.33035595863367,2661.91354970099
0.333306117689535,2661.92354970099
0.339551300932249,2661.93354970099
0.350070245749399,2661.94354970099
0.362458958213636,2661.95354970099
0.374843871705041,2661.96354970099
0.385276522316508,2661.97354970099
0.394628313498634,2661.98354970099
0.40130708772761,2661.99354970099
0.404386239661782,2662.00354970099
0.405275501640741,2662.01354970099
0.403496754991607,2662.02354970099
0.398624261511903,2662.03354970099
0.391055750779005,2662.04354970099
0.382067089636955,2662.05354970099
0.372287637819392,2662.06354970099
0.360428028278854,2662.07354970099
0.349504709962389,2662.08354970099
0.338167082304562,2662.09354970099
0.325787784085615,2662.10354970099
0.313287750969406,2662.11354970099
0.300614397030892,2662.12354970099
0.289016841566099,2662.13354970099
0.276959821146548,2662.14354970099
0.266342041233786,2662.15354970099
0.256213078599874,2662.16354970099
0.245665790733677,2662.17354970099
0.234470099057136,2662.18354970099
0.223140772898626,2662.19354970099
0.21199739073181,2662.20354970099
0.200379572135842,2662.21354970099
0.19048318023087,2662.22354970099
0.181291932305466,2662.23354970099
0.17205693000249,2662.24354970099
0.162994699968119,2662.25354970099
0.153268771764325,2662.26354970099
0.144439786490772,2662.27354970099
0.134021402386668,2662.28354970099
0.124800965945928,2662.29354970099
0.115983055326728,2662.30354970099
0.106586030107808,2662.31354970099
0.0969841378472831,2662.32354970099
0.0874536406281848,2662.33354970099
0.0785146486250231,2662.34354970099
0.0687602967214496,2662.35354970099
0.0605465633263265,2662.36354970099
0.0522895696689157,2662.37354970099
0.0434272231806807,2662.38354970099
0.0341602068852429,2662.39354970099
0.0240432031051249,2662.40354970099
0.013830863712408,2662.41354970099
0.00286884200039858,2662.42354970099
-0.00657199912341884,2662.43354970099
-0.0154771074276543,2662.44354970099
-0.0241498458586769,2662.45354970099
-0.0304856748677787,2662.46354970099
-0.0319109785920743,2662.47354970099
-0.0235948517321545,2662.48354970099
-0.000225161018259206,2662.49354970099
0.0421278712125787,2662.50354970099
0.102225169350335,2662.51354970099
0.180606349043014,2662.52354970099
0.270720494998398,2662.53354970099
0.365245452187119,2662.54354970099
0.456089342038189,2662.55354970099
0.536975581766203,2662.56354970099
0.603937054305281,2662.57354970099
0.652825711050672,2662.58354970099
0.686079424463227,2662.59354970099
0.70401582094625,2662.60354970099
0.708887295898713,2662.61354970099
0.7028820444359,2662.62354970099
0.690418383142894,2662.63354970099
0.673520869313501,2662.64354970099
0.652675930608686,2662.65354970099
0.631869190964595,2662.66354970099
0.610314825399693,2662.67354970099
0.589191155045864,2662.68354970099
0.567553879554428,2662.69354970099
0.547356526154643,2662.70354970099
0.528797077450874,2662.71354970099
0.509658687355166,2662.72354970099
0.492788086792669,2662.73354970099
0.476477008933056,2662.74354970099
0.460411478290892,2662.75354970099
0.442920113322406,2662.76354970099
0.425448990931421,2662.77354970099
0.408413670565489,2662.78354970099
0.390869450584603,2662.79354970099
0.376342196668265,2662.80354970099
0.364295010512867,2662.81354970099
0.355051565857086,2662.82354970099
0.34831423722553,2662.83354970099
0.345032969408412,2662.84354970099
0.345690396416403,2662.85354970099
0.34824054255255,2662.86354970099
0.35480190210142,2662.87354970099
0.36292449756817,2662.88354970099
0.371637541212976,2662.89354970099
0.379626658555774,2662.90354970099
0.386517355323716,2662.91354970099
0.391517455116808,2662.92354970099
0.393149139841805,2662.93354970099
0.392860992760803,2662.94354970099
0.38979381173799,2662.95354970099
0.383560735019672,2662.96354970099
0.374331201195331,2662.97354970099
0.363948431796472,2662.98354970099
0.352868277817202,2662.99354970099
0.340103807249812,2663.00354970099
0.328357095264314,2663.01354970099
0.316498120308495,2663.02354970099
0.304516015650495,2663.03354970099
0.29247233664385,2663.04354970099
0.280125938800252,2663.05354970099
0.267816856159576,2663.06354970099
0.254212682363116,2663.07354970099
0.24243134810189,2663.08354970099
0.231273064130336,2663.09354970099
0.220278310298451,2663.10354970099
0.209368157471433,2663.11354970099
0.198501540264386,2663.12354970099
0.188195388468863,2663.13354970099
0.176917177970162,2663.14354970099
0.167258274753655,2663.15354970099
0.157903290388262,2663.16354970099
0.148660431373953,2663.17354970099
0.137964056086189,2663.18354970099
0.12741653585476,2663.19354970099
0.117051357566295,2663.20354970099
0.106163845379343,2663.21354970099
0.0968181435682343,2663.22354970099
0.087418960564017,2663.23354970099
0.0777168162431676,2663.24354970099
0.0668865958972939,2663.25354970099
0.0561731599555386,2663.26354970099
0.0455233236408541,2663.27354970099
0.0340426385482923,2663.28354970099
0.0239136397211061,2663.29354970099
0.0136146223380368,2663.30354970099
0.00359887144609016,2663.31354970099
-0.00682305968493646,2663.32354970099
-0.0167318054215086,2663.33354970099
-0.0265626543037278,2663.34354970099
-0.0374226260224163,2663.35354970099
-0.0471071664830794,2663.36354970099
-0.0567857302874228,2663.37354970099
-0.0664456484876495,2663.38354970099
-0.075356879002228,2663.39354970099
-0.0843577046744805,2663.40354970099
-0.0928349771019156,2663.41354970099
-0.102582396911143,2663.42354970099
-0.110613196771282,2663.43354970099
-0.118045253308734,2663.44354970099
-0.121441819004135,2663.45354970099
-0.116470653623096,2663.46354970099
-0.0974101095034824,2663.47354970099
-0.0600415012572002,2663.48354970099
-0.00274705537885731,2663.49354970099
0.0738851722368188,2663.50354970099
0.162733391836157,2663.51354970099
0.260740544793443,2663.52354970099
0.357966329235532,2663.53354970099
0.447570154124065,2663.54354970099
0.523699293789594,2663.55354970099
0.583087969734464,2663.56354970099
0.625171888149,2663.57354970099
0.64933643228626,2663.58354970099
0.660121943990942,2663.59354970099
0.659666963055583,2663.60354970099
0.650242827417442,2663.61354970099
0.634463834319122,2663.62354970099
0.614934390148665,2663.63354970099
0.593668717997954,2663.64354970099
0.570422894536414,2663.65354970099
0.548604506668554,2663.66354970099
0.527787625428096,2663.67354970099
0.507698830228347,2663.68354970099
0.487643770545292,2663.69354970099
0.468430827912916,2663.70354970099
0.450685073802577,2663.71354970099
0.432904115805551,2663.72354970099
0.416911143884378,2663.73354970099
0.40198758252203,2663.74354970099
0.386786329171776,2663.75354970099
0.370421520195454,2663.76354970099
0.353801087424184,2663.77354970099
0.33803158373581,2663.78354970099
0.32193919909218,2663.79354970099
0.30918109857467,2663.80354970099
0.299124909925006,2663.81354970099
0.292674591249651,2663.82354970099
0.288389191758744,2663.83354970099
0.287650433786384,2663.84354970099
0.290489485796555,2663.85354970099
0.295005694628075,2663.86354970099
0.302445797995464,2663.87354970099
0.310946759314984,2663.88354970099
0.318738683911221,2663.89354970099
0.324654151537278,2663.90354970099
0.329099757389295,2663.91354970099
0.331725874690735,2663.92354970099
0.330297708494429,2663.93354970099
0.327975546230141,2663.94354970099
0.323958230146838,2663.95354970099
0.318052021013145,2663.96354970099
0.310568616310656,2663.97354970099
0.301681678537535,2663.98354970099
0.292254579561002,2663.99354970099
0.280995009876286,2664.00354970099
0.269941985482576,2664.01354970099
0.258978392241691,2664.02354970099
0.246655929245145,2664.03354970099
0.233265111103241,2664.04354970099
0.219845804633167,2664.05354970099
0.207797695274703,2664.06354970099
0.194817100016046,2664.07354970099
0.183573754700606,2664.08354970099
0.172718091335991,2664.09354970099
0.162477433091407,2664.10354970099
0.152025586045767,2664.11354970099
0.141469922980255,2664.12354970099
0.131423628522297,2664.13354970099
0.120122893800717,2664.14354970099
0.110514449583968,2664.15354970099
0.100893997312394,2664.16354970099
0.0903500457171529,2664.17354970099
0.0791171809009923,2664.18354970099
0.067927409291256,2664.19354970099
0.0577710745726346,2664.20354970099
0.046235972260845,2664.21354970099
0.035642688388995,2664.22354970099
0.0256767859534069,2664.23354970099
0.0151533154480146,2664.24354970099
0.00508462102162191,2664.25354970099
-0.00480324041839306,2664.26354970099
-0.0137156466399768,2664.27354970099
-0.0239269860163524,2664.28354970099
-0.0333473429498733,2664.29354970099
-0.0432624064178497,2664.30354970099
-0.0538088409565078,2664.31354970099
-0.0645482803731255,2664.32354970099
-0.074671146591429,2664.33354970099
-0.0831488041751559,2664.34354970099
-0.0919244835516384,2664.35354970099
-0.0996581958157869,2664.36354970099
-0.10704613676471,2664.37354970099
-0.11522350544904,2664.38354970099
-0.124301353518713,2664.39354970099
-0.133346275450059,2664.40354970099
-0.141739849828687,2664.41354970099
-0.15059499468124,2664.42354970099
-0.157589753187642,2664.43354970099
-0.164183080573581,2664.44354970099
-0.171382157344771,2664.45354970099
-0.178095493138966,2664.46354970099
-0.183299310461811,2664.47354970099
-0.182058041501773,2664.48354970099
-0.169864642243416,2664.49354970099
-0.14109893552123,2664.50354970099
-0.0934979893552021,2664.51354970099
-0.0242676889694453,2664.52354970099
0.0626413513282905,2664.53354970099
0.161349752480565,2664.54354970099
0.263460942491813,2664.55354970099
0.361744460846714,2664.56354970099
0.448835001682173,2664.57354970099
0.518844418286395,2664.58354970099
0.572963191850509,2664.59354970099
0.609432522221605,2664.60354970099
0.630558511597044,2664.61354970099
0.637495231146449,2664.62354970099
0.633790070036874,2664.63354970099
0.622557515402408,2664.64354970099
0.604563656277636,2664.65354970099
0.58468922172831,2664.66354970099
0.562700736610475,2664.67354970099
0.539850203431189,2664.68354970099
0.516266817655746,2664.69354970099
0.493273865730879,2664.70354970099
0.471193148077681,2664.71354970099
0.448945851262568,2664.72354970099
0.429356390746171,2664.73354970099
0.411219277571942,2664.74354970099
0.393410575212799,2664.75354970099
0.375231460592087,2664.76354970099
0.357066226735457,2664.77354970099
0.339107070599706,2664.78354970099
0.32021038148569,2664.79354970099
0.302712111321436,2664.80354970099
0.286812020760846,2664.81354970099
0.272952019118446,2664.82354970099
0.261330734669195,2664.83354970099
0.253566817142941,2664.84354970099
0.249718680294723,2664.85354970099
0.24821069288594,2664.86354970099
0.251482807000826,2664.87354970099
0.257744230932662,2664.88354970099
0.265783677119829,2664.89354970099
0.27504967698002,2664.90354970099
0.284645716730052,2664.91354970099
0.29400433274867,2664.92354970099
0.300187885364994,2664.93354970099
0.305981906504622,2664.94354970099
0.309272764782894,2664.95354970099
0.309843995601482,2664.96354970099
0.307348554872803,2664.97354970099
0.301751361680218,2664.98354970099
0.294619440915472,2664.99354970099
0.285177407378873,2665.00354970099
0.276250792902204,2665.01354970099
0.26676632684517,2665.02354970099
0.256449679987818,2665.03354970099
0.245225265315455,2665.04354970099
0.232860187192925,2665.05354970099
0.220723609549009,2665.06354970099
0.206859493272741,2665.07354970099
0.194294077416956,2665.08354970099
0.181744565932075,2665.09354970099
0.169751214677032,2665.10354970099
0.15778228121897,2665.11354970099
0.146228080119491,2665.12354970099
0.135459942409997,2665.13354970099
0.123726650761074,2665.14354970099
0.113331771959506,2665.15354970099
0.103816916124691,2665.16354970099
0.094352177597902,2665.17354970099
0.085104427147536,2665.18354970099
0.0764770688651414,2665.19354970099
0.0677536059015858,2665.20354970099
0.0573351675416824,2665.21354970099
0.0475084461053991,2665.22354970099
0.0375839044195621,2665.23354970099
0.0273033322629944,2665.24354970099
0.0162851744472558,2665.25354970099
0.00501165569503972,2665.26354970099
-0.00549150656539358,2665.27354970099
-0.0167309389520889,2665.28354970099
-0.0261832111600599,2665.29354970099
-0.0349621489034935,2665.30354970099
-0.0444871047957272,2665.31354970099
-0.0545853936585563,2665.32354970099
-0.0648925085056269,2665.33354970099
-0.0742305076857235,2665.34354970099
-0.0833150354764059,2665.35354970099
-0.0903051121515217,2665.36354970099
-0.0973189370975485,2665.37354970099
-0.104922292456664,2665.38354970099
-0.113345884109106,2665.39354970099
-0.121690419426197,2665.40354970099
-0.129556297658453,2665.41354970099
-0.138253932779033,2665.42354970099
-0.14568955953487,2665.43354970099
-0.153611999420491,2665.44354970099
-0.162331890503764,2665.45354970099
-0.171746282680487,2665.46354970099
-0.179688254893557,2665.47354970099
-0.183163204724817,2665.48354970099
-0.177967292465361,2665.49354970099
-0.158473734114282,2665.50354970099
-0.121963556425476,2665.51354970099
-0.0634907702133078,2665.52354970099
0.0145436721806504,2665.53354970099
0.107374641947923,2665.54354970099
0.209200006993586,2665.55354970099
0.312540106811731,2665.56354970099
0.410259856170299,2665.57354970099
0.493487816775339,2665.58354970099
0.561149940406108,2665.59354970099
0.610138009888949,2665.60354970099
0.639562012621889,2665.61354970099
0.6529708490634,2665.62354970099
0.654441902250138,2665.63354970099
0.647076930065403,2665.64354970099
0.63240040270516,2665.65354970099
0.614273226906818,2665.66354970099
0.592750383763078,2665.67354970099
0.569030393528665,2665.68354970099
0.544431906902812,2665.69354970099
0.519527508673598,2665.70354970099
0.495584282318635,2665.71354970099
0.471183435183815,2665.72354970099
0.449271915645053,2665.73354970099
0.429258782439697,2665.74354970099
0.409825136629402,2665.75354970099
0.390733796801625,2665.76354970099
0.372312752022324,2665.77354970099
0.354537008796232,2665.78354970099
0.335331134713754,2665.79354970099
0.317387119445164,2665.80354970099
0.299889327178932,2665.81354970099
0.284108700227181,2665.82354970099
0.270887406462634,2665.83354970099
0.261081558186668,2665.84354970099
0.254945866968024,2665.85354970099
0.251688080873841,2665.86354970099
0.25277346927173,2665.87354970099
0.257461761891209,2665.88354970099
0.265011027568242,2665.89354970099
0.274222384762277,2665.90354970099
0.285262136138639,2665.91354970099
0.296294673014189,2665.92354970099
0.304601810942192,2665.93354970099
0.312278076326618,2665.94354970099
0.317415277291988,2665.95354970099
0.319364306131796,2665.96354970099
0.317560529903396,2665.97354970099
0.313170697989901,2665.98354970099
0.307321154478356,2665.99354970099
0.298313434151931,2666.00354970099
0.288853480984953,2666.01354970099
0.278994191133668,2666.02354970099
0.268046329741863,2666.03354970099
0.256635714946763,2666.04354970099
0.244772892952668,2666.05354970099
0.233232658865037,2666.06354970099
0.220439742321819,2666.07354970099
0.208737382026887,2666.08354970099
0.197675834408363,2666.09354970099
0.18628898835268,2666.10354970099
0.174868454297517,2666.11354970099
0.16391799477339,2666.12354970099
0.152769989046699,2666.13354970099
0.141018154222129,2666.14354970099
0.130752499528539,2666.15354970099
0.120835628604279,2666.16354970099
0.111010232306522,2666.17354970099
0.100752878123141,2666.18354970099
0.0905968833131173,2666.19354970099
0.0815102245574494,2666.20354970099
0.071800953288671,2666.21354970099
0.0629715392575267,2666.22354970099
0.0535282484106913,2666.23354970099
0.0433542055082751,2666.24354970099
0.032652249495553,2666.25354970099
0.0225053975491564,2666.26354970099
0.0127779155267238,2666.27354970099
0.00204760372817141,2666.28354970099
-0.00692985833186191,2666.29354970099
-0.0164266505721644,2666.30354970099
-0.025676822497799,2666.31354970099
-0.0352003766381951,2666.32354970099
-0.0445916026519718,2666.33354970099
-0.0536315930319477,2666.34354970099
-0.0638217703786648,2666.35354970099
-0.0729578870268546,2666.36354970099
-0.0821608414222461,2666.37354970099
-0.0909217068769499,2666.38354970099
-0.100479688110515,2666.39354970099
-0.109287289112931,2666.40354970099
-0.117412104996886,2666.41354970099
-0.126322868529341,2666.42354970099
-0.133053100948463,2666.43354970099
-0.139490582399431,2666.44354970099
-0.145906719082654,2666.45354970099
-0.152907514614897,2666.46354970099
-0.160048422267294,2666.47354970099
-0.166446290227653,2666.48354970099
-0.167933363517864,2666.49354970099
-0.16035878738509,2666.50354970099
-0.139616482981912,2666.51354970099
-0.0983231691965439,2666.52354970099
-0.0354849746809902,2666.53354970099
0.0468289293108653,2666.54354970099
0.143699088545445,2666.55354970099
0.248677473624491,2666.56354970099
0.353599480481088,2666.57354970099
0.449537150068691,2666.58354970099
0.532354561102091,2666.59354970099
0.598143622694503,2666.60354970099
0.645041462536968,2666.61354970099
0.672974688263045,2666.62354970099
0.685497135241372,2666.63354970099
0.685851335408195,2666.64354970099
0.675866746610422,2666.65354970099
0.660302551581432,2666.66354970099
0.639943175591215,2666.67354970099
0.616250140359688,2666.68354970099
0.590797388824418,2666.69354970099
0.566247141248477,2666.70354970099
0.542372134921553,2666.71354970099
0.518290350331556,2666.72354970099
0.497243445421071,2666.73354970099
0.477115368216665,2666.74354970099
0.457612510060152,2666.75354970099
0.437903035848029,2666.76354970099
0.419525597779883,2666.77354970099
0.40139460872087,2666.78354970099
0.382368384968055,2666.79354970099
0.364244711100022,2666.80354970099
0.345835187822846,2666.81354970099
0.327769897535729,2666.82354970099
0.310823127281302,2666.83354970099
0.297317230481116,2666.84354970099
0.28844411389858,2666.85354970099
0.28229345560064,2666.86354970099
0.28214676735139,2666.87354970099
0.285740535145493,2666.88354970099
0.292979720168647,2666.89354970099
0.302544351648335,2666.90354970099
0.31389565656973,2666.91354970099
0.326692205060254,2666.92354970099
0.337338116395421,2666.93354970099
0.348122218963001,2666.94354970099
0.356306110019296,2666.95354970099
0.36091301072406,2666.96354970099
0.362422592591472,2666.97354970099
0.360936567078177,2666.98354970099
0.357629122180837,2666.99354970099
0.351210641748148,2667.00354970099
0.344152574981899,2667.01354970099
0.335069776678438,2667.02354970099
0.324056686522056,2667.03354970099
0.310913397099409,2667.04354970099
0.297279660200982,2667.05354970099
0.284804063616764,2667.06354970099
0.271072456479268,2667.07354970099
0.258875213941117,2667.08354970099
0.247484168278959,2667.09354970099
0.235545989684153,2667.10354970099
0.223833270422436,2667.11354970099
0.211721688426971,2667.12354970099
0.200560579527655,2667.13354970099
0.189402548005722,2667.14354970099
0.179559490001883,2667.15354970099
0.169146099942546,2667.16354970099
0.159162757542423,2667.17354970099
0.149640699510668,2667.18354970099
0.140719223420648,2667.19354970099
0.132095336446598,2667.20354970099
0.122299543662084,2667.21354970099
0.113595586169505,2667.22354970099
0.10455971668996,2667.23354970099
0.0951833244579841,2667.24354970099
0.0854512974629235,2667.25354970099
0.0757755994732164,2667.26354970099
0.0660400486882725,2667.27354970099
0.0550456996667039,2667.28354970099
0.0447837211668928,2667.29354970099
0.0334847965358247,2667.30354970099
0.0210157180962211,2667.31354970099
0.00934116508771781,2667.32354970099
-0.000838507802987576,2667.33354970099
-0.00905727997675483,2667.34354970099
-0.0172185435327963,2667.35354970099
-0.0243313475055569,2667.36354970099
-0.0318109801046687,2667.37354970099
-0.039652315097116,2667.38354970099
-0.0486425831119513,2667.39354970099
-0.0569740909548654,2667.40354970099
-0.0647405128816605,2667.41354970099
-0.073365964164698,2667.42354970099
-0.0804940700836316,2667.43354970099
-0.0887282844164696,2667.44354970099
-0.0992398694147691,2667.45354970099
-0.109964112812799,2667.46354970099
-0.118358578637543,2667.47354970099
-0.121762536556734,2667.48354970099
-0.116577359236148,2667.49354970099
-0.0981126131349572,2667.50354970099
-0.0641070340714617,2667.51354970099
-0.00790045762019998,2667.52354970099
0.069419608210117,2667.53354970099
0.163748523451787,2667.54354970099
0.268983237120303,2667.55354970099
0.376487293958969,2667.56354970099
0.478449807306018,2667.57354970099
0.566544357515493,2667.58354970099
0.638327087222032,2667.59354970099
0.690891369338499,2667.60354970099
0.726019145155258,2667.61354970099
0.744409133863302,2667.62354970099
0.749278215229554,2667.63354970099
0.743319518445968,2667.64354970099
0.727579098903556,2667.65354970099
0.707750602547011,2667.66354970099
0.684461137884606,2667.67354970099
0.659753555202114,2667.68354970099
0.634031871958087,2667.69354970099
0.608163062861042,2667.70354970099
0.583396325887341,2667.71354970099
0.557721786675904,2667.72354970099
0.535222206897885,2667.73354970099
0.514368436927142,2667.74354970099
0.494690060025886,2667.75354970099
0.476038839677657,2667.76354970099
0.457837440971812,2667.77354970099
0.44064209563091,2667.78354970099
0.421833432610661,2667.79354970099
0.403559410294164,2667.80354970099
0.386315039731065,2667.81354970099
0.370251248645218,2667.82354970099
0.356065819657474,2667.83354970099
0.345229736818818,2667.84354970099
0.338101012316939,2667.85354970099
0.334289749281244,2667.86354970099
0.335691991129258,2667.87354970099
0.341199681386413,2667.88354970099
0.349826560323191,2667.89354970099
0.36051239128084,2667.90354970099
0.372231162550172,2667.91354970099
0.383539998604793,2667.92354970099
0.392735258183948,2667.93354970099
0.401010719937318,2667.94354970099
0.405835808089399,2667.95354970099
0.407919893764577,2667.96354970099
0.406053171607622,2667.97354970099
0.402078620118774,2667.98354970099
0.395993513583388,2667.99354970099
0.386816412221189,2668.00354970099
0.37709725081058,2668.01354970099
0.365995186272569,2668.02354970099
0.352741130627852,2668.03354970099
0.338590593181882,2668.04354970099
0.324532597424792,2668.05354970099
0.311573221386307,2668.06354970099
0.298282266176982,2668.07354970099
0.287103179132146,2668.08354970099
0.27617257677346,2668.09354970099
0.264969136794346,2668.10354970099
0.253028970508581,2668.11354970099
0.24088271216519,2668.12354970099
0.22941262543324,2668.13354970099
0.217060262245937,2668.14354970099
0.207100490479101,2668.15354970099
0.19800363900363,2668.16354970099
0.18886740925395,2668.17354970099
0.180247540960024,2668.18354970099
0.171284534121398,2668.19354970099
0.161854914507391,2668.20354970099
0.151053305214948,2668.21354970099
0.140764834835857,2668.22354970099
0.130770245306564,2668.23354970099
0.120140950853354,2668.24354970099
0.108981224932394,2668.25354970099
0.0978836611292154,2668.26354970099
0.0870977756826702,2668.27354970099
0.0762836487744865,2668.28354970099
0.0665590181536197,2668.29354970099
0.0570830529280368,2668.30354970099
0.0475876064355106,2668.31354970099
0.0375237631678388,2668.32354970099
0.0276330702558058,2668.33354970099
0.0181547094423519,2668.34354970099
0.00706307319963663,2668.35354970099
-0.00306498116228634,2668.36354970099
-0.0130000872472593,2668.37354970099
-0.0226163035781046,2668.38354970099
-0.0316662754616957,2668.39354970099
-0.0393163918734923,2668.40354970099
-0.0465441992761356,2668.41354970099
-0.0548356100809173,2668.42354970099
-0.0615992915972152,2668.43354970099
-0.0685542095155488,2668.44354970099
-0.0759274520306041,2668.45354970099
-0.0836788957835072,2668.46354970099
-0.0910631429626232,2668.47354970099
-0.0972667336661986,2668.48354970099
-0.0984567002252489,2668.49354970099
-0.0900272596382488,2668.50354970099
-0.0681753172403622,2668.51354970099
-0.0259384887347966,2668.52354970099
0.0384355203829509,2668.53354970099
0.122872610180206,2668.54354970099
0.222969286137694,2668.55354970099
0.331019022296391,2668.56354970099
0.43932325455569,2668.57354970099
0.537351826146869,2668.58354970099
0.621695915825401,2668.59354970099
0.68834320328948,2668.60354970099
0.734219617236865,2668.61354970099
0.760659727995997,2668.62354970099
0.770832994625777,2668.63354970099
0.768352891326554,2668.64354970099
0.754824850302424,2668.65354970099
0.735218563299379,2668.66354970099
0.711693361396924,2668.67354970099
0.686648082742745,2668.68354970099
0.661301220404394,2668.69354970099
0.636335716119574,2668.70354970099
0.611902222353855,2668.71354970099
0.587045810558126,2668.72354970099
0.564891140504514,2668.73354970099
0.544964255355629,2668.74354970099
0.526859659775604,2668.75354970099
0.509974650336807,2668.76354970099
0.493753868325345,2668.77354970099
0.477332287066452,2668.78354970099
0.45858708304356,2668.79354970099
0.439411041381614,2668.80354970099
0.420607875165462,2668.81354970099
0.402668862272845,2668.82354970099
0.386385192981941,2668.83354970099
0.3731833898301,2668.84354970099
0.364409602191088,2668.85354970099
0.35758706584146,2668.86354970099
0.356205232358049,2668.87354970099
0.35909303119395,2668.88354970099
0.365969095761689,2668.89354970099
0.375564724651092,2668.90354970099
0.387425128265241,2668.91354970099
0.399798320806532,2668.92354970099
0.409685241184029,2668.93354970099
0.418440896999577,2668.94354970099
0.423577427431348,2668.95354970099
0.42694560886039,2668.96354970099
0.427794405119101,2668.97354970099
0.426160910906096,2668.98354970099
0.422100564837414,2668.99354970099
0.413600897227066,2669.00354970099
0.404090891547551,2669.01354970099
0.393895248612079,2669.02354970099
0.382221747330167,2669.03354970099
0.369352302054454,2669.04354970099
0.355359017077954,2669.05354970099
0.341577684594552,2669.06354970099
0.326681415994857,2669.07354970099
0.312830247660686,2669.08354970099
0.300048468848489,2669.09354970099
0.28787293858429,2669.10354970099
0.276140791207293,2669.11354970099
0.265012155615067,2669.12354970099
0.254158287290752,2669.13354970099
0.242102616085303,2669.14354970099
0.231207354480117,2669.15354970099
0.221010160818289,2669.16354970099
0.211083847020317,2669.17354970099
0.201039783511631,2669.18354970099
0.191081798913338,2669.19354970099
0.181450419278477,2669.20354970099
0.170607422467585,2669.21354970099
0.160698579259554,2669.22354970099
0.150650217880999,2669.23354970099
0.140418484284858,2669.24354970099
0.130061162883711,2669.25354970099
0.120427274440484,2669.26354970099
0.110778881851869,2669.27354970099
0.100065725814298,2669.28354970099
0.0901864246203085,2669.29354970099
0.0807648397091338,2669.30354970099
0.0705879447200246,2669.31354970099
0.0601880684208871,2669.32354970099
0.0495961161879157,2669.33354970099
0.0390365131379787,2669.34354970099
0.028127228104056,2669.35354970099
0.0188796528895626,2669.36354970099
0.0103656676647987,2669.37354970099
0.0018577952564911,2669.38354970099
-0.00697480566924506,2669.39354970099
-0.0156156744085111,2669.40354970099
-0.0234953026846457,2669.41354970099
-0.032172381969506,2669.42354970099
-0.0400309356797439,2669.43354970099
-0.0475325861192876,2669.44354970099
-0.0544731383789425,2669.45354970099
-0.0611995947512714,2669.46354970099
-0.0684241867857733,2669.47354970099
-0.0751500203781344,2669.48354970099
-0.0785298862874645,2669.49354970099
-0.0751646719791888,2669.50354970099
-0.0606330739389668,2669.51354970099
-0.0269179746505027,2669.52354970099
0.0283580855929981,2669.53354970099
0.105929800228961,2669.54354970099
0.201363248891972,2669.55354970099
0.308204869812181,2669.56354970099
0.418222059099348,2669.57354970099
0.521729955785345,2669.58354970099
0.612951917034407,2669.59354970099
0.686591801006965,2669.60354970099
0.740161557147284,2669.61354970099
0.772982804393887,2669.62354970099
0.787865244896258,2669.63354970099
0.788826070962724,2669.64354970099
0.778015108289967,2669.65354970099
0.760732266568058,2669.66354970099
0.738721615177268,2669.67354970099
0.713636302788153,2669.68354970099
0.686953009554882,2669.69354970099
0.659956740039414,2669.70354970099
0.633110247318358,2669.71354970099
0.607273851292117,2669.72354970099
0.584649720907606,2669.73354970099
0.564118474383476,2669.74354970099
0.546073871160678,2669.75354970099
0.528215611905285,2669.76354970099
0.511631218488516,2669.77354970099
0.495014772918984,2669.78354970099
0.476800255362596,2669.79354970099
0.459223901626343,2669.80354970099
0.442102613091674,2669.81354970099
0.424858071711175,2669.82354970099
0.408637700038858,2669.83354970099
0.394554752727864,2669.84354970099
0.383704833197174,2669.85354970099
0.375580763923414,2669.86354970099
0.372693209781303,2669.87354970099
0.375155787947713,2669.88354970099
0.381669085987955,2669.89354970099
0.390844239872288,2669.90354970099
0.401814123740426,2669.91354970099
0.413777852592124,2669.92354970099
0.424331544220217,2669.93354970099
0.434400693699294,2669.94354970099
0.441994977234379,2669.95354970099
0.446922000774926,2669.96354970099
0.448225197466033,2669.97354970099
0.446542218278627,2669.98354970099
0.442518009200185,2669.99354970099
0.434999885800317,2670.00354970099
0.425486533065242,2670.01354970099
0.414684797007144,2670.02354970099
0.403026243104078,2670.03354970099
0.391123373059677,2670.04354970099
0.378626546667728,2670.05354970099
0.366344971082697,2670.06354970099
0.352075761103147,2670.07354970099
0.33850029566069,2670.08354970099
0.325017383172553,2670.09354970099
0.310889615487606,2670.10354970099
0.296088837425599,2670.11354970099
0.282198144255282,2670.12354970099
0.26965604928803,2670.13354970099
0.256863787007873,2670.14354970099
0.246029254697608,2670.15354970099
0.235987264032643,2670.16354970099
0.226774604212311,2670.17354970099
0.217758626972449,2670.18354970099
0.208409423468423,2670.19354970099
0.198897517286798,2670.20354970099
0.187736476990789,2670.21354970099
0.177379086948247,2670.22354970099
0.167435662737906,2670.23354970099
0.156921197721199,2670.24354970099
0.145895030006231,2670.25354970099
0.134747317044377,2670.26354970099
0.123452324824981,2670.27354970099
0.111239459108912,2670.28354970099
0.100231343090377,2670.29354970099
0.0887794739414499,2670.30354970099
0.0780412434728002,2670.31354970099
0.0675995741789004,2670.32354970099
0.0577813941158103,2670.33354970099
0.048142602867538,2670.34354970099
0.0373590149723853,2670.35354970099
0.0279229545632772,2670.36354970099
0.0193612445227163,2670.37354970099
0.0119290542488888,2670.38354970099
0.00453019902612856,2670.39354970099
-0.0026047325792231,2670.40354970099
-0.00906757127218712,2670.41354970099
-0.0165940351151084,2670.42354970099
-0.0231059357834597,2670.43354970099
-0.0295700064534956,2670.44354970099
-0.0362723813875723,2670.45354970099
-0.0436923980948228,2670.46354970099
-0.0516738889740972,2670.47354970099
-0.05965421099262,2670.48354970099
-0.0668296748078314,2670.49354970099
-0.072134329380597,2670.50354970099
-0.0738290554672966,2670.51354970099
-0.0638727248586622,2670.52354970099
-0.0376791179927855,2670.53354970099
0.00911182411414328,2670.54354970099
0.0777839792275555,2670.55354970099
0.166781659298932,2670.56354970099
0.270919427672566,2670.57354970099
0.38036292004078,2670.58354970099
0.488856271395741,2670.59354970099
0.586743870486372,2670.60354970099
0.667539903918686,2670.61354970099
0.728017848622091,2670.62354970099
0.768167819647993,2670.63354970099
0.790088242399933,2670.64354970099
0.795682858060544,2670.65354970099
0.790858729883797,2670.66354970099
0.777287962996482,2670.67354970099
0.758005044572746,2670.68354970099
0.734374979912181,2670.69354970099
0.709108266311753,2670.70354970099
0.683272777446214,2670.71354970099
0.656702235942239,2670.72354970099
0.632643731899702,2670.73354970099
0.609961218079598,2670.74354970099
0.589477588671719,2670.75354970099
0.569943746118607,2670.76354970099
0.551577892710543,2670.77354970099
0.533755172670002,2670.78354970099
0.515032042454065,2670.79354970099
0.498119430821532,2670.80354970099
0.481025953012899,2670.81354970099
0.463551773467244,2670.82354970099
0.445738255978771,2670.83354970099
0.428438771952047,2670.84354970099
0.413298826639986,2670.85354970099
0.400638404932564,2670.86354970099
0.392963910341019,2670.87354970099
0.389087852163877,2670.88354970099
0.390077246470097,2670.89354970099
0.394174087820557,2670.90354970099
0.400719257062031,2670.91354970099
0.409425236715019,2670.92354970099
0.418688875850053,2670.93354970099
0.430382142062619,2670.94354970099
0.442310458704667,2670.95354970099
0.452485921381652,2670.96354970099
0.458680761224489,2670.97354970099
0.461824890574997,2670.98354970099
0.461811842408304,2670.99354970099
0.457727909556189,2671.00354970099
0.452226242343203,2671.01354970099
0.4443061127065,2671.02354970099
0.434300290626572,2671.03354970099
0.421714339902686,2671.04354970099
0.407976686778074,2671.05354970099
0.394114021302453,2671.06354970099
0.379232970889977,2671.07354970099
0.36579776091358,2671.08354970099
0.352446916933396,2671.09354970099
0.339173133597833,2671.10354970099
0.325551686825747,2671.11354970099
0.312148066979089,2671.12354970099
0.299322478677076,2671.13354970099
0.286090367621106,2671.14354970099
0.275132516930176,2671.15354970099
0.264922203726548,2671.16354970099
0.254488590356206,2671.17354970099
0.243737909615541,2671.18354970099
0.232584046253937,2671.19354970099
0.222239566624948,2671.20354970099
0.210417721499342,2671.21354970099
0.200250924330574,2671.22354970099
0.190399405156522,2671.23354970099
0.18059879289809,2671.24354970099
0.170030224036734,2671.25354970099
0.159699723690999,2671.26354970099
0.148649447590249,2671.27354970099
0.136789322835219,2671.28354970099
0.125304075247152,2671.29354970099
0.114277374162003,2671.30354970099
0.103684604300648,2671.31354970099
0.0924641911649079,2671.32354970099
0.0817536685678272,2671.33354970099
0.0716820950445695,2671.34354970099
0.0603170729786886,2671.35354970099
0.0505884747659025,2671.36354970099
0.0409221330968625,2671.37354970099
0.0310697691560587,2671.38354970099
0.0215074774341742,2671.39354970099
0.0127931981782372,2671.40354970099
0.00470710148365412,2671.41354970099
-0.00345036337725035,2671.42354970099
-0.0104182750318984,2671.43354970099
-0.0171423180992755,2671.44354970099
-0.0240652075634735,2671.45354970099
-0.0314520681462,2671.46354970099
-0.0385472337234151,2671.47354970099
-0.0458471266633983,2671.48354970099
-0.0523561073265617,2671.49354970099
-0.0586546457287631,2671.50354970099
-0.0661722679824939,2671.51354970099
-0.072318632204559,2671.52354970099
-0.0781216098422157,2671.53354970099
-0.0827531495534742,2671.54354970099
-0.0836284751657302,2671.55354970099
-0.0745157346514075,2671.56354970099
-0.050735554075498,2671.57354970099
-0.00870058181790364,2671.58354970099
0.0562242054634711,2671.59354970099
0.142226084845462,2671.60354970099
0.244633207129714,2671.61354970099
0.355525106003586,2671.62354970099
0.466660242928207,2671.63354970099
0.569919445781512,2671.64354970099
0.656956891196851,2671.65354970099
0.726041858529426,2671.66354970099
0.77444408816298,2671.67354970099
0.80286435815054,2671.68354970099
0.812893900535597,2671.69354970099
0.809182389898195,2671.70354970099
0.795944946896242,2671.71354970099
0.774224335527509,2671.72354970099
0.750427560279838,2671.73354970099
0.724738051713079,2671.74354970099
0.698671936695229,2671.75354970099
0.672398553217137,2671.76354970099
0.646489638512515,2671.77354970099
0.622607312264156,2671.78354970099
0.599075338004763,2671.79354970099
0.578750534576461,2671.80354970099
0.56070555211227,2671.81354970099
0.544420427104755,2671.82354970099
0.528219089292557,2671.83354970099
0.511587335191943,2671.84354970099
0.493847184521222,2671.85354970099
0.473835060599182,2671.86354970099
0.455651648536472,2671.87354970099
0.439330020258064,2671.88354970099
0.424049269753806,2671.89354970099
0.411679776559447,2671.90354970099
0.402763141841709,2671.91354970099
0.398177315424723,2671.92354970099
0.397083789993243,2671.93354970099
0.401349933818753,2671.94354970099
0.409614968818313,2671.95354970099
0.420029118402342,2671.96354970099
0.43119340773269,2671.97354970099
0.442819822449082,2671.98354970099
0.453150590408944,2671.99354970099
0.461606173967204,2672.00354970099
0.469131033518693,2672.01354970099
0.474328003744011,2672.02354970099
0.476181262179687,2672.03354970099
0.474688053191524,2672.04354970099
0.470659667581145,2672.05354970099
0.463682081474175,2672.06354970099
0.453300074080517,2672.07354970099
0.442364481769626,2672.08354970099
0.430195377997782,2672.09354970099
0.417312884888653,2672.10354970099
0.403622639399514,2672.11354970099
0.389112218355396,2672.12354970099
0.374170103729496,2672.13354970099
0.358278842891859,2672.14354970099
0.344818563813673,2672.15354970099
0.332458115893858,2672.16354970099
0.320488945884601,2672.17354970099
0.307887146347835,2672.18354970099
0.295877584100685,2672.19354970099
0.284328105740759,2672.20354970099
0.27186997311358,2672.21354970099
0.261416970173135,2672.22354970099
0.251428589763079,2672.23354970099
0.241046005383807,2672.24354970099
0.229894561058004,2672.25354970099
0.218187159529156,2672.26354970099
0.206640971993397,2672.27354970099
0.194680933017583,2672.28354970099
0.184592048481968,2672.29354970099
0.175137152322888,2672.30354970099
0.165921244751755,2672.31354970099
0.155802256384633,2672.32354970099
0.145822149227132,2672.33354970099
0.135665158376497,2672.34354970099
0.124422061655274,2672.35354970099
0.114059162267199,2672.36354970099
0.103933004582874,2672.37354970099
0.0931530579542045,2672.38354970099
0.0822717902731517,2672.39354970099
0.0716274388060643,2672.40354970099
0.0613538279134214,2672.41354970099
0.050890438013313,2672.42354970099
0.0418860547059532,2672.43354970099
0.0332482115235151,2672.44354970099
0.0244187570495794,2672.45354970099
0.0150863685065013,2672.46354970099
0.00553517539476372,2672.47354970099
-0.00376437806490317,2672.48354970099
-0.012297521131086,2672.49354970099
-0.0199848145702221,2672.50354970099
-0.0282989943930821,2672.51354970099
-0.0345729796690182,2672.52354970099
-0.0399141223327759,2672.53354970099
-0.0451370502791352,2672.54354970099
-0.0501288385385926,2672.55354970099
-0.055098313089907,2672.56354970099
-0.0599053829930877,2672.57354970099
-0.065807371126778,2672.58354970099
-0.07111987707254,2672.59354970099
-0.0748587884953306,2672.60354970099
-0.0734764982985219,2672.61354970099
-0.0628539287509826,2672.62354970099
-0.035250052293231,2672.63354970099
0.0136267710709674,2672.64354970099
0.0838649137753512,2672.65354970099
0.176339842900046,2672.66354970099
0.283933475784594,2672.67354970099
0.398278273479627,2672.68354970099
0.51021848883757,2672.69354970099
0.612156595015953,2672.70354970099
0.697639357927221,2672.71354970099
0.761552847609869,2672.72354970099
0.805526690144898,2672.73354970099
0.829935070941728,2672.74354970099
0.836623387330156,2672.75354970099
0.829006822941457,2672.76354970099
0.81260001382228,2672.77354970099
0.790345764054224,2672.78354970099
0.763207672905421,2672.79354970099
0.736101228583708,2672.80354970099
0.708747260362889,2672.81354970099
0.681580769837692,2672.82354970099
0.655569339116927,2672.83354970099
0.630869920144921,2672.84354970099
0.608433953963524,2672.85354970099
0.58704357886753,2672.86354970099
0.569624971582691,2672.87354970099
0.553624810738775,2672.88354970099
0.53745761338109,2672.89354970099
0.520691413116892,2672.90354970099
0.504130168450733,2672.91354970099
0.487726943357383,2672.92354970099
0.469846968048047,2672.93354970099
0.454124417806388,2672.94354970099
0.439091537193771,2672.95354970099
0.426768752003932,2672.96354970099
0.4170250065271,2672.97354970099
0.41110208918106,2672.98354970099
0.410175531810335,2672.99354970099
0.412415233368831,2673.00354970099
0.419772679600429,2673.01354970099
0.430502591685542,2673.02354970099
0.442902540793848,2673.03354970099
0.455419587788549,2673.04354970099
0.466867258815891,2673.05354970099
0.47713553175984,2673.06354970099
0.483471617051038,2673.07354970099
0.487947434060608,2673.08354970099
0.488776075034687,2673.09354970099
0.485833687153083,2673.10354970099
0.480034831429138,2673.11354970099
0.472113535361435,2673.12354970099
0.462068482279269,2673.13354970099
0.449436787094842,2673.14354970099
0.436845390884006,2673.15354970099
0.4233163759419,2673.16354970099
0.409064265938282,2673.17354970099
0.394367893919489,2673.18354970099
0.379335475179406,2673.19354970099
0.365279209671866,2673.20354970099
0.350836085638395,2673.21354970099
0.338045968882408,2673.22354970099
0.326456335618165,2673.23354970099
0.314424503098579,2673.24354970099
0.301463554694972,2673.25354970099
0.289086169749213,2673.26354970099
0.276673314148053,2673.27354970099
0.264688548577429,2673.28354970099
0.254339845716903,2673.29354970099
0.244600748370604,2673.30354970099
0.234404604989995,2673.31354970099
0.223305961871214,2673.32354970099
0.21203693724497,2673.33354970099
0.200738167274742,2673.34354970099
0.189194345560967,2673.35354970099
0.178836005684343,2673.36354970099
0.168101870689381,2673.37354970099
0.157511456674036,2673.38354970099
0.146221549359722,2673.39354970099
0.135657980829767,2673.40354970099
0.125590770052159,2673.41354970099
0.114619224475827,2673.42354970099
0.104785305376372,2673.43354970099
0.094429754221453,2673.44354970099
0.0836525900436362,2673.45354970099
0.0726057577735576,2673.46354970099
0.0610443712978799,2673.47354970099
0.0495078004599156,2673.48354970099
0.0390806772973391,2673.49354970099
0.0297546746329007,2673.50354970099
0.0204557431418095,2673.51354970099
0.0132646967679999,2673.52354970099
0.00649198854882669,2673.53354970099
0.000457503752312192,2673.54354970099
-0.00588853642195256,2673.55354970099
-0.0119170973661101,2673.56354970099
-0.0182745774684168,2673.57354970099
-0.0265570533074933,2673.58354970099
-0.0335485364675875,2673.59354970099
-0.0409165022384876,2673.60354970099
-0.0485546285757862,2673.61354970099
-0.0560308999745653,2673.62354970099
-0.0618943407849889,2673.63354970099
-0.0621974380878429,2673.64354970099
-0.0539257642666926,2673.65354970099
-0.0287443461489682,2673.66354970099
0.0164868459334178,2673.67354970099
0.0842444914016322,2673.68354970099
0.173700946786853,2673.69354970099
0.280520936704561,2673.70354970099
0.396121090060181,2673.71354970099
0.510288339718571,2673.72354970099
0.616818072838468,2673.73354970099
0.707388059154954,2673.74354970099
0.77739978766972,2673.75354970099
0.825972183142975,2673.76354970099
0.854461354635441,2673.77354970099
0.865642263684465,2673.78354970099
0.860385216041209,2673.79354970099
0.845574578487778,2673.80354970099
0.824016168437427,2673.81354970099
0.798622163773219,2673.82354970099
0.770894247376363,2673.83354970099
0.743070823867246,2673.84354970099
0.71607518002443,2673.85354970099
0.68905830317642,2673.86354970099
0.664608179338271,2673.87354970099
0.641906665645536,2673.88354970099
0.620707873208927,2673.89354970099
0.601035395215175,2673.90354970099
0.583217978953372,2673.91354970099
0.566980272921039,2673.92354970099
0.549868396438172,2673.93354970099
0.533189463441586,2673.94354970099
0.51548638503183,2673.95354970099
0.496826013959764,2673.96354970099
0.477492297565171,2673.97354970099
0.460543063612317,2673.98354970099
0.447119557145104,2673.99354970099
0.436780453289253,2674.00354970099
0.43213711580007,2674.01354970099
0.432169326942029,2674.02354970099
0.43636495284723,2674.03354970099
0.443572757597014,2674.04354970099
0.453786010369977,2674.05354970099
0.465009554250042,2674.06354970099
0.476324260552949,2674.07354970099
0.487814221749977,2674.08354970099
0.497816518820667,2674.09354970099
0.505584961178309,2674.10354970099
0.510185499199525,2674.11354970099
0.511706207022642,2674.12354970099
0.510414860291732,2674.13354970099
0.505305066306779,2674.14354970099
0.498462228323862,2674.15354970099
0.489031691927831,2674.16354970099
0.4770752579998,2674.17354970099
0.463373689385788,2674.18354970099
0.449330393611172,2674.19354970099
0.435068001717064,2674.20354970099
0.419806157435191,2674.21354970099
0.405280606454634,2674.22354970099
0.391291745623255,2674.23354970099
0.376913154921099,2674.24354970099
0.362463118185111,2674.25354970099
0.349090542786378,2674.26354970099
0.336190907847051,2674.27354970099
0.322539741512987,2674.28354970099
0.310073367868841,2674.29354970099
0.298155199219252,2674.30354970099
0.28635991149641,2674.31354970099
0.274311814027684,2674.32354970099
0.262590840004205,2674.33354970099
0.25142460622757,2674.34354970099
0.238667937879362,2674.35354970099
0.227165197286594,2674.36354970099
0.215409633009267,2674.37354970099
0.204185678597223,2674.38354970099
0.192018765980379,2674.39354970099
0.180221212558902,2674.40354970099
0.169178563743785,2674.41354970099
0.157429855416626,2674.42354970099
0.146872281728235,2674.43354970099
0.135971011948509,2674.44354970099
0.125182085615528,2674.45354970099
0.114763879497994,2674.46354970099
0.104261251351767,2674.47354970099
0.0934935780171736,2674.48354970099
0.0837302604439506,2674.49354970099
0.0746505912776234,2674.50354970099
0.0646676592681781,2674.51354970099
0.0554882982698195,2674.52354970099
0.047057923553914,2674.53354970099
0.0389760815037941,2674.54354970099
0.0305612434290215,2674.55354970099
0.0223613164027421,2674.56354970099
0.0147285593149086,2674.57354970099
0.00564542039486037,2674.58354970099
-0.00144459727873517,2674.59354970099
-0.00832819541420302,2674.60354970099
-0.0149546553755578,2674.61354970099
-0.0201918674690018,2674.62354970099
-0.0201467671392735,2674.63354970099
-0.00847674034627903,2674.64354970099
0.0186045276837109,2674.65354970099
0.0696257914988559,2674.66354970099
0.145160323658666,2674.67354970099
0.242326424265137,2674.68354970099
0.353849220739731,2674.69354970099
0.471646698240588,2674.70354970099
0.586444731307735,2674.71354970099
0.688564793688676,2674.72354970099
0.773663512888906,2674.73354970099
0.838388788175925,2674.74354970099
0.879973739132001,2674.75354970099
0.900408281726051,2674.76354970099
0.903376233085104,2674.77354970099
0.892393108109083,2674.78354970099
0.871776767193162,2674.79354970099
0.846540711029047,2674.80354970099
0.818915249619823,2674.81354970099
0.790008811767212,2674.82354970099
0.760657331885018,2674.83354970099
0.732157802062964,2674.84354970099
0.705456535869968,2674.85354970099
0.679783428135402,2674.86354970099
0.658023485912386,2674.87354970099
0.638590003315088,2674.88354970099
0.621333700605247,2674.89354970099
0.60534725202687,2674.90354970099
0.589556455146558,2674.91354970099
0.573349508595057,2674.92354970099
0.554748076544574,2674.93354970099
0.53612864640099,2674.94354970099
0.517288153210229,2674.95354970099
0.49853941461157,2674.96354970099
0.481474579508929,2674.97354970099
0.467998992343724,2674.98354970099
0.4591902180262,2674.99354970099
0.453835702392844,2675.00354970099
0.453909460159235,2675.01354970099
0.458713443086998,2675.02354970099
0.466899407449326,2675.03354970099
0.4779585925217,2675.04354970099
0.490746927994243,2675.05354970099
0.503377377503502,2675.06354970099
0.514244863498385,2675.07354970099
0.524706304034732,2675.08354970099
0.532672931017655,2675.09354970099
0.537475276154321,2675.10354970099
0.538086828607972,2675.11354970099
0.534740693611638,2675.12354970099
0.528796650072239,2675.13354970099
0.518459637514089,2675.14354970099
0.507286661320053,2675.15354970099
0.494026894861345,2675.16354970099
0.480047752217731,2675.17354970099
0.464413386972797,2675.18354970099
0.44798890703474,2675.19354970099
0.431848153944272,2675.20354970099
0.41530339748101,2675.21354970099
0.400697439695637,2675.22354970099
0.386983152866355,2675.23354970099
0.373989952876966,2675.24354970099
0.36160031956893,2675.25354970099
0.34888573100563,2675.26354970099
0.336593720644083,2675.27354970099
0.323505598277178,2675.28354970099
0.311581955384425,2675.29354970099
0.300225594296532,2675.30354970099
0.288978767117934,2675.31354970099
0.277289716623336,2675.32354970099
0.265995677173448,2675.33354970099
0.255282773686915,2675.34354970099
0.243182455072975,2675.35354970099
0.232210982999292,2675.36354970099
0.221358242594949,2675.37354970099
0.210024728675192,2675.38354970099
0.197810880918663,2675.39354970099
0.185726406591186,2675.40354970099
0.174360061384329,2675.41354970099
0.162336738727183,2675.42354970099
0.152347792690131,2675.43354970099
0.142699727987337,2675.44354970099
0.133674745887361,2675.45354970099
0.124142598093133,2675.46354970099
0.114569947485624,2675.47354970099
0.105495423143223,2675.48354970099
0.097129337327002,2675.49354970099
0.0896993895111146,2675.50354970099
0.0812626731066437,2675.51354970099
0.0747413456136882,2675.52354970099
0.0679117028534582,2675.53354970099
0.0612901720961577,2675.54354970099
0.0533141421294753,2675.55354970099
0.0448527086996893,2675.56354970099
0.0372333204500999,2675.57354970099
0.0310099286297778,2675.58354970099
0.0335404503762776,2675.59354970099
0.0490040295711618,2675.60354970099
0.0828126750331716,2675.61354970099
0.13897183281318,2675.62354970099
0.219583338391164,2675.63354970099
0.321810989887248,2675.64354970099
0.436545936022234,2675.65354970099
0.557400697542343,2675.66354970099
0.673500942352348,2675.67354970099
0.775657763454468,2675.68354970099
0.857789984312359,2675.69354970099
0.916495915390926,2675.70354970099
0.952653659538303,2675.71354970099
0.966745641291341,2675.72354970099
0.964682683645634,2675.73354970099
0.950455566829145,2675.74354970099
0.92776421241315,2675.75354970099
0.899807053038693,2675.76354970099
0.870512450013,2675.77354970099
0.840950400920369,2675.78354970099
0.811144808053068,2675.79354970099
0.784097669853012,2675.80354970099
0.759570549222566,2675.81354970099
0.738132169749022,2675.82354970099
0.719644271777885,2675.83354970099
0.703294098764299,2675.84354970099
0.6890735577328,2675.85354970099
0.674079627770745,2675.86354970099
0.659081616280165,2675.87354970099
0.642949750601008,2675.88354970099
0.62526035763318,2675.89354970099
0.605736059937961,2675.90354970099
0.586676500282913,2675.91354970099
0.569292692535494,2675.92354970099
0.553323190940807,2675.93354970099
0.542416184554203,2675.94354970099
0.535551933318395,2675.95354970099
0.533570117611359,2675.96354970099
0.535284084718174,2675.97354970099
0.541501594841603,2675.98354970099
0.551106010126863,2675.99354970099
0.561311732449991,2676.00354970099
0.573875571454825,2676.01354970099
0.585789414026796,2676.02354970099
0.59567569027245,2676.03354970099
0.60278323419491,2676.04354970099
0.606554907635144,2676.05354970099
0.606938837781947,2676.06354970099
0.603180920051278,2676.07354970099
0.597526755967334,2676.08354970099
0.589267275673599,2676.09354970099
0.578912896228146,2676.10354970099
0.56647291828625,2676.11354970099
0.552794863844629,2676.12354970099
0.538897763412309,2676.13354970099
0.522763566829749,2676.14354970099
0.507853793187702,2676.15354970099
0.493116490823137,2676.16354970099
0.478345495905659,2676.17354970099
0.463400860804216,2676.18354970099
0.448921402730141,2676.19354970099
0.435969324077524,2676.20354970099
0.422838715679149,2676.21354970099
0.412175357750217,2676.22354970099
0.402111503191362,2676.23354970099
0.391775990270027,2676.24354970099
0.381238040665233,2676.25354970099
0.371303676666537,2676.26354970099
0.361624723766496,2676.27354970099
0.350875218756997,2676.28354970099
0.341660274040452,2676.29354970099
0.332241039279914,2676.30354970099
0.322049434134992,2676.31354970099
0.310711924560198,2676.32354970099
0.299086554551517,2676.33354970099
0.288117298579367,2676.34354970099
0.275541261332738,2676.35354970099
0.26450731097512,2676.36354970099
0.254450946919253,2676.37354970099
0.244849154332758,2676.38354970099
0.234856328852329,2676.39354970099
0.225418429696846,2676.40354970099
0.216850381565294,2676.41354970099
0.207100114306079,2676.42354970099
0.198644202812025,2676.43354970099
0.19046816619794,2676.44354970099
0.182614280045171,2676.45354970099
0.173317335525324,2676.46354970099
0.164170249065526,2676.47354970099
0.154893400445394,2676.48354970099
0.146308870325523,2676.49354970099
0.140932127159612,2676.50354970099
0.141294063494674,2676.51354970099
0.154867518845973,2676.52354970099
0.187360601763703,2676.53354970099
0.242863156352572,2676.54354970099
0.321862444211214,2676.55354970099
0.422329060662915,2676.56354970099
0.537164112890845,2676.57354970099
0.654584446829686,2676.58354970099
0.767577991544871,2676.59354970099
0.866600189214851,2676.60354970099
0.945157445454787,2676.61354970099
1.0000979289876,2676.62354970099
1.03251545422772,2676.63354970099
1.04461382510085,2676.64354970099
1.03895918116765,2676.65354970099
1.02297251482279,2676.66354970099
0.999334829808582,2676.67354970099
0.970846660383214,2676.68354970099
0.94070211610567,2676.69354970099
0.911098237163816,2676.70354970099
0.883131908482855,2676.71354970099
0.856691754926662,2676.72354970099
0.834611710019288,2676.73354970099
0.815556594648447,2676.74354970099
0.799567704429642,2676.75354970099
0.785323325565251,2676.76354970099
0.772498037864475,2676.77354970099
0.760090320220236,2676.78354970099
0.744751094160133,2676.79354970099
0.728853880382393,2676.80354970099
0.710678666464194,2676.81354970099
0.690312311209526,2676.82354970099
0.668595063557469,2676.83354970099
0.647754535799731,2676.84354970099
0.629550147821834,2676.85354970099
0.614083396459291,2676.86354970099
0.604882738226524,2676.87354970099
0.600799146118426,2676.88354970099
0.600601706243082,2676.89354970099
0.602434163065876,2676.90354970099
0.605964810798458,2676.91354970099
0.610245395308622,2676.92354970099
0.613488888638686,2676.93354970099
0.616954768924716,2676.94354970099
0.618577679618009,2676.95354970099
0.618097941553666,2676.96354970099
0.614155377302005,2676.97354970099
0.606984809176146,2676.98354970099
0.597495423980285,2676.99354970099
0.58431024683882,2677.00354970099
0.570628694962247,2677.01354970099
0.55487755180764,2677.02354970099
0.537160936283553,2677.03354970099
0.517906928343054,2677.04354970099
0.497949320997639,2677.05354970099
0.478252451242576,2677.06354970099
0.458160188722517,2677.07354970099
0.440891378390031,2677.08354970099
0.427542203541981,2677.09354970099
0.41891639019979,2677.10354970099
0.414437131145208,2677.11354970099
0.414249476726982,2677.12354970099
0.416658452714722,2677.13354970099
0.418981223289624,2677.14354970099
0.421563497908546,2677.15354970099
0.422445424399461,2677.16354970099
0.420888095108419,2677.17354970099
0.416976835420493,2677.18354970099
0.412122275932353,2677.19354970099
0.406711483564506,2677.20354970099
0.400648336113183,2677.21354970099
0.395941544129571,2677.22354970099
0.391309173280506,2677.23354970099
0.385897830938206,2677.24354970099
0.379710331850031,2677.25354970099
0.372810179378976,2677.26354970099
0.365271808691614,2677.27354970099
0.35738736528905,2677.28354970099
0.350603541870996,2677.29354970099
0.344589789004244,2677.30354970099
0.338723937292785,2677.31354970099
0.332141463554431,2677.32354970099
0.325265470876572,2677.33354970099
0.317796441218138,2677.34354970099
0.308413123664666,2677.35354970099
0.300097520529076,2677.36354970099
0.291944156131866,2677.37354970099
0.284385598208094,2677.38354970099
0.280487071668285,2677.39354970099
0.285456602258916,2677.40354970099
0.306397176977207,2677.41354970099
0.347483296769612,2677.42354970099
0.412985047399714,2677.43354970099
0.500501536395601,2677.44354970099
0.603497452222269,2677.45354970099
0.712445907520855,2677.46354970099
0.818160877859921,2677.47354970099
0.912628931404887,2677.48354970099
0.989615851519687,2677.49354970099
1.0461485454143,2677.50354970099
1.08032991938365,2677.51354970099
1.09616402603732,2677.52354970099
1.09591667894404,2677.53354970099
1.08260899146202,2677.54354970099
1.06014382427124,2677.55354970099
1.03277115600377,2677.56354970099
1.00433148364268,2677.57354970099
0.974766999121491,2677.58354970099
0.948575560526481,2677.59354970099
0.924989177221559,2677.60354970099
0.904312680094952,2677.61354970099
0.886428781162032,2677.62354970099
0.870957734798004,2677.63354970099
0.85774927883679,2677.64354970099
0.843314561029396,2677.65354970099
0.829615114631405,2677.66354970099
0.813152415542137,2677.67354970099
0.792972379699807,2677.68354970099
0.769360375559408,2677.69354970099
0.743637332173141,2677.70354970099
0.717194975184314,2677.71354970099
0.691352253513467,2677.72354970099
0.670466669014805,2677.73354970099
0.654771278975195,2677.74354970099
0.644205632362262,2677.75354970099
0.638787882799176,2677.76354970099
0.638436312087438,2677.77354970099
0.642970360239434,2677.78354970099
0.650123474102902,2677.79354970099
0.660070001235273,2677.80354970099
0.670583015612004,2677.81354970099
0.679559536595214,2677.82354970099
0.685667984756309,2677.83354970099
0.688426981511817,2677.84354970099
0.687758522291367,2677.85354970099
0.682350215973864,2677.86354970099
0.674304417485679,2677.87354970099
0.663586901314664,2677.88354970099
0.650206114715585,2677.89354970099
0.633608107607736,2677.90354970099
0.615087972646921,2677.91354970099
0.595289793562711,2677.92354970099
0.573635498841774,2677.93354970099
0.553501444724986,2677.94354970099
0.533565980324343,2677.95354970099
0.513665000808954,2677.96354970099
0.494116853060243,2677.97354970099
0.475077553012991,2677.98354970099
0.457248212883355,2677.99354970099
0.439088582371662,2678.00354970099
0.421861953942547,2678.01354970099
0.404733132983277,2678.02354970099
0.387357289672279,2678.03354970099
0.369919157256526,2678.04354970099
0.353193261866389,2678.05354970099
0.33733891809714,2678.06354970099
0.320976010734871,2678.07354970099
0.306813385484685,2678.08354970099
0.293567217666673,2678.09354970099
0.279200238878809,2678.10354970099
0.265768295588558,2678.11354970099
0.251870241620932,2678.12354970099
0.238348922491216,2678.13354970099
0.223471941657934,2678.14354970099
0.208837420278604,2678.15354970099
0.193376190774388,2678.16354970099
0.176903427864917,2678.17354970099
0.160733308830579,2678.18354970099
0.145811561783226,2678.19354970099
0.133758990786554,2678.20354970099
0.126190232702999,2678.21354970099
0.129480237246316,2678.22354970099
0.14700237906467,2678.23354970099
0.182334211062333,2678.24354970099
0.236588179453003,2678.25354970099
0.308109100642771,2678.26354970099
0.392124185992709,2678.27354970099
0.479069024034872,2678.28354970099
0.563698548107191,2678.29354970099
0.6372610987004,2678.30354970099
0.694414596729389,2678.31354970099
0.732418041545363,2678.32354970099
0.752035028578367,2678.33354970099
0.755483254028806,2678.34354970099
0.745566698394279,2678.35354970099
0.727166062100483,2678.36354970099
0.70302572624984,2678.37354970099
0.675214804148008,2678.38354970099
0.645644463096486,2678.39354970099
0.616252730670221,2678.40354970099
0.588927115432274,2678.41354970099
0.562810015420454,2678.42354970099
0.539820165807801,2678.43354970099
0.519006749750664,2678.44354970099
0.499339259802022,2678.45354970099
0.479596252585722,2678.46354970099
0.459307067251401,2678.47354970099
0.437834669730458,2678.48354970099
0.414659839839734,2678.49354970099
0.390544234181741,2678.50354970099
0.364561592202809,2678.51354970099
0.341241505355618,2678.52354970099
0.321127364465014,2678.53354970099
0.304363444083384,2678.54354970099
0.292166219860075,2678.55354970099
0.285611387573434,2678.56354970099
0.285091575404543,2678.57354970099
0.288217678772754,2678.58354970099
0.297142466517519,2678.59354970099
0.308588324352294,2678.60354970099
0.321410659337546,2678.61354970099
0.333518501915649,2678.62354970099
0.344323818158383,2678.63354970099
0.351824627245334,2678.64354970099
0.354420337469154,2678.65354970099
0.353177848137262,2678.66354970099
0.347491582172001,2678.67354970099
0.338382067367464,2678.68354970099
0.32708509563975,2678.69354970099
0.313326441866883,2678.70354970099
0.297866747675526,2678.71354970099
0.280488775902858,2678.72354970099
0.262902967648108,2678.73354970099
0.245849348018317,2678.74354970099
0.228910423084659,2678.75354970099
0.211632991563561,2678.76354970099
0.194587093458674,2678.77354970099
0.178000031980931,2678.78354970099
0.160355716924289,2678.79354970099
0.144832393393208,2678.80354970099
0.130469327059541,2678.81354970099
0.11680061100834,2678.82354970099
0.103290522047102,2678.83354970099
0.0895999895695592,2678.84354970099
0.0764275694477483,2678.85354970099
0.0614744537824052,2678.86354970099
0.0477182210005357,2678.87354970099
0.0341270406149447,2678.88354970099
0.0199648075455734,2678.89354970099
0.00525048981124991,2678.90354970099
-0.00918269728713383,2678.91354970099
-0.0237090081969764,2678.92354970099
-0.0402215812350642,2678.93354970099
-0.0564568344543476,2678.94354970099
-0.0723021130970047,2678.95354970099
-0.0875800430576154,2678.96354970099
-0.101045835307988,2678.97354970099
-0.109109713021419,2678.98354970099
-0.107445988911498,2678.99354970099
-0.0921812847654338,2679.00354970099
-0.058280707039217,2679.01354970099
-0.00604752233658686,2679.02354970099
0.0604340419099893,2679.03354970099
0.134732723473977,2679.04354970099
0.210465854460448,2679.05354970099
0.280625716097202,2679.06354970099
0.337926728808843,2679.07354970099
0.380349331640842,2679.08354970099
0.405963050584187,2679.09354970099
0.415821303957032,2679.10354970099
0.4124696514796,2679.11354970099
0.399735405054414,2679.12354970099
0.380683041970445,2679.13354970099
0.356823556996913,2679.14354970099
0.33269976130915,2679.15354970099
0.308575047489921,2679.16354970099
0.285264841875097,2679.17354970099
0.263350760903805,2679.18354970099
0.242971544794105,2679.19354970099
0.224054110575609,2679.20354970099
0.204671071178976,2679.21354970099
0.185912547934954,2679.22354970099
0.165765846569698,2679.23354970099
0.143735292055394,2679.24354970099
0.118864906500048,2679.25354970099
0.0919048461402052,2679.26354970099
0.0627092998564896,2679.27354970099
0.0307528583342866,2679.28354970099
-0.000146829164049277,2679.29354970099
-0.0302896914119176,2679.30354970099
-0.0578888029364552,2679.31354970099
-0.0831685281157848,2679.32354970099
-0.10402642147144,2679.33354970099
-0.119992674602644,2679.34354970099
-0.133073139821241,2679.35354970099
-0.141596724842751,2679.36354970099
-0.14697226484657,2679.37354970099
-0.150681526280438,2679.38354970099
-0.153435779699127,2679.39354970099
-0.15647133356668,2679.40354970099
-0.159124728156407,2679.41354970099
-0.164164951951563,2679.42354970099
-0.16922807932474,2679.43354970099
-0.175699062596362,2679.44354970099
-0.184331098608902,2679.45354970099
-0.194954387124983,2679.46354970099
-0.207682799339239,2679.47354970099
-0.222221721391786,2679.48354970099
-0.237791960999077,2679.49354970099
-0.253089682702827,2679.50354970099
-0.268938742582325,2679.51354970099
-0.282410404128926,2679.52354970099
-0.294344240101622,2679.53354970099
-0.304519816319152,2679.54354970099
-0.313761590956325,2679.55354970099
-0.3220759685713,2679.56354970099
-0.33075482870704,2679.57354970099
-0.340829680612382,2679.58354970099
-0.350121239582864,2679.59354970099
-0.358414255183336,2679.60354970099
-0.365465318844925,2679.61354970099
-0.373262846556794,2679.62354970099
-0.380568058954898,2679.63354970099
-0.387474602473359,2679.64354970099
-0.395489754028455,2679.65354970099
-0.402554499369113,2679.66354970099
-0.409961984489117,2679.67354970099
-0.41806347660486,2679.68354970099
-0.426728828384336,2679.69354970099
-0.436244244764724,2679.70354970099
-0.446057360715301,2679.71354970099
-0.457920057604539,2679.72354970099
-0.469084976041231,2679.73354970099
-0.479894994723879,2679.74354970099
-0.491689388661673,2679.75354970099
-0.503981136570437,2679.76354970099
-0.51595213173486,2679.77354970099
-0.525347002193326,2679.78354970099
-0.529012646678391,2679.79354970099
-0.521342863035936,2679.80354970099
-0.49892687448663,2679.81354970099
-0.461067528126505,2679.82354970099
-0.408906077162616,2679.83354970099
-0.345307620953499,2679.84354970099
-0.276706186028697,2679.85354970099
-0.210496114448084,2679.86354970099
-0.151193328365845,2679.87354970099
-0.103752965508565,2679.88354970099
-0.0699377064058642,2679.89354970099
-0.0499436573994652,2679.90354970099
-0.0416213414271638,2679.91354970099
-0.0416741465020796,2679.92354970099
-0.0489792300603711,2679.93354970099
-0.0583119742152404,2679.94354970099
-0.0683772641417843,2679.95354970099
-0.0788531752733602,2679.96354970099
-0.090054124577133,2679.97354970099
-0.100369677394599,2679.98354970099
-0.109815217227563,2679.99354970099
-0.119802291543201,2680.00354970099
-0.12847494927608,2680.01354970099
-0.137256045129174,2680.02354970099
-0.146269907999243,2680.03354970099
-0.155985226085563,2680.04354970099
-0.166773559412391,2680.05354970099
-0.178669216072891,2680.06354970099
-0.192348250143434,2680.07354970099
-0.205075896643991,2680.08354970099
-0.217612335728477,2680.09354970099
-0.229839029936359,2680.10354970099
-0.242346887402485,2680.11354970099
-0.253548976279647,2680.12354970099
-0.262594502042363,2680.13354970099
-0.270855754630828,2680.14354970099
-0.276341700755187,2680.15354970099
-0.280291887993774,2680.16354970099
-0.282344922926111,2680.17354970099
-0.283272967640728,2680.18354970099
-0.28273366470358,2680.19354970099
-0.281975513281162,2680.20354970099
-0.28266831531848,2680.21354970099
-0.283979462434885,2680.22354970099
-0.28629909537035,2680.23354970099
-0.290778721726383,2680.24354970099
-0.29724696158253,2680.25354970099
-0.304989494508475,2680.26354970099
-0.314345130444079,2680.27354970099
-0.325519794658077,2680.28354970099
-0.33672610550598,2680.29354970099
-0.348871129982814,2680.30354970099
-0.362659664822883,2680.31354970099
-0.378744147566647,2680.32354970099
-0.395155002810238,2680.33354970099
-0.411297051115296,2680.34354970099
-0.427352335908093,2680.35354970099
-0.441150289583186,2680.36354970099
-0.453702354239969,2680.37354970099
-0.466296670687177,2680.38354970099
-0.479457419205998,2680.39354970099
-0.49255302476427,2680.40354970099
-0.505701627057848,2680.41354970099
-0.518646635454916,2680.42354970099
-0.529624145728402,2680.43354970099
-0.539744922805885,2680.44354970099
-0.548718993751511,2680.45354970099
-0.556760371805673,2680.46354970099
-0.564362571056783,2680.47354970099
-0.571382719284306,2680.48354970099
-0.577891596457891,2680.49354970099
-0.583827489807948,2680.50354970099
-0.590389479275855,2680.51354970099
-0.59560649522232,2680.52354970099
-0.601390701094862,2680.53354970099
-0.60800092666645,2680.54354970099
-0.615646849051639,2680.55354970099
-0.623622959848428,2680.56354970099
-0.631594741438499,2680.57354970099
-0.640081834257489,2680.58354970099
-0.647018814438897,2680.59354970099
-0.654276850407683,2680.60354970099
-0.661279455536653,2680.61354970099
-0.669734721669297,2680.62354970099
-0.678213205835952,2680.63354970099
-0.687004328501648,2680.64354970099
-0.696700493419141,2680.65354970099
-0.705111367217054,2680.66354970099
-0.71243939541204,2680.67354970099
-0.71751830739415,2680.68354970099
-0.718766077886825,2680.69354970099
-0.711463441351259,2680.70354970099
-0.691946883196666,2680.71354970099
-0.65831626715501,2680.72354970099
-0.608266258165845,2680.73354970099
-0.546011502915213,2680.74354970099
-0.477557459934025,2680.75354970099
-0.409970150645268,2680.76354970099
-0.348595699474388,2680.77354970099
-0.298231830210954,2680.78354970099
-0.261047584586138,2680.79354970099
-0.235360618769606,2680.80354970099
-0.220385530559302,2680.81354970099
-0.215636293244499,2680.82354970099
-0.218796058446243,2680.83354970099
-0.227061615590173,2680.84354970099
-0.237733454918933,2680.85354970099
-0.249824362959621,2680.86354970099
-0.259485725990589,2680.87354970099
-0.268527082761155,2680.88354970099
-0.276788573837475,2680.89354970099
-0.284991573012329,2680.90354970099
-0.29306199541522,2680.91354970099
-0.300030350770189,2680.92354970099
-0.307935117894466,2680.93354970099
-0.315307986720814,2680.94354970099
-0.322893893244493,2680.95354970099
-0.331398496686999,2680.96354970099
-0.341623828297374,2680.97354970099
-0.352888890813922,2680.98354970099
-0.365741462987859,2680.99354970099
-0.379849742200125,2681.00354970099
-0.393056916389305,2681.01354970099
-0.40472420989796,2681.02354970099
-0.414802781485089,2681.03354970099
-0.422892682059914,2681.04354970099
-0.428837681166801,2681.05354970099
-0.432035086997406,2681.06354970099
-0.434470507138961,2681.07354970099
-0.435700767169229,2681.08354970099
-0.435966335745036,2681.09354970099
-0.435883246586849,2681.10354970099
-0.435916578806707,2681.11354970099
-0.436711856467386,2681.12354970099
-0.438333086935186,2681.13354970099
-0.442061586254982,2681.14354970099
-0.446610903738713,2681.15354970099
-0.4520218794654,2681.16354970099
-0.459347557288215,2681.17354970099
-0.468682059126962,2681.18354970099
-0.479478013709172,2681.19354970099
-0.490619819866561,2681.20354970099
-0.504203769890193,2681.21354970099
-0.516903433713317,2681.22354970099
-0.529333470534913,2681.23354970099
-0.540990034965331,2681.24354970099
-0.552059445562375,2681.25354970099
-0.56278819513146,2681.26354970099
-0.573227200083714,2681.27354970099
-0.585210104525378,2681.28354970099
-0.596044082273877,2681.29354970099
-0.606995386992638,2681.30354970099
-0.617889933741551,2681.31354970099
-0.628688172717204,2681.32354970099
-0.639758226890838,2681.33354970099
-0.650558338580685,2681.34354970099
-0.661496584292925,2681.35354970099
-0.670679135934654,2681.36354970099
-0.679614940511669,2681.37354970099
-0.688970834216701,2681.38354970099
-0.699016038129359,2681.39354970099
-0.709052269442743,2681.40354970099
-0.718535904050902,2681.41354970099
-0.728938482679377,2681.42354970099
-0.738175855146512,2681.43354970099
-0.746644133022732,2681.44354970099
-0.755443754920575,2681.45354970099
-0.764932826731099,2681.46354970099
-0.775302311505418,2681.47354970099
-0.785735682079034,2681.48354970099
-0.795670578198398,2681.49354970099
-0.804598383988124,2681.50354970099
-0.813499688331586,2681.51354970099
-0.820355510389737,2681.52354970099
-0.826865508742976,2681.53354970099
-0.833958478214755,2681.54354970099
-0.841981552068406,2681.55354970099
-0.850801005173098,2681.56354970099
-0.859408387399819,2681.57354970099
-0.868662394742259,2681.58354970099
-0.876263909314499,2681.59354970099
-0.883356124212441,2681.60354970099
-0.890849570731382,2681.61354970099
-0.898923798796782,2681.62354970099
-0.905758845220524,2681.63354970099
-0.908883142389359,2681.64354970099
-0.905388159094941,2681.65354970099
-0.889058873345577,2681.66354970099
-0.859006059206711,2681.67354970099
-0.815480346257305,2681.68354970099
-0.761164877263251,2681.69354970099
-0.699312323544064,2681.70354970099
-0.634635488038803,2681.71354970099
-0.573640065136592,2681.72354970099
-0.519174124179003,2681.73354970099
-0.475905765207421,2681.74354970099
-0.445615449234029,2681.75354970099
-0.428121202272934,2681.76354970099
-0.420586374141964,2681.77354970099
-0.420731684577713,2681.78354970099
-0.426431474316282,2681.79354970099
-0.433163645945624,2681.80354970099
-0.440949954302473,2681.81354970099
-0.448356766769043,2681.82354970099
-0.455937331954717,2681.83354970099
-0.462221814475358,2681.84354970099
-0.467227015465806,2681.85354970099
-0.471049689671018,2681.86354970099
-0.47242538253205,2681.87354970099
-0.473374130530812,2681.88354970099
-0.474610788219823,2681.89354970099
-0.477642296945037,2681.90354970099
-0.481761632576265,2681.91354970099
-0.487057151926257,2681.92354970099
-0.494964337169982,2681.93354970099
-0.502766368185889,2681.94354970099
-0.511528642615519,2681.95354970099
-0.52075282293271,2681.96354970099
-0.529322652813925,2681.97354970099
-0.536568738565207,2681.98354970099
-0.540554423818981,2681.99354970099
-0.542227118045756,2682.00354970099
-0.539116849750059,2682.01354970099
-0.533314939717734,2682.02354970099
-0.526017910614641,2682.03354970099
-0.519044616326433,2682.04354970099
-0.511956108863741,2682.05354970099
-0.504758499153663,2682.06354970099
-0.499597040443823,2682.07354970099
-0.494290439053851,2682.08354970099
-0.490532102999564,2682.09354970099
-0.488452480866313,2682.10354970099
-0.489444613950829,2682.11354970099
-0.492627345970102,2682.12354970099
-0.497753505568168,2682.13354970099
-0.504946095028402,2682.14354970099
