PPG,time
-0.20658356810251,2253.45331198584
-0.409279498112477,2253.46331198584
-0.3617487691294,2253.47331198584
-0.388955816801304,2253.48331198584
-0.373617754865441,2253.49331198584
-0.385220272426228,2253.50331198584
-0.379836731637087,2253.51331198584
-0.385680304108864,2253.52331198584
-0.385248166129728,2253.53331198584
-0.38852690171757,2253.54331198584
-0.389917106040616,2253.55331198584
-0.39250545640918,2253.56331198584
-0.394824700722381,2253.57331198584
-0.397081442167997,2253.58331198584
-0.399021888720668,2253.59331198584
-0.400653778397309,2253.60331198584
-0.402424874972798,2253.61331198584
-0.403685288077364,2253.62331198584
-0.405918121310662,2253.63331198584
-0.407923360422737,2253.64331198584
-0.409913148756506,2253.65331198584
-0.411539509570961,2253.66331198584
-0.412431125253884,2253.67331198584
-0.413224774421164,2253.68331198584
-0.414146405734188,2253.69331198584
-0.415090420828881,2253.70331198584
-0.416233433430374,2253.71331198584
-0.417325560503277,2253.72331198584
-0.418532849496722,2253.73331198584
-0.420065815689892,2253.74331198584
-0.421902738890629,2253.75331198584
-0.423468060181699,2253.76331198584
-0.425688458934629,2253.77331198584
-0.427335162240914,2253.78331198584
-0.428084876892271,2253.79331198584
-0.427433970631379,2253.80331198584
-0.425797907083792,2253.81331198584
-0.422099240076467,2253.82331198584
-0.417228082593465,2253.83331198584
-0.411095613401644,2253.84331198584
-0.404449013576804,2253.85331198584
-0.398013213987418,2253.86331198584
-0.392341617832522,2253.87331198584
-0.387174741311143,2253.88331198584
-0.383516669211703,2253.89331198584
-0.380516474072857,2253.90331198584
-0.378658322741294,2253.91331198584
-0.377091177355176,2253.92331198584
-0.375660219011857,2253.93331198584
-0.374614555027827,2253.94331198584
-0.373838099851396,2253.95331198584
-0.373134288307358,2253.96331198584
-0.372975965444719,2253.97331198584
-0.372836597484159,2253.98331198584
-0.372392694556482,2253.99331198584
-0.372420916698301,2254.00331198584
-0.372044850191979,2254.01331198584
-0.371191715995833,2254.02331198584
-0.370582345910629,2254.03331198584
-0.369903950262623,2254.04331198584
-0.369575222210519,2254.05331198584
-0.370043461632061,2254.06331198584
-0.370397138834427,2254.07331198584
-0.370727110054076,2254.08331198584
-0.37113372732364,2254.09331198584
-0.371353674595137,2254.10331198584
-0.371387864347681,2254.11331198584
-0.372002835575472,2254.12331198584
-0.372039346473816,2254.13331198584
-0.372256491929844,2254.14331198584
-0.371504832747685,2254.15331198584
-0.370462667184027,2254.16331198584
-0.369498968282263,2254.17331198584
-0.368256607362259,2254.18331198584
-0.36713810537664,2254.19331198584
-0.366503596073792,2254.20331198584
-0.366136669603356,2254.21331198584
-0.365756005420841,2254.22331198584
-0.365536848165733,2254.23331198584
-0.365441039384297,2254.24331198584
-0.365444102182337,2254.25331198584
-0.365097851470223,2254.26331198584
-0.36540004954349,2254.27331198584
-0.365948093065456,2254.28331198584
-0.367059526304749,2254.29331198584
-0.367759782674106,2254.30331198584
-0.368541612162244,2254.31331198584
-0.369349870250814,2254.32331198584
-0.370885905518968,2254.33331198584
-0.372599312744625,2254.34331198584
-0.374425181573535,2254.35331198584
-0.375753297510882,2254.36331198584
-0.376910295394695,2254.37331198584
-0.377496683193322,2254.38331198584
-0.378143224593272,2254.39331198584
-0.378656711077771,2254.40331198584
-0.379151999192878,2254.41331198584
-0.379527882929685,2254.42331198584
-0.379650070879568,2254.43331198584
-0.380042951851231,2254.44331198584
-0.380523536597491,2254.45331198584
-0.381572416646746,2254.46331198584
-0.382900836665462,2254.47331198584
-0.38461897406135,2254.48331198584
-0.386392887701657,2254.49331198584
-0.388138725208899,2254.50331198584
-0.389529153411435,2254.51331198584
-0.390713145796841,2254.52331198584
-0.392010392002833,2254.53331198584
-0.392874102705901,2254.54331198584
-0.394227539766015,2254.55331198584
-0.39527588527104,2254.56331198584
-0.396908956165161,2254.57331198584
-0.398737260430191,2254.58331198584
-0.400579312270906,2254.59331198584
-0.402586809248448,2254.60331198584
-0.403975917786646,2254.61331198584
-0.405751023128912,2254.62331198584
-0.407200924900852,2254.63331198584
-0.408008027135249,2254.64331198584
-0.408647214437305,2254.65331198584
-0.408343657129866,2254.66331198584
-0.407307436733356,2254.67331198584
-0.404585972417833,2254.68331198584
-0.400853311019663,2254.69331198584
-0.395777839687661,2254.70331198584
-0.390060663225465,2254.71331198584
-0.383666839852244,2254.72331198584
-0.376548419852985,2254.73331198584
-0.369445516854887,2254.74331198584
-0.362430518068739,2254.75331198584
-0.35611709731036,2254.76331198584
-0.35065505592268,2254.77331198584
-0.346314380301684,2254.78331198584
-0.342978846164628,2254.79331198584
-0.340506839580285,2254.80331198584
-0.338534629402374,2254.81331198584
-0.337068281597053,2254.82331198584
-0.335605455831402,2254.83331198584
-0.334388069197456,2254.84331198584
-0.333646536031089,2254.85331198584
-0.332612026337567,2254.86331198584
-0.331515162381729,2254.87331198584
-0.330339676937159,2254.88331198584
-0.329053835632902,2254.89331198584
-0.327630512140181,2254.90331198584
-0.326238807076471,2254.91331198584
-0.324498107874808,2254.92331198584
-0.32294371676007,2254.93331198584
-0.321217124889967,2254.94331198584
-0.319797403305325,2254.95331198584
-0.318673502316406,2254.96331198584
-0.31713124012844,2254.97331198584
-0.316877192262573,2254.98331198584
-0.316015741388552,2254.99331198584
-0.31539673959819,2255.00331198584
-0.314687277161588,2255.01331198584
-0.313901625668382,2255.02331198584
-0.312593419068282,2255.03331198584
-0.311087440991075,2255.04331198584
-0.309562360391954,2255.05331198584
-0.308133064985421,2255.06331198584
-0.306533805410343,2255.07331198584
-0.305271511417304,2255.08331198584
-0.304187568783242,2255.09331198584
-0.303620055692228,2255.10331198584
-0.302810401636839,2255.11331198584
-0.302294304917198,2255.12331198584
-0.301512669119933,2255.13331198584
-0.300646909343484,2255.14331198584
-0.299895499102793,2255.15331198584
-0.299686934178899,2255.16331198584
-0.299427610600205,2255.17331198584
-0.299558116176533,2255.18331198584
-0.299615471028074,2255.19331198584
-0.299065087639827,2255.20331198584
-0.298214927534659,2255.21331198584
-0.297126780008638,2255.22331198584
-0.295779943330162,2255.23331198584
-0.295635826184812,2255.24331198584
-0.295147494359655,2255.25331198584
-0.295287666602251,2255.26331198584
-0.294853364000666,2255.27331198584
-0.294847327649452,2255.28331198584
-0.294800859768377,2255.29331198584
-0.294223377332332,2255.30331198584
-0.293979064216621,2255.31331198584
-0.293071704588835,2255.32331198584
-0.292674389594213,2255.33331198584
-0.292329671396036,2255.34331198584
-0.292876352595943,2255.35331198584
-0.293622680112287,2255.36331198584
-0.294194655514467,2255.37331198584
-0.294902080392186,2255.38331198584
-0.295058941355831,2255.39331198584
-0.295126325630979,2255.40331198584
-0.295390243959906,2255.41331198584
-0.295938394666727,2255.42331198584
-0.296607243621714,2255.43331198584
-0.297373257146359,2255.44331198584
-0.297751922194162,2255.45331198584
-0.298322217800782,2255.46331198584
-0.298705382194262,2255.47331198584
-0.29899606563289,2255.48331198584
-0.299364976141265,2255.49331198584
-0.2987658140739,2255.50331198584
-0.29687090726043,2255.51331198584
-0.292664828205937,2255.52331198584
-0.28698217105894,2255.53331198584
-0.279369765154184,2255.54331198584
-0.270692196400303,2255.55331198584
-0.261958465572222,2255.56331198584
-0.253171312536,2255.57331198584
-0.244886251271561,2255.58331198584
-0.237089918142858,2255.59331198584
-0.229524915491976,2255.60331198584
-0.223027073424945,2255.61331198584
-0.217544178266169,2255.62331198584
-0.212797928749757,2255.63331198584
-0.208866108737858,2255.64331198584
-0.205681456620301,2255.65331198584
-0.20278729176426,2255.66331198584
-0.200602477303992,2255.67331198584
-0.198986897647727,2255.68331198584
-0.19804868176052,2255.69331198584
-0.197407315803098,2255.70331198584
-0.197045491909407,2255.71331198584
-0.196324776390013,2255.72331198584
-0.194742548221584,2255.73331198584
-0.192886371460285,2255.74331198584
-0.190843760187292,2255.75331198584
-0.188921883231768,2255.76331198584
-0.187480834260585,2255.77331198584
-0.186070849510021,2255.78331198584
-0.184577103779091,2255.79331198584
-0.183442241688354,2255.80331198584
-0.182584338215757,2255.81331198584
-0.181191172138217,2255.82331198584
-0.179956826686905,2255.83331198584
-0.178297978121092,2255.84331198584
-0.176400619929335,2255.85331198584
-0.174491395417898,2255.86331198584
-0.172833372099323,2255.87331198584
-0.170822682595045,2255.88331198584
-0.16909144094039,2255.89331198584
-0.167052984151365,2255.90331198584
-0.164582716005323,2255.91331198584
-0.162959776632073,2255.92331198584
-0.161283552167198,2255.93331198584
-0.160028828558494,2255.94331198584
-0.159470444244092,2255.95331198584
-0.159347175782598,2255.96331198584
-0.15907804149273,2255.97331198584
-0.159072567943946,2255.98331198584
-0.158817926008638,2255.99331198584
-0.158664159081383,2256.00331198584
-0.158853712339806,2256.01331198584
-0.158695683192389,2256.02331198584
-0.158869390030257,2256.03331198584
-0.158652583096391,2256.04331198584
-0.159067791002028,2256.05331198584
-0.158766523525367,2256.06331198584
-0.158624610439051,2256.07331198584
-0.158753832931346,2256.08331198584
-0.15890079466994,2256.09331198584
-0.159368518938119,2256.10331198584
-0.160141223101169,2256.11331198584
-0.16099058470102,2256.12331198584
-0.161722035332776,2256.13331198584
-0.162301105386146,2256.14331198584
-0.162765742290371,2256.15331198584
-0.163183161365062,2256.16331198584
-0.163714408766354,2256.17331198584
-0.164491069263714,2256.18331198584
-0.166215228896357,2256.19331198584
-0.167739819086333,2256.20331198584
-0.16903979750436,2256.21331198584
-0.17045385431282,2256.22331198584
-0.171408291050184,2256.23331198584
-0.172874353195661,2256.24331198584
-0.174667323042778,2256.25331198584
-0.176425663935904,2256.26331198584
-0.177289049490683,2256.27331198584
-0.17749585545384,2256.28331198584
-0.175980162108665,2256.29331198584
-0.172622672961636,2256.30331198584
-0.167575397807583,2256.31331198584
-0.160730254027308,2256.32331198584
-0.151938275887236,2256.33331198584
-0.142735266406306,2256.34331198584
-0.132740507446173,2256.35331198584
-0.123023625577443,2256.36331198584
-0.113803982584116,2256.37331198584
-0.106009165814487,2256.38331198584
-0.099099379597593,2256.39331198584
-0.0933733688340863,2256.40331198584
-0.0886249710138321,2256.41331198584
-0.0849363953568637,2256.42331198584
-0.0819363656702975,2256.43331198584
-0.0796638056727747,2256.44331198584
-0.0768224447608312,2256.45331198584
-0.0739870845913752,2256.46331198584
-0.0716605086123163,2256.47331198584
-0.0693038184334863,2256.48331198584
-0.0672877587508277,2256.49331198584
-0.0654059182267849,2256.50331198584
-0.0633184729271691,2256.51331198584
-0.0613144865192569,2256.52331198584
-0.0598536262813222,2256.53331198584
-0.0584977121406197,2256.54331198584
-0.0575120490336874,2256.55331198584
-0.0563976457940244,2256.56331198584
-0.0554460910225093,2256.57331198584
-0.0546438155992432,2256.58331198584
-0.0535970421297352,2256.59331198584
-0.0526590632464312,2256.60331198584
-0.0516591129169937,2256.61331198584
-0.0503376684947729,2256.62331198584
-0.0488241694921106,2256.63331198584
-0.0476527463892122,2256.64331198584
-0.0457084083264912,2256.65331198584
-0.0432957520147945,2256.66331198584
-0.040905633274805,2256.67331198584
-0.0381344499815333,2256.68331198584
-0.0357460016814493,2256.69331198584
-0.0334957037195033,2256.70331198584
-0.0321843667784113,2256.71331198584
-0.0312038401868672,2256.72331198584
-0.03078811120045,2256.73331198584
-0.0302989182110567,2256.74331198584
-0.0300205668851839,2256.75331198584
-0.029791305936178,2256.76331198584
-0.0303617835380328,2256.77331198584
-0.0311887484931477,2256.78331198584
-0.0319625727593167,2256.79331198584
-0.032393595268401,2256.80331198584
-0.0325656587299033,2256.81331198584
-0.0320556194242119,2256.82331198584
-0.0320374153090001,2256.83331198584
-0.0317588911543304,2256.84331198584
-0.0313180771123746,2256.85331198584
-0.0308093465502841,2256.86331198584
-0.0306386286070401,2256.87331198584
-0.0311544734413065,2256.88331198584
-0.0316927917767903,2256.89331198584
-0.03268000829194,2256.90331198584
-0.0341708067970883,2256.91331198584
-0.0352854758920486,2256.92331198584
-0.0365217333195472,2256.93331198584
-0.0375928841983684,2256.94331198584
-0.0387029975876019,2256.95331198584
-0.0400906242947388,2256.96331198584
-0.0419189908631547,2256.97331198584
-0.043702075901451,2256.98331198584
-0.0458952538621134,2256.99331198584
-0.0477436935884637,2257.00331198584
-0.050031331695747,2257.01331198584
-0.0516847430406372,2257.02331198584
-0.0536535661384367,2257.03331198584
-0.0550031331363803,2257.04331198584
-0.0562076932733914,2257.05331198584
-0.057123520276177,2257.06331198584
-0.0580347566417241,2257.07331198584
-0.0585453219011342,2257.08331198584
-0.058871163715278,2257.09331198584
-0.0576864367578844,2257.10331198584
-0.0547960830302599,2257.11331198584
-0.0495952540922658,2257.12331198584
-0.0420669745962116,2257.13331198584
-0.0330431496262867,2257.14331198584
-0.0228879873024169,2257.15331198584
-0.0117728201999569,2257.16331198584
-0.000893497654263481,2257.17331198584
0.00995119207676442,2257.18331198584
0.0201583829308637,2257.19331198584
0.029614860438512,2257.20331198584
0.0377868794587011,2257.21331198584
0.0452509002529482,2257.22331198584
0.0509840570919631,2257.23331198584
0.0564422404420683,2257.24331198584
0.060854270480458,2257.25331198584
0.064345895692017,2257.26331198584
0.06746465585837,2257.27331198584
0.0699253042327773,2257.28331198584
0.072607874184581,2257.29331198584
0.075406764376602,2257.30331198584
0.0786051290215482,2257.31331198584
0.081513466567839,2257.32331198584
0.084273752453513,2257.33331198584
0.0867537164398894,2257.34331198584
0.0891323588363838,2257.35331198584
0.0909711496014562,2257.36331198584
0.0918291379076054,2257.37331198584
0.0928298206626147,2257.38331198584
0.0937921512377862,2257.39331198584
0.0950121968367031,2257.40331198584
0.0963746119774805,2257.41331198584
0.0981247553151817,2257.42331198584
0.0992131282559754,2257.43331198584
0.100868844154809,2257.44331198584
0.102676131754186,2257.45331198584
0.104976384676646,2257.46331198584
0.107436887405851,2257.47331198584
0.109865059092997,2257.48331198584
0.112389814041488,2257.49331198584
0.115050266648236,2257.50331198584
0.117551578621002,2257.51331198584
0.119716549811682,2257.52331198584
0.12087632210852,2257.53331198584
0.121946398694651,2257.54331198584
0.122189731317465,2257.55331198584
0.122801930000163,2257.56331198584
0.123242618842248,2257.57331198584
0.124220303419296,2257.58331198584
0.125322660762604,2257.59331198584
0.126164774316277,2257.60331198584
0.126856372970649,2257.61331198584
0.126784704959322,2257.62331198584
0.126479201730702,2257.63331198584
0.125613235891889,2257.64331198584
0.124863690545806,2257.65331198584
0.124094974689004,2257.66331198584
0.123101483100623,2257.67331198584
0.122364083052421,2257.68331198584
0.121202014143195,2257.69331198584
0.120283838656141,2257.70331198584
0.119453545664332,2257.71331198584
0.118325590992533,2257.72331198584
0.116345666986314,2257.73331198584
0.114457162619347,2257.74331198584
0.112418299323787,2257.75331198584
0.110581048444582,2257.76331198584
0.109128426094342,2257.77331198584
0.107654655987342,2257.78331198584
0.106065560807077,2257.79331198584
0.104154427110018,2257.80331198584
0.10268723204903,2257.81331198584
0.100589864219959,2257.82331198584
0.0987684655479325,2257.83331198584
0.0968082081803568,2257.84331198584
0.0943638341379947,2257.85331198584
0.0919322608995004,2257.86331198584
0.0890828770229995,2257.87331198584
0.0862507643042559,2257.88331198584
0.0831862616810711,2257.89331198584
0.0805077420476514,2257.90331198584
0.0785333668243031,2257.91331198584
0.0768141767898293,2257.92331198584
0.0755384921501012,2257.93331198584
0.0754663929307929,2257.94331198584
0.0773505281761126,2257.95331198584
0.0819998214871515,2257.96331198584
0.0896604422918916,2257.97331198584
0.0999612292976394,2257.98331198584
0.111829428252695,2257.99331198584
0.125164963838635,2258.00331198584
0.139127891410358,2258.01331198584
0.153125089965512,2258.02331198584
0.165643401630764,2258.03331198584
0.176990343796156,2258.04331198584
0.186642138893121,2258.05331198584
0.195041368079058,2258.06331198584
0.202505364656225,2258.07331198584
0.208941181688477,2258.08331198584
0.21476960022997,2258.09331198584
0.218967899281213,2258.10331198584
0.222457727942937,2258.11331198584
0.225177098370751,2258.12331198584
0.228559732814343,2258.13331198584
0.231524624771706,2258.14331198584
0.234764895814751,2258.15331198584
0.237921622330298,2258.16331198584
0.240497823635577,2258.17331198584
0.24331866986664,2258.18331198584
0.245954309456879,2258.19331198584
0.248464932430717,2258.20331198584
0.250599645158894,2258.21331198584
0.252412409144296,2258.22331198584
0.254067622081798,2258.23331198584
0.255516151208308,2258.24331198584
0.256745007373641,2258.25331198584
0.257931578683443,2258.26331198584
0.25966021256746,2258.27331198584
0.261183050304748,2258.28331198584
0.26285524955367,2258.29331198584
0.264253203497313,2258.30331198584
0.265812632483334,2258.31331198584
0.267280739215957,2258.32331198584
0.268974582831551,2258.33331198584
0.270943369315122,2258.34331198584
0.272707992289387,2258.35331198584
0.274691181492426,2258.36331198584
0.276284226896756,2258.37331198584
0.277411795208688,2258.38331198584
0.278888283407827,2258.39331198584
0.279536310048508,2258.40331198584
0.279785839633615,2258.41331198584
0.280063794564479,2258.42331198584
0.28003261730864,2258.43331198584
0.279683726083227,2258.44331198584
0.279280106362549,2258.45331198584
0.278557376180316,2258.46331198584
0.276913165646184,2258.47331198584
0.275310277295823,2258.48331198584
0.273919943831189,2258.49331198584
0.27205585613508,2258.50331198584
0.270539539449974,2258.51331198584
0.268641587900443,2258.52331198584
0.266674069736223,2258.53331198584
0.26526622915897,2258.54331198584
0.263766079257662,2258.55331198584
0.262311982383632,2258.56331198584
0.260514416365809,2258.57331198584
0.258635202027401,2258.58331198584
0.256649748367411,2258.59331198584
0.254798725551606,2258.60331198584
0.25234911853862,2258.61331198584
0.249517295143756,2258.62331198584
0.245886997674303,2258.63331198584
0.242591948624375,2258.64331198584
0.238605696939357,2258.65331198584
0.235021564497641,2258.66331198584
0.231257839263738,2258.67331198584
0.228266948896867,2258.68331198584
0.225276344388408,2258.69331198584
0.222231192776601,2258.70331198584
0.219276327595769,2258.71331198584
0.216450210420922,2258.72331198584
0.214462332055229,2258.73331198584
0.213142163910331,2258.74331198584
0.21333779385336,2258.75331198584
0.215930964700652,2258.76331198584
0.22171761692165,2258.77331198584
0.229553592109635,2258.78331198584
0.239760757803974,2258.79331198584
0.251890357019408,2258.80331198584
0.264627443269109,2258.81331198584
0.27805040462189,2258.82331198584
0.290943740790001,2258.83331198584
0.30292788280702,2258.84331198584
0.313636427372727,2258.85331198584
0.322805767667171,2258.86331198584
0.330373196207381,2258.87331198584
0.33628825283248,2258.88331198584
0.340891075032361,2258.89331198584
0.344484480354634,2258.90331198584
0.347316943820634,2258.91331198584
0.349415264412676,2258.92331198584
0.350681537407402,2258.93331198584
0.352143330351565,2258.94331198584
0.353363842454421,2258.95331198584
0.355008328810002,2258.96331198584
0.356214921676082,2258.97331198584
0.356994481961928,2258.98331198584
0.357158646567986,2258.99331198584
0.357115947961153,2259.00331198584
0.356645116624361,2259.01331198584
0.356022256907208,2259.02331198584
0.35539151521104,2259.03331198584
0.353987141929197,2259.04331198584
0.352769896137273,2259.05331198584
0.35166570994052,2259.06331198584
0.350354230198956,2259.07331198584
0.349843122692768,2259.08331198584
0.349192969841964,2259.09331198584
0.348926540869417,2259.10331198584
0.349171703837896,2259.11331198584
0.349724183539618,2259.12331198584
0.350622873667245,2259.13331198584
0.351231642035774,2259.14331198584
0.351645062303011,2259.15331198584
0.351578771371414,2259.16331198584
0.350038594502231,2259.17331198584
0.348103872241178,2259.18331198584
0.345774300081378,2259.19331198584
0.343558818072775,2259.20331198584
0.340737198550368,2259.21331198584
0.337801373931184,2259.22331198584
0.334338525180722,2259.23331198584
0.331189835240214,2259.24331198584
0.327209100496331,2259.25331198584
0.323241340732618,2259.26331198584
0.319188729797465,2259.27331198584
0.315260681325128,2259.28331198584
0.310949689778863,2259.29331198584
0.306486748159662,2259.30331198584
0.302377144168294,2259.31331198584
0.29820733856911,2259.32331198584
0.294612659472279,2259.33331198584
0.291167095256217,2259.34331198584
0.287881221419097,2259.35331198584
0.28493510845977,2259.36331198584
0.281673364833305,2259.37331198584
0.277930945685841,2259.38331198584
0.273753922168538,2259.39331198584
0.268838486145349,2259.40331198584
0.264083561380867,2259.41331198584
0.259065861569321,2259.42331198584
0.253392603711475,2259.43331198584
0.247834332843567,2259.44331198584
0.242462013625125,2259.45331198584
0.237634411615683,2259.46331198584
0.232951621683918,2259.47331198584
0.228663680795642,2259.48331198584
0.224083682977263,2259.49331198584
0.218940760028821,2259.50331198584
0.213843305054997,2259.51331198584
0.208750781461652,2259.52331198584
0.204205261833018,2259.53331198584
0.201710284464606,2259.54331198584
0.202120350017566,2259.55331198584
0.205919095806807,2259.56331198584
0.213047069319545,2259.57331198584
0.223305390557036,2259.58331198584
0.235846439242001,2259.59331198584
0.249335766460532,2259.60331198584
0.263243704532031,2259.61331198584
0.27689757178875,2259.62331198584
0.290378560311909,2259.63331198584
0.303040195351303,2259.64331198584
0.314757693507711,2259.65331198584
0.324680628863009,2259.66331198584
0.332922357714477,2259.67331198584
0.339314886260865,2259.68331198584
0.343980155562919,2259.69331198584
0.347415640339019,2259.70331198584
0.348792424336145,2259.71331198584
0.349657632358744,2259.72331198584
0.350302784128388,2259.73331198584
0.35091704624466,2259.74331198584
0.352601463431476,2259.75331198584
0.354045355416765,2259.76331198584
0.355715071138052,2259.77331198584
0.356922441837104,2259.78331198584
0.357659795256032,2259.79331198584
0.357878913497317,2259.80331198584
0.35790924831174,2259.81331198584
0.357388632510241,2259.82331198584
0.356156533034855,2259.83331198584
0.354987292729478,2259.84331198584
0.353702971272896,2259.85331198584
0.352714151891678,2259.86331198584
0.35237695157253,2259.87331198584
0.35265158121649,2259.88331198584
0.352945557386838,2259.89331198584
0.353453440731903,2259.90331198584
0.353968651148388,2259.91331198584
0.354516908507373,2259.92331198584
0.355421658119702,2259.93331198584
0.355866578774616,2259.94331198584
0.356357566062945,2259.95331198584
0.35667165750373,2259.96331198584
0.356314887190129,2259.97331198584
0.355596868712898,2259.98331198584
0.354034279385382,2259.99331198584
0.351638731832756,2260.00331198584
0.349078741738754,2260.01331198584
0.346676425082613,2260.02331198584
0.343591554907637,2260.03331198584
0.340671756177086,2260.04331198584
0.337543241254915,2260.05331198584
0.333787410402427,2260.06331198584
0.330051860379605,2260.07331198584
0.32559365857097,2260.08331198584
0.321599942379286,2260.09331198584
0.31719509902958,2260.10331198584
0.313063604194509,2260.11331198584
0.308906189936259,2260.12331198584
0.304860955923427,2260.13331198584
0.300812496331363,2260.14331198584
0.297003775381796,2260.15331198584
0.293055629573346,2260.16331198584
0.288744565133625,2260.17331198584
0.284310696356918,2260.18331198584
0.279508148977362,2260.19331198584
0.274407148727122,2260.20331198584
0.269203951116099,2260.21331198584
0.26464787733558,2260.22331198584
0.260189112293207,2260.23331198584
0.25595742463634,2260.24331198584
0.251701869378016,2260.25331198584
0.246580605492874,2260.26331198584
0.241990892529816,2260.27331198584
0.236682228751019,2260.28331198584
0.23101863011116,2260.29331198584
0.225257736561981,2260.30331198584
0.219632776380588,2260.31331198584
0.214057440822381,2260.32331198584
0.208582341541762,2260.33331198584
0.2036048271742,2260.34331198584
0.199489542245812,2260.35331198584
0.195855713637878,2260.36331198584
0.194164247422642,2260.37331198584
0.195112547848749,2260.38331198584
0.198890689685563,2260.39331198584
0.205960133215169,2260.40331198584
0.215772876054479,2260.41331198584
0.228077300569232,2260.42331198584
0.242638450056384,2260.43331198584
0.258216694197648,2260.44331198584
0.274579435754065,2260.45331198584
0.290718415188383,2260.46331198584
0.305883106855927,2260.47331198584
0.319146541080269,2260.48331198584
0.330324864097521,2260.49331198584
0.339209223234076,2260.50331198584
0.346376659454824,2260.51331198584
0.351353951610668,2260.52331198584
0.355674401182017,2260.53331198584
0.359199054688404,2260.54331198584
0.361921675324838,2260.55331198584
0.364634997801373,2260.56331198584
0.366751362020652,2260.57331198584
0.368852683439217,2260.58331198584
0.371207637674342,2260.59331198584
0.373393409009937,2260.60331198584
0.375688970494861,2260.61331198584
0.377469730804331,2260.62331198584
0.378577468761509,2260.63331198584
0.379167533044455,2260.64331198584
0.378992539850166,2260.65331198584
0.378587259608134,2260.66331198584
0.377722640963203,2260.67331198584
0.376361886038573,2260.68331198584
0.375478458571031,2260.69331198584
0.374307401392363,2260.70331198584
0.373718950727404,2260.71331198584
0.373212116777412,2260.72331198584
0.372862383493993,2260.73331198584
0.373364813480015,2260.74331198584
0.373945655646755,2260.75331198584
0.37514134374118,2260.76331198584
0.376347886554363,2260.77331198584
0.376971703092921,2260.78331198584
0.376918294213113,2260.79331198584
0.376358936896897,2260.80331198584
0.374837098298941,2260.81331198584
0.373080157441681,2260.82331198584
0.370990306456864,2260.83331198584
0.368977709315497,2260.84331198584
0.366840768765991,2260.85331198584
0.364173352051529,2260.86331198584
0.361275281511113,2260.87331198584
0.357622849228682,2260.88331198584
0.353432204686797,2260.89331198584
0.348987626554308,2260.90331198584
0.344573023835291,2260.91331198584
0.340067988905945,2260.92331198584
0.336013058204929,2260.93331198584
0.331827522576477,2260.94331198584
0.3277246011758,2260.95331198584
0.323816102257155,2260.96331198584
0.319803413616691,2260.97331198584
0.315119300556488,2260.98331198584
0.309803056024257,2260.99331198584
0.304880033621515,2261.00331198584
0.299786797366501,2261.01331198584
0.294626871033138,2261.02331198584
0.289919956249977,2261.03331198584
0.285343018429506,2261.04331198584
0.280335617002116,2261.05331198584
0.275288222829377,2261.06331198584
0.270186291900348,2261.07331198584
0.265296379050127,2261.08331198584
0.260087024506482,2261.09331198584
0.254402513063868,2261.10331198584
0.248412242823381,2261.11331198584
0.242492598376154,2261.12331198584
0.236743707906879,2261.13331198584
0.230336575529772,2261.14331198584
0.224857447629646,2261.15331198584
0.219202911786962,2261.16331198584
0.213750450533032,2261.17331198584
0.208232649659219,2261.18331198584
0.202641159533409,2261.19331198584
0.197550954542365,2261.20331198584
0.193826595411283,2261.21331198584
0.192129367227594,2261.22331198584
0.194013095951581,2261.23331198584
0.199975863442305,2261.24331198584
0.209960367756942,2261.25331198584
0.222889677980755,2261.26331198584
0.239230420163304,2261.27331198584
0.25613693971496,2261.28331198584
0.273716564555759,2261.29331198584
0.291170885233864,2261.30331198584
0.307034384064894,2261.31331198584
0.321740566297514,2261.32331198584
0.334499706632224,2261.33331198584
0.345277571074134,2261.34331198584
0.354467971221432,2261.35331198584
0.361977717419199,2261.36331198584
0.367844210679249,2261.37331198584
0.372736754218139,2261.38331198584
0.37712103266667,2261.39331198584
0.381004596833243,2261.40331198584
0.384340928401481,2261.41331198584
0.387273849107243,2261.42331198584
0.390525124715773,2261.43331198584
0.392653029943341,2261.44331198584
0.394567890548649,2261.45331198584
0.396314126183695,2261.46331198584
0.397612750690661,2261.47331198584
0.39826038067578,2261.48331198584
0.39842353329965,2261.49331198584
0.398104075267688,2261.50331198584
0.397003787441702,2261.51331198584
0.396281678018294,2261.52331198584
0.395478622339427,2261.53331198584
0.39462679491232,2261.54331198584
0.394409546911187,2261.55331198584
0.393942898976725,2261.56331198584
0.393809898050668,2261.57331198584
0.393857299871245,2261.58331198584
0.394360321418447,2261.59331198584
0.394696335164765,2261.60331198584
0.394864458115158,2261.61331198584
0.394520868913069,2261.62331198584
0.393967171391243,2261.63331198584
0.393339764727065,2261.64331198584
0.392393784080897,2261.65331198584
0.390945425506445,2261.66331198584
0.3890563290885,2261.67331198584
0.386598481610234,2261.68331198584
0.383811441636657,2261.69331198584
0.380275974936729,2261.70331198584
0.376910740461673,2261.71331198584
0.372861025557241,2261.72331198584
0.368854742285803,2261.73331198584
0.365044480329479,2261.74331198584
0.360614922871606,2261.75331198584
0.35615279865374,2261.76331198584
0.351276747102621,2261.77331198584
0.346368657922846,2261.78331198584
0.341037446382032,2261.79331198584
0.336302656400292,2261.80331198584
0.33105001141956,2261.81331198584
0.325854554067089,2261.82331198584
0.320923725287886,2261.83331198584
0.315569683587142,2261.84331198584
0.309724756761531,2261.85331198584
0.303858879752764,2261.86331198584
0.29756318197692,2261.87331198584
0.291435207710311,2261.88331198584
0.284965654008171,2261.89331198584
0.278614050094256,2261.90331198584
0.27253200242699,2261.91331198584
0.265883710386808,2261.92331198584
0.259126446366526,2261.93331198584
0.252481213412028,2261.94331198584
0.246135964613081,2261.95331198584
0.239554657224573,2261.96331198584
0.232843407193362,2261.97331198584
0.226541746689885,2261.98331198584
0.220571967968123,2261.99331198584
0.214212093280096,2262.00331198584
0.207898872990415,2262.01331198584
0.201992552527447,2262.02331198584
0.196422750999999,2262.03331198584
0.19293058659532,2262.04331198584
0.191233933495251,2262.05331198584
0.19273888409769,2262.06331198584
0.197810995061549,2262.07331198584
0.205874286314693,2262.08331198584
0.217240801661895,2262.09331198584
0.230890528214417,2262.10331198584
0.246013450469491,2262.11331198584
0.261912541070978,2262.12331198584
0.277472563957614,2262.13331198584
0.292697019728009,2262.14331198584
0.305838567803747,2262.15331198584
0.31753395406547,2262.16331198584
0.32645015775155,2262.17331198584
0.333790495865531,2262.18331198584
0.339654721633293,2262.19331198584
0.34406306391618,2262.20331198584
0.347448252286494,2262.21331198584
0.349756185046228,2262.22331198584
0.351326434626118,2262.23331198584
0.352812467836754,2262.24331198584
0.353919469227852,2262.25331198584
0.354700985660599,2262.26331198584
0.355334177022093,2262.27331198584
0.355012506010863,2262.28331198584
0.353822520301997,2262.29331198584
0.352282143811152,2262.30331198584
0.350400576929914,2262.31331198584
0.348355419381679,2262.32331198584
0.345638379682704,2262.33331198584
0.34306894946331,2262.34331198584
0.34050094845559,2262.35331198584
0.337911626551826,2262.36331198584
0.335276486884977,2262.37331198584
0.333200469205145,2262.38331198584
0.331606606457629,2262.39331198584
0.33083699498604,2262.40331198584
0.330105804475141,2262.41331198584
0.330250286934731,2262.42331198584
0.329881607283148,2262.43331198584
0.329562490367781,2262.44331198584
0.329196069552253,2262.45331198584
0.328605036545784,2262.46331198584
0.326964447364729,2262.47331198584
0.325058920761093,2262.48331198584
0.322927282995672,2262.49331198584
0.320413803494792,2262.50331198584
0.316793790442567,2262.51331198584
0.312517862643827,2262.52331198584
0.307967072653503,2262.53331198584
0.303045095075337,2262.54331198584
0.298578348395362,2262.55331198584
0.29434853528781,2262.56331198584
0.290276699974003,2262.57331198584
0.286434438348559,2262.58331198584
0.282374522050702,2262.59331198584
0.277788557447482,2262.60331198584
0.27275878258092,2262.61331198584
0.26766071026374,2262.62331198584
0.261686062836131,2262.63331198584
0.255808832253726,2262.64331198584
0.24938623757618,2262.65331198584
0.243115706487363,2262.66331198584
0.237519866886229,2262.67331198584
0.231732677047745,2262.68331198584
0.22638437941611,2262.69331198584
0.221350501316,2262.70331198584
0.215674756098826,2262.71331198584
0.209713997638062,2262.72331198584
0.20388267191222,2262.73331198584
0.197491216534444,2262.74331198584
0.191060948292751,2262.75331198584
0.185046244546392,2262.76331198584
0.17847353988921,2262.77331198584
0.171846166513134,2262.78331198584
0.16512483652793,2262.79331198584
0.159071350320666,2262.80331198584
0.153129424375747,2262.81331198584
0.148176696684561,2262.82331198584
0.144544155084927,2262.83331198584
0.142453152837297,2262.84331198584
0.143212852792901,2262.85331198584
0.147146924973497,2262.86331198584
0.154341066372632,2262.87331198584
0.165437196422689,2262.88331198584
0.17996583249581,2262.89331198584
0.196841137018043,2262.90331198584
0.215922036159165,2262.91331198584
0.23566662737658,2262.92331198584
0.25499805097781,2262.93331198584
0.273469446787593,2262.94331198584
0.289655551897567,2262.95331198584
0.304334309507253,2262.96331198584
0.31637633706597,2262.97331198584
0.326640420527875,2262.98331198584
0.334729676621602,2262.99331198584
0.341105033020692,2263.00331198584
0.346525370503688,2263.01331198584
0.351257262825834,2263.02331198584
0.355681949117318,2263.03331198584
0.359434658038159,2263.04331198584
0.362870131351723,2263.05331198584
0.36643133573021,2263.06331198584
0.369335508663077,2263.07331198584
0.371853076600874,2263.08331198584
0.373728099693471,2263.09331198584
0.374562809415966,2263.10331198584
0.374774129291197,2263.11331198584
0.374330152843785,2263.12331198584
0.372749149297575,2263.13331198584
0.370950300337196,2263.14331198584
0.369108468492225,2263.15331198584
0.368102058167369,2263.16331198584
0.367344204425091,2263.17331198584
0.366833973204066,2263.18331198584
0.366519889779706,2263.19331198584
0.366828575448473,2263.20331198584
0.36765714149528,2263.21331198584
0.369078151539094,2263.22331198584
0.370773309363806,2263.23331198584
0.37266412647091,2263.24331198584
0.373870558124413,2263.25331198584
0.374352859207624,2263.26331198584
0.373835080674564,2263.27331198584
0.372410336383044,2263.28331198584
0.370555924287594,2263.29331198584
0.368308275993691,2263.30331198584
0.365970324157084,2263.31331198584
0.363300198960863,2263.32331198584
0.36072098039508,2263.33331198584
0.357646177857268,2263.34331198584
0.353699927384934,2263.35331198584
0.349509941625039,2263.36331198584
0.345302783223066,2263.37331198584
0.340942586770613,2263.38331198584
0.336156292542834,2263.39331198584
0.331632827555994,2263.40331198584
0.326345430731959,2263.41331198584
0.321507847236458,2263.42331198584
0.317170771773627,2263.43331198584
0.312344614922341,2263.44331198584
0.308143037709367,2263.45331198584
0.303510730462369,2263.46331198584
0.298065072266122,2263.47331198584
0.292396622064352,2263.48331198584
0.286207450105103,2263.49331198584
0.279668834041437,2263.50331198584
0.273316664662542,2263.51331198584
0.267288080143514,2263.52331198584
0.261313956013556,2263.53331198584
0.255013923210885,2263.54331198584
0.248459908341465,2263.55331198584
0.242013033763427,2263.56331198584
0.235245445090438,2263.57331198584
0.22884686615419,2263.58331198584
0.222180625127858,2263.59331198584
0.215201997481668,2263.60331198584
0.208326445909616,2263.61331198584
0.200853441521091,2263.62331198584
0.193377621088015,2263.63331198584
0.186326287259482,2263.64331198584
0.179820779398057,2263.65331198584
0.174111061563878,2263.66331198584
0.171564177876222,2263.67331198584
0.172866103889041,2263.68331198584
0.178826824634053,2263.69331198584
0.188793227459582,2263.70331198584
0.202859181946457,2263.71331198584
0.220692373762026,2263.72331198584
0.241303107444328,2263.73331198584
0.263200687337434,2263.74331198584
0.285739307591387,2263.75331198584
0.308178131950287,2263.76331198584
0.329384537961298,2263.77331198584
0.348943482699013,2263.78331198584
0.366254073427286,2263.79331198584
0.380765253474352,2263.80331198584
0.39330306665023,2263.81331198584
0.403523830247168,2263.82331198584
0.411981252468193,2263.83331198584
0.419370135764016,2263.84331198584
0.425457123424906,2263.85331198584
0.430667480156846,2263.86331198584
0.434733680078678,2263.87331198584
0.438196337624832,2263.88331198584
0.441215866614761,2263.89331198584
0.443704972457791,2263.90331198584
0.446150760553188,2263.91331198584
0.448094367056402,2263.92331198584
0.449875487077301,2263.93331198584
0.450864531117031,2263.94331198584
0.451653341425403,2263.95331198584
0.451229645868953,2263.96331198584
0.449748312781424,2263.97331198584
0.448176949236155,2263.98331198584
0.44635906870846,2263.99331198584
0.444266504479209,2264.00331198584
0.442449812278408,2264.01331198584
0.440976533205442,2264.02331198584
0.440364955177492,2264.03331198584
0.44038242227915,2264.04331198584
0.441018285506779,2264.05331198584
0.44141631210152,2264.06331198584
0.442280921683705,2264.07331198584
0.442491171886696,2264.08331198584
0.442237348065843,2264.09331198584
0.441283199168305,2264.10331198584
0.439219598926725,2264.11331198584
0.436306243649292,2264.12331198584
0.433533616679988,2264.13331198584
0.43012008279476,2264.14331198584
0.426603587878555,2264.15331198584
0.422704827828192,2264.16331198584
0.41844429142931,2264.17331198584
0.414737106583211,2264.18331198584
0.410507031720737,2264.19331198584
0.406196743628493,2264.20331198584
0.401436052132084,2264.21331198584
0.395996672557021,2264.22331198584
0.389486905184926,2264.23331198584
0.382662563277466,2264.24331198584
0.375589448255512,2264.25331198584
0.36872778417149,2264.26331198584
0.362276574553816,2264.27331198584
0.35648606902719,2264.28331198584
0.350819383933586,2264.29331198584
0.344941957765196,2264.30331198584
0.338818585086123,2264.31331198584
0.33221930984345,2264.32331198584
0.325255176797279,2264.33331198584
0.318094021797266,2264.34331198584
0.310872003063843,2264.35331198584
0.303144483554715,2264.36331198584
0.295830223012538,2264.37331198584
0.288120683111292,2264.38331198584
0.280535912446864,2264.39331198584
0.273210920049965,2264.40331198584
0.265435206138732,2264.41331198584
0.258253183761228,2264.42331198584
0.250842434439336,2264.43331198584
0.242768322492195,2264.44331198584
0.234131229901538,2264.45331198584
0.224781408892798,2264.46331198584
0.2160448334083,2264.47331198584
0.207726399105989,2264.48331198584
0.200272090314572,2264.49331198584
0.194520257550491,2264.50331198584
0.192058105120704,2264.51331198584
0.193361623425898,2264.52331198584
0.199821750410434,2264.53331198584
0.212015036453716,2264.54331198584
0.228261300745683,2264.55331198584
0.249147191489743,2264.56331198584
0.272246448374955,2264.57331198584
0.297532816536681,2264.58331198584
0.323304022961692,2264.59331198584
0.348282107744779,2264.60331198584
0.371380039944946,2264.61331198584
0.391793596758093,2264.62331198584
0.409502605492355,2264.63331198584
0.424580855941991,2264.64331198584
0.43654876704611,2264.65331198584
0.446642579351449,2264.66331198584
0.454583681469743,2264.67331198584
0.460073541717801,2264.68331198584
0.464608875982557,2264.69331198584
0.468190287060669,2264.70331198584
0.471136870493387,2264.71331198584
0.473588398912928,2264.72331198584
0.474888391959674,2264.73331198584
0.476425051571708,2264.74331198584
0.476850944280333,2264.75331198584
0.476973073747432,2264.76331198584
0.476701997400788,2264.77331198584
0.475573430619636,2264.78331198584
0.472932976042482,2264.79331198584
0.469255597945883,2264.80331198584
0.465110576238341,2264.81331198584
0.460678163772063,2264.82331198584
0.457225740488463,2264.83331198584
0.454195917821362,2264.84331198584
0.451740738817485,2264.85331198584
0.449652181303141,2264.86331198584
0.447843943831662,2264.87331198584
0.446213419764088,2264.88331198584
0.444300621327789,2264.89331198584
0.442470357879124,2264.90331198584
0.440255887033797,2264.91331198584
0.437106094134738,2264.92331198584
0.433774275998096,2264.93331198584
0.430292189063922,2264.94331198584
0.425853849013561,2264.95331198584
0.42167158265844,2264.96331198584
0.41664149727875,2264.97331198584
0.410679720702161,2264.98331198584
0.404352755919012,2264.99331198584
0.398378662047713,2265.00331198584
0.392197924426721,2265.01331198584
0.385102453048362,2265.02331198584
0.378005392444024,2265.03331198584
0.370903906448993,2265.04331198584
0.36331197009163,2265.05331198584
0.355308543218948,2265.06331198584
0.346522725520178,2265.07331198584
0.337569627247133,2265.08331198584
0.328575305911174,2265.09331198584
0.31967619235897,2265.10331198584
0.31056973019621,2265.11331198584
0.301429056962397,2265.12331198584
0.292253907868683,2265.13331198584
0.283081575837085,2265.14331198584
0.274148371936437,2265.15331198584
0.265247274353288,2265.16331198584
0.25635587184096,2265.17331198584
0.247075445552787,2265.18331198584
0.237078273005374,2265.19331198584
0.226513453517171,2265.20331198584
0.21615724476486,2265.21331198584
0.206394824455975,2265.22331198584
0.196619278689369,2265.23331198584
0.187055689428894,2265.24331198584
0.177495709706429,2265.25331198584
0.167971190206251,2265.26331198584
0.158265576069113,2265.27331198584
0.14887771172452,2265.28331198584
0.140133630107452,2265.29331198584
0.132872429122405,2265.30331198584
0.128356271333493,2265.31331198584
0.127112972899795,2265.32331198584
0.130387533897126,2265.33331198584
0.137715377568984,2265.34331198584
0.149968095833651,2265.35331198584
0.165991146900577,2265.36331198584
0.185156641476214,2265.37331198584
0.206632621438645,2265.38331198584
0.229173914102009,2265.39331198584
0.25185202732549,2265.40331198584
0.272747025327425,2265.41331198584
0.291597862905024,2265.42331198584
0.307516320028381,2265.43331198584
0.320765687383572,2265.44331198584
0.331110339480888,2265.45331198584
0.339539110818198,2265.46331198584
0.345789355189764,2265.47331198584
0.350439867966734,2265.48331198584
0.353371201002737,2265.49331198584
0.355045111075953,2265.50331198584
0.356321501741469,2265.51331198584
0.356998395589526,2265.52331198584
0.356903766417934,2265.53331198584
0.35586058257136,2265.54331198584
0.353382713350668,2265.55331198584
0.349838244826903,2265.56331198584
0.345408011439841,2265.57331198584
0.340529564262674,2265.58331198584
0.334980341189073,2265.59331198584
0.329088312852179,2265.60331198584
0.323089985252634,2265.61331198584
0.317792278789771,2265.62331198584
0.313182284650305,2265.63331198584
0.308889180630969,2265.64331198584
0.305675328405904,2265.65331198584
0.303181857473601,2265.66331198584
0.301185036225725,2265.67331198584
0.300039089545678,2265.68331198584
0.29914932283052,2265.69331198584
0.297842184926784,2265.70331198584
0.296368063295717,2265.71331198584
0.294762067140026,2265.72331198584
0.292989210128038,2265.73331198584
0.290829423800204,2265.74331198584
0.288290133724379,2265.75331198584
0.284768477117193,2265.76331198584
0.280448687025263,2265.77331198584
0.275398136839295,2265.78331198584
0.270067779429454,2265.79331198584
0.264868332404376,2265.80331198584
0.260009608761601,2265.81331198584
0.254715145024494,2265.82331198584
0.248647139916205,2265.83331198584
0.241427641006472,2265.84331198584
0.233767496362563,2265.85331198584
0.22569024697124,2265.86331198584
0.217353721810893,2265.87331198584
0.209162011094876,2265.88331198584
0.201472945767152,2265.89331198584
0.19422137048348,2265.90331198584
0.186977504083952,2265.91331198584
0.179824013876316,2265.92331198584
0.172120712762362,2265.93331198584
0.164572211314622,2265.94331198584
0.156979296680263,2265.95331198584
0.148857104960147,2265.96331198584
0.141114923762838,2265.97331198584
0.133614392540998,2265.98331198584
0.12649514114805,2265.99331198584
0.119181580368045,2266.00331198584
0.112110062714946,2266.01331198584
0.105215277758695,2266.02331198584
0.0977213278457688,2266.03331198584
0.0900215347599215,2266.04331198584
0.0822285321719622,2266.05331198584
0.0744537267737835,2266.06331198584
0.0666184839134746,2266.07331198584
0.0604214660384858,2266.08331198584
0.0565211982810653,2266.09331198584
0.056224220999922,2266.10331198584
0.0598420152302844,2266.11331198584
0.0677961395152872,2266.12331198584
0.079794727327092,2266.13331198584
0.0956628357329767,2266.14331198584
0.114598155824555,2266.15331198584
0.135839881151938,2266.16331198584
0.158263719598432,2266.17331198584
0.181277759583383,2266.18331198584
0.203991109569965,2266.19331198584
0.225463496425425,2266.20331198584
0.244735153866688,2266.21331198584
0.260200735139967,2266.22331198584
0.272710560535659,2266.23331198584
0.282190024533886,2266.24331198584
0.289316710715718,2266.25331198584
0.295119445330944,2266.26331198584
0.300198800019785,2266.27331198584
0.304774322610392,2266.28331198584
0.308286768292583,2266.29331198584
0.311393033719396,2266.30331198584
0.31407189265891,2266.31331198584
0.315866717835727,2266.32331198584
0.317368969120791,2266.33331198584
0.318199127577451,2266.34331198584
0.318379136052747,2266.35331198584
0.317607091720572,2266.36331198584
0.316166197701196,2266.37331198584
0.313538625655658,2266.38331198584
0.310628164623035,2266.39331198584
0.307544196865241,2266.40331198584
0.304073146328623,2266.41331198584
0.301019448560493,2266.42331198584
0.297984769157207,2266.43331198584
0.295685805559408,2266.44331198584
0.294277539039039,2266.45331198584
0.293761243843161,2266.46331198584
0.293127052043458,2266.47331198584
0.292564106033085,2266.48331198584
0.291800406505537,2266.49331198584
0.290677546512232,2266.50331198584
0.289126874867831,2266.51331198584
0.287057564728729,2266.52331198584
0.284737330045935,2266.53331198584
0.282173251750665,2266.54331198584
0.278831932019238,2266.55331198584
0.274037882383794,2266.56331198584
0.268885304946816,2266.57331198584
0.263416534160424,2266.58331198584
0.257349006135203,2266.59331198584
0.251353394927044,2266.60331198584
0.245042375004316,2266.61331198584
0.239079722417993,2266.62331198584
0.232946741384477,2266.63331198584
0.226233248279456,2266.64331198584
0.219043074627771,2266.65331198584
0.211661156153842,2266.66331198584
0.203688706031412,2266.67331198584
0.196253824243716,2266.68331198584
0.189318916058593,2266.69331198584
0.182601461246497,2266.70331198584
0.175635363816192,2266.71331198584
0.168711000405721,2266.72331198584
0.161294940380972,2266.73331198584
0.153805252276523,2266.74331198584
0.146012591494649,2266.75331198584
0.138190108901974,2266.76331198584
0.13034378473716,2266.77331198584
0.122674875977306,2266.78331198584
0.115429036867369,2266.79331198584
0.108025572667954,2266.80331198584
0.10095286287467,2266.81331198584
0.092910286844133,2266.82331198584
0.0848142689441039,2266.83331198584
0.0765063522069795,2266.84331198584
0.0678580182748911,2266.85331198584
0.0592312352822203,2266.86331198584
0.0507936769638048,2266.87331198584
0.0422859059691827,2266.88331198584
0.0340971334026847,2266.89331198584
0.0274221539676642,2266.90331198584
0.0227565925037649,2266.91331198584
0.0205536351777422,2266.92331198584
0.0220816561300484,2266.93331198584
0.0276795706505673,2266.94331198584
0.0377643582364765,2266.95331198584
0.0514778829885684,2266.96331198584
0.0684430439766943,2266.97331198584
0.0870863411257381,2266.98331198584
0.106211005917874,2266.99331198584
0.125273239736706,2267.00331198584
0.142453879755002,2267.01331198584
0.157467306998942,2267.02331198584
0.16990841300389,2267.03331198584
0.180153678688867,2267.04331198584
0.188994268061991,2267.05331198584
0.195594934146657,2267.06331198584
0.201050860856189,2267.07331198584
0.204770648368291,2267.08331198584
0.207558020918647,2267.09331198584
0.209984569155809,2267.10331198584
0.211539797217659,2267.11331198584
0.212808238504674,2267.12331198584
0.214201596761229,2267.13331198584
0.215749418090707,2267.14331198584
0.216571042883207,2267.15331198584
0.216325028944468,2267.16331198584
0.215395652873299,2267.17331198584
0.213843731398082,2267.18331198584
0.211600745344533,2267.19331198584
0.208407654717013,2267.20331198584
0.204468631443948,2267.21331198584
0.200007962599024,2267.22331198584
0.195496025214892,2267.23331198584
0.191037883156568,2267.24331198584
0.187687426259331,2267.25331198584
0.184557414600979,2267.26331198584
0.18180079538212,2267.27331198584
0.179084490021568,2267.28331198584
0.176411785237842,2267.29331198584
0.173342582147236,2267.30331198584
0.170847061232785,2267.31331198584
0.168329079075297,2267.32331198584
0.165616543065042,2267.33331198584
0.162612939365277,2267.34331198584
0.159371864190422,2267.35331198584
0.155241351982681,2267.36331198584
0.150240802389683,2267.37331198584
0.144761228788011,2267.38331198584
0.139304407981558,2267.39331198584
0.133679887218759,2267.40331198584
0.127499040701695,2267.41331198584
0.121049836333319,2267.42331198584
0.114254775390729,2267.43331198584
0.107505648991437,2267.44331198584
0.0999143141598532,2267.45331198584
0.0924994783171717,2267.46331198584
0.0850733033722839,2267.47331198584
0.0776592376149161,2267.48331198584
0.0704189293163558,2267.49331198584
0.0629172485587473,2267.50331198584
0.0560433486240625,2267.51331198584
0.04892007786862,2267.52331198584
0.0417355948460171,2267.53331198584
0.0337966559229269,2267.54331198584
0.0254774221627503,2267.55331198584
0.0167123331592547,2267.56331198584
0.00781679164014507,2267.57331198584
-0.000444431220454474,2267.58331198584
-0.00837417025745837,2267.59331198584
-0.0157794562406153,2267.60331198584
-0.023215998466649,2267.61331198584
-0.0307396800626789,2267.62331198584
-0.0384562162199853,2267.63331198584
-0.0466941899485164,2267.64331198584
-0.0550816023518404,2267.65331198584
-0.0633148892691178,2267.66331198584
-0.0710050965898428,2267.67331198584
-0.0790393464170904,2267.68331198584
-0.0865432984186158,2267.69331198584
-0.0937215569810134,2267.70331198584
-0.101273342835872,2267.71331198584
-0.108650379194271,2267.72331198584
-0.115755423383334,2267.73331198584
-0.121445693021697,2267.74331198584
-0.125123124652848,2267.75331198584
-0.125753569323751,2267.76331198584
-0.123636671141538,2267.77331198584
-0.118055882349549,2267.78331198584
-0.110215688656291,2267.79331198584
-0.100674188346321,2267.80331198584
-0.0896259892324693,2267.81331198584
-0.0788560464927211,2267.82331198584
-0.0689273776782952,2267.83331198584
-0.0604564254727046,2267.84331198584
-0.0538408641944862,2267.85331198584
-0.0491808281453599,2267.86331198584
-0.0462707787796274,2267.87331198584
-0.0446836480870567,2267.88331198584
-0.0450142990186197,2267.89331198584
-0.0461387018947128,2267.90331198584
-0.0483506860506802,2267.91331198584
-0.0509080351773442,2267.92331198584
-0.0535367549242605,2267.93331198584
-0.0559059378212578,2267.94331198584
-0.0580476736213972,2267.95331198584
-0.0606273763150249,2267.96331198584
-0.0628032753678589,2267.97331198584
-0.065372524059432,2267.98331198584
-0.0679859292614244,2267.99331198584
-0.0711334671886096,2268.00331198584
-0.0751019069048678,2268.01331198584
-0.0792036996740161,2268.02331198584
-0.0839570318416729,2268.03331198584
-0.0887480728643418,2268.04331198584
-0.0943805124012364,2268.05331198584
-0.0994748275963342,2268.06331198584
-0.104343955127567,2268.07331198584
-0.108597511170408,2268.08331198584
-0.112307880336005,2268.09331198584
-0.115772421593142,2268.10331198584
-0.118997201291662,2268.11331198584
-0.121997150790013,2268.12331198584
-0.12473412074157,2268.13331198584
-0.127951760210937,2268.14331198584
-0.13114898874512,2268.15331198584
-0.134054634868898,2268.16331198584
-0.137103557339897,2268.17331198584
-0.1403664634445,2268.18331198584
-0.144389704224974,2268.19331198584
-0.148976568710628,2268.20331198584
-0.15413324106461,2268.21331198584
-0.159532580452625,2268.22331198584
-0.164901730321578,2268.23331198584
-0.169941482987582,2268.24331198584
-0.174703689664466,2268.25331198584
-0.179744523761253,2268.26331198584
-0.185230493092436,2268.27331198584
-0.191335546718999,2268.28331198584
-0.197282624563232,2268.29331198584
-0.203165740961721,2268.30331198584
-0.209380079964779,2268.31331198584
-0.215849911144712,2268.32331198584
-0.221993329960812,2268.33331198584
-0.228523121783608,2268.34331198584
-0.234812580793475,2268.35331198584
-0.240600229013233,2268.36331198584
-0.246314189222527,2268.37331198584
-0.251989981358359,2268.38331198584
-0.257624360533902,2268.39331198584
-0.263980647635606,2268.40331198584
-0.270177085640795,2268.41331198584
-0.276400113701953,2268.42331198584
-0.282721514535175,2268.43331198584
-0.288413874913329,2268.44331198584
-0.293925312849288,2268.45331198584
-0.29933206518408,2268.46331198584
-0.304968981660384,2268.47331198584
-0.31083894074846,2268.48331198584
-0.317212278696669,2268.49331198584
-0.323402175935503,2268.50331198584
-0.329651619422585,2268.51331198584
-0.335630348138693,2268.52331198584
-0.341310904352481,2268.53331198584
-0.346302076831469,2268.54331198584
-0.350317809997123,2268.55331198584
-0.352478738637558,2268.56331198584
-0.352485786333743,2268.57331198584
-0.350420546576682,2268.58331198584
-0.346313893290033,2268.59331198584
-0.340604722727885,2268.60331198584
-0.333737649912096,2268.61331198584
-0.327212157954057,2268.62331198584
-0.321256463949652,2268.63331198584
-0.316340987491448,2268.64331198584
-0.312574899512963,2268.65331198584
-0.310266411110083,2268.66331198584
-0.308887330042257,2268.67331198584
-0.308398592355192,2268.68331198584
-0.309377829512651,2268.69331198584
-0.310871792425773,2268.70331198584
-0.31299988040925,2268.71331198584
-0.314920230254627,2268.72331198584
-0.316840317930866,2268.73331198584
-0.319056161551327,2268.74331198584
-0.321767359755555,2268.75331198584
-0.324469778436177,2268.76331198584
-0.327217008274847,2268.77331198584
-0.330062623019949,2268.78331198584
-0.332950766914945,2268.79331198584
-0.335769092474118,2268.80331198584
-0.338659315183131,2268.81331198584
-0.342091936998028,2268.82331198584
-0.345653966274258,2268.83331198584
-0.349699383820117,2268.84331198584
-0.354614924890452,2268.85331198584
-0.359303634422156,2268.86331198584
-0.364050446120469,2268.87331198584
-0.367888715989945,2268.88331198584
-0.370951425978927,2268.89331198584
-0.373557368538674,2268.90331198584
-0.375655209039635,2268.91331198584
-0.377375099814121,2268.92331198584
-0.378455815387498,2268.93331198584
-0.379042780144293,2268.94331198584
-0.379917992900965,2268.95331198584
-0.381281483085077,2268.96331198584
-0.38308577045432,2268.97331198584
-0.385626417567267,2268.98331198584
-0.388132159401504,2268.99331198584
-0.391190943851855,2269.00331198584
-0.394179247692259,2269.01331198584
-0.398040116842413,2269.02331198584
-0.401687058906572,2269.03331198584
-0.405723479681305,2269.04331198584
-0.409803888650198,2269.05331198584
-0.413713937959335,2269.06331198584
-0.417793912708714,2269.07331198584
-0.421850429671166,2269.08331198584
-0.425674729247843,2269.09331198584
-0.42918261745344,2269.10331198584
-0.432608727880249,2269.11331198584
-0.435756814353659,2269.12331198584
-0.438962424266962,2269.13331198584
-0.442425221241577,2269.14331198584
-0.445815828780703,2269.15331198584
-0.449274412870638,2269.16331198584
-0.452565935196484,2269.17331198584
-0.455314251183749,2269.18331198584
-0.458513761527428,2269.19331198584
-0.462203006963905,2269.20331198584
-0.46574083884683,2269.21331198584
-0.469098865079387,2269.22331198584
-0.472278269547181,2269.23331198584
-0.475973950588912,2269.24331198584
-0.480096413960417,2269.25331198584
-0.484527402370769,2269.26331198584
-0.488934679882646,2269.27331198584
-0.493117116568346,2269.28331198584
-0.496794747796464,2269.29331198584
-0.50032860317099,2269.30331198584
-0.502928284098843,2269.31331198584
-0.505110447292215,2269.32331198584
-0.506516772230946,2269.33331198584
-0.506672760504335,2269.34331198584
-0.505575778065247,2269.35331198584
-0.502226341149388,2269.36331198584
-0.498077146736991,2269.37331198584
-0.492392227456289,2269.38331198584
-0.485977594965521,2269.39331198584
-0.479452840815696,2269.40331198584
-0.473167786281988,2269.41331198584
-0.467417515142791,2269.42331198584
-0.462888818945241,2269.43331198584
-0.459017807624941,2269.44331198584
-0.45632634453903,2269.45331198584
-0.454362207626765,2269.46331198584
-0.453641691349532,2269.47331198584
-0.453794088672914,2269.48331198584
-0.454282028282519,2269.49331198584
-0.455720716856636,2269.50331198584
-0.456837807279218,2269.51331198584
-0.458080076696261,2269.52331198584
-0.459067984689183,2269.53331198584
-0.460001283296451,2269.54331198584
-0.460763961564358,2269.55331198584
-0.461495832246351,2269.56331198584
-0.4625692136346,2269.57331198584
-0.463670088981009,2269.58331198584
-0.464252970249358,2269.59331198584
-0.465142144447813,2269.60331198584
-0.466228907567744,2269.61331198584
-0.467632308433627,2269.62331198584
-0.469484487154195,2269.63331198584
-0.47079874857668,2269.64331198584
-0.471966730174649,2269.65331198584
-0.472755388511934,2269.66331198584
-0.473606690184574,2269.67331198584
-0.474204620248366,2269.68331198584
-0.475325691999318,2269.69331198584
-0.47598040087232,2269.70331198584
-0.475960351206393,2269.71331198584
-0.476145972901866,2269.72331198584
-0.475438255131724,2269.73331198584
-0.475100462984143,2269.74331198584
-0.475467444266511,2269.75331198584
-0.475597947584318,2269.76331198584
-0.475971276840455,2269.77331198584
-0.477157973529456,2269.78331198584
-0.478097505231801,2269.79331198584
-0.479350833578836,2269.80331198584
-0.481219109431454,2269.81331198584
-0.482764812035133,2269.82331198584
-0.484687165489293,2269.83331198584
-0.486586271533802,2269.84331198584
-0.488573418126026,2269.85331198584
-0.490226099771407,2269.86331198584
-0.491509635494271,2269.87331198584
-0.492495778109518,2269.88331198584
-0.493591836645435,2269.89331198584
-0.495383594561848,2269.90331198584
-0.496766433494664,2269.91331198584
-0.49897708151946,2269.92331198584
-0.500923829757066,2269.93331198584
-0.503198796468083,2269.94331198584
-0.505128276856735,2269.95331198584
-0.507061650693884,2269.96331198584
-0.508999696786259,2269.97331198584
-0.510248646866015,2269.98331198584
-0.51145190711232,2269.99331198584
-0.512933306266349,2270.00331198584
-0.514480387718834,2270.01331198584
-0.516280278751712,2270.02331198584
-0.518728048213859,2270.03331198584
-0.520844425243887,2270.04331198584
-0.523346318035646,2270.05331198584
-0.525523040212637,2270.06331198584
-0.528559525839763,2270.07331198584
-0.530955951547217,2270.08331198584
-0.533455239819736,2270.09331198584
-0.535961058802543,2270.10331198584
-0.537792226548689,2270.11331198584
-0.539970046898022,2270.12331198584
-0.541366108360899,2270.13331198584
-0.542827758872671,2270.14331198584
-0.543203961466061,2270.15331198584
-0.541671194771792,2270.16331198584
-0.538446665542712,2270.17331198584
-0.533144995668569,2270.18331198584
-0.526328470721123,2270.19331198584
-0.518590537427487,2270.20331198584
-0.510734800638698,2270.21331198584
-0.503218331850575,2270.22331198584
-0.496378908198382,2270.23331198584
-0.490732655709604,2270.24331198584
-0.48542718920057,2270.25331198584
-0.481659549984237,2270.26331198584
-0.478633015478582,2270.27331198584
-0.476259929441116,2270.28331198584
-0.474867522626551,2270.29331198584
-0.474243609505883,2270.30331198584
-0.474352220563805,2270.31331198584
-0.474974285918895,2270.32331198584
-0.474982748598344,2270.33331198584
-0.475192462666807,2270.34331198584
-0.474742668645303,2270.35331198584
-0.473996660144689,2270.36331198584
-0.473076236065278,2270.37331198584
-0.472618197144384,2270.38331198584
-0.472135065502116,2270.39331198584
-0.472056273599058,2270.40331198584
-0.472259143826525,2270.41331198584
-0.472598028881832,2270.42331198584
-0.473421933276271,2270.43331198584
-0.474413013977481,2270.44331198584
-0.474404816552482,2270.45331198584
-0.474652085255791,2270.46331198584
-0.474011287397496,2270.47331198584
-0.473281284666089,2270.48331198584
-0.472554741499066,2270.49331198584
-0.471807609819949,2270.50331198584
-0.471211786634543,2270.51331198584
-0.470533605249258,2270.52331198584
-0.469853206674192,2270.53331198584
-0.469214540576009,2270.54331198584
-0.468722694400535,2270.55331198584
-0.468675040119468,2270.56331198584
-0.468098678981628,2270.57331198584
-0.467855756352357,2270.58331198584
-0.467708525005043,2270.59331198584
-0.467706246642056,2270.60331198584
-0.467713846288139,2270.61331198584
-0.467954159894667,2270.62331198584
-0.468074833384179,2270.63331198584
-0.467953844127984,2270.64331198584
-0.468559052491183,2270.65331198584
-0.469065678161164,2270.66331198584
-0.469838357343822,2270.67331198584
-0.470515021120538,2270.68331198584
-0.471340952242019,2270.69331198584
-0.472491418676217,2270.70331198584
-0.473269957448449,2270.71331198584
-0.47407373304346,2270.72331198584
-0.475088181030979,2270.73331198584
-0.476233378989399,2270.74331198584
-0.47779850468465,2270.75331198584
-0.479856532366361,2270.76331198584
-0.481658958331807,2270.77331198584
-0.483320585593704,2270.78331198584
-0.48467692590602,2270.79331198584
-0.485494870577574,2270.80331198584
-0.486394191418369,2270.81331198584
-0.487126156977094,2270.82331198584
-0.488001079490974,2270.83331198584
-0.489608182676082,2270.84331198584
-0.491071097330838,2270.85331198584
-0.492857753535992,2270.86331198584
-0.494402999525871,2270.87331198584
-0.495282791896015,2270.88331198584
-0.495418787784337,2270.89331198584
-0.495738164860347,2270.90331198584
-0.496473180427027,2270.91331198584
-0.497806320998404,2270.92331198584
-0.499178471044839,2270.93331198584
-0.500244496733525,2270.94331198584
-0.500987874661545,2270.95331198584
-0.501819234990916,2270.96331198584
-0.502329013333615,2270.97331198584
-0.502919662136936,2270.98331198584
-0.502797362671785,2270.99331198584
-0.501285604297871,2271.00331198584
-0.498508816699125,2271.01331198584
-0.494311769373959,2271.02331198584
-0.489193278030167,2271.03331198584
-0.482593020759442,2271.04331198584
-0.475145072504979,2271.05331198584
-0.467814269186249,2271.06331198584
-0.460869193930168,2271.07331198584
-0.45473500895736,2271.08331198584
-0.44892863057288,2271.09331198584
-0.444233062222505,2271.10331198584
-0.440240114550521,2271.11331198584
-0.436901481633429,2271.12331198584
-0.434135439513677,2271.13331198584
-0.432018689013711,2271.14331198584
-0.430815102503512,2271.15331198584
-0.429276349580552,2271.16331198584
-0.428725994564415,2271.17331198584
-0.428492495400602,2271.18331198584
-0.428264363898959,2271.19331198584
-0.427658198521893,2271.20331198584
-0.426795771353021,2271.21331198584
-0.42603958014775,2271.22331198584
-0.424844476567765,2271.23331198584
-0.423954440282089,2271.24331198584
-0.423010533251561,2271.25331198584
-0.422584663881641,2271.26331198584
-0.422314084021374,2271.27331198584
-0.422190728872656,2271.28331198584
-0.422293366441071,2271.29331198584
-0.422075599358328,2271.30331198584
-0.421742661078126,2271.31331198584
-0.421270490069974,2271.32331198584
-0.420157091259835,2271.33331198584
-0.419227770408308,2271.34331198584
-0.41889982134947,2271.35331198584
-0.418751616517801,2271.36331198584
-0.417976844127263,2271.37331198584
-0.417035384681675,2271.38331198584
-0.41561014963894,2271.39331198584
-0.414069719870709,2271.40331198584
-0.412606971668069,2271.41331198584
-0.410976177817729,2271.42331198584
-0.409959030751953,2271.43331198584
-0.409105740520446,2271.44331198584
-0.408873792065959,2271.45331198584
-0.408516083344548,2271.46331198584
-0.408360926644503,2271.47331198584
-0.408404082918516,2271.48331198584
-0.40828501811056,2271.49331198584
-0.407436394287782,2271.50331198584
-0.406283757430942,2271.51331198584
-0.405028521321851,2271.52331198584
-0.404017682751916,2271.53331198584
-0.403618634258188,2271.54331198584
-0.403388999911525,2271.55331198584
-0.40309302549484,2271.56331198584
-0.403100393704746,2271.57331198584
-0.402845528997171,2271.58331198584
-0.402925888756693,2271.59331198584
-0.403019375489247,2271.60331198584
-0.403493684987878,2271.61331198584
-0.403996633254541,2271.62331198584
-0.404604505588475,2271.63331198584
-0.405117913622211,2271.64331198584
-0.405821745133647,2271.65331198584
-0.406401398598411,2271.66331198584
-0.406773773527212,2271.67331198584
-0.407159802856872,2271.68331198584
-0.407046201484128,2271.69331198584
-0.407232997873873,2271.70331198584
-0.407489837133883,2271.71331198584
-0.407731977591183,2271.72331198584
-0.408033457532777,2271.73331198584
-0.408497924331407,2271.74331198584
-0.409070529999295,2271.75331198584
-0.409219970515501,2271.76331198584
-0.410063440941629,2271.77331198584
-0.410890396224379,2271.78331198584
-0.411203284969643,2271.79331198584
-0.410607043108642,2271.80331198584
-0.4090786821099,2271.81331198584
-0.406314664109028,2271.82331198584
-0.401593493110005,2271.83331198584
-0.395920745460305,2271.84331198584
-0.388424809877193,2271.85331198584
-0.380264059705128,2271.86331198584
-0.371322928035408,2271.87331198584
-0.362853558456978,2271.88331198584
-0.354631222181276,2271.89331198584
-0.347725460316094,2271.90331198584
-0.342235322973117,2271.91331198584
-0.337597424647349,2271.92331198584
-0.333961866769569,2271.93331198584
-0.331189397921023,2271.94331198584
-0.328688495182821,2271.95331198584
-0.326137235630758,2271.96331198584
-0.32393428364377,2271.97331198584
-0.322305225040576,2271.98331198584
-0.321319488935197,2271.99331198584
-0.320882141802971,2272.00331198584
-0.320729917817702,2272.01331198584
-0.320637307708355,2272.02331198584
-0.320471351710548,2272.03331198584
-0.319870887909303,2272.04331198584
-0.319624416090725,2272.05331198584
-0.318915707726675,2272.06331198584
-0.317989858271384,2272.07331198584
-0.317290054861257,2272.08331198584
-0.316627398796422,2272.09331198584
-0.315464510104506,2272.10331198584
-0.314578830352446,2272.11331198584
-0.313408931904888,2272.12331198584
-0.311906699456047,2272.13331198584
-0.310636144043237,2272.14331198584
-0.30925159801409,2272.15331198584
-0.308358177424677,2272.16331198584
-0.307193701460425,2272.17331198584
-0.305989492310755,2272.18331198584
-0.304599635050191,2272.19331198584
-0.302906180597912,2272.20331198584
-0.30114230955846,2272.21331198584
-0.300249842488935,2272.22331198584
-0.299786656554531,2272.23331198584
-0.299320164846442,2272.24331198584
-0.298731738894498,2272.25331198584
-0.297404680104024,2272.26331198584
-0.296008892100061,2272.27331198584
-0.295138644743484,2272.28331198584
-0.293928392558307,2272.29331198584
-0.293593487535982,2272.30331198584
-0.293426853822704,2272.31331198584
-0.29401029178633,2272.32331198584
-0.294617355708028,2272.33331198584
-0.295254642328051,2272.34331198584
-0.295857871099561,2272.35331198584
-0.296012792338545,2272.36331198584
-0.29632870567157,2272.37331198584
-0.296696825558513,2272.38331198584
-0.29702857496806,2272.39331198584
-0.298317037886608,2272.40331198584
-0.299508248938845,2272.41331198584
-0.300818678182299,2272.42331198584
-0.302422877465169,2272.43331198584
-0.30347634853705,2272.44331198584
-0.304943150867111,2272.45331198584
-0.306194591588092,2272.46331198584
-0.307436634629215,2272.47331198584
-0.308790451210817,2272.48331198584
-0.310677201773354,2272.49331198584
-0.312419666377522,2272.50331198584
-0.313886939548833,2272.51331198584
-0.3148477940593,2272.52331198584
-0.315496494955743,2272.53331198584
-0.316261675634862,2272.54331198584
-0.316865006791434,2272.55331198584
-0.318535700588647,2272.56331198584
-0.319813104938983,2272.57331198584
-0.320072819333883,2272.58331198584
-0.318968472717404,2272.59331198584
-0.315600733926149,2272.60331198584
-0.31060657027868,2272.61331198584
-0.303734227388775,2272.62331198584
-0.295181051363066,2272.63331198584
-0.286222460737591,2272.64331198584
-0.277068372433775,2272.65331198584
-0.268376784510184,2272.66331198584
-0.260914872327195,2272.67331198584
-0.254868803497911,2272.68331198584
-0.249652496577574,2272.69331198584
-0.2459341825564,2272.70331198584
-0.243273689577216,2272.71331198584
-0.241528706840616,2272.72331198584
-0.23960286725936,2272.73331198584
-0.238190004315691,2272.74331198584
-0.23667368737665,2272.75331198584
-0.235763254313654,2272.76331198584
-0.23456139372108,2272.77331198584
-0.233465829103189,2272.78331198584
-0.233007754984241,2272.79331198584
-0.232181951581249,2272.80331198584
-0.231287600606599,2272.81331198584
-0.230478811059989,2272.82331198584
-0.22941970840519,2272.83331198584
-0.228405160412822,2272.84331198584
-0.227165534943685,2272.85331198584
-0.225656555508705,2272.86331198584
-0.22438144258479,2272.87331198584
-0.223347782356708,2272.88331198584
-0.222806254791611,2272.89331198584
-0.222126369606847,2272.90331198584
-0.221142920930278,2272.91331198584
-0.219832327765524,2272.92331198584
-0.218698195646831,2272.93331198584
-0.217354139875995,2272.94331198584
-0.216287090448231,2272.95331198584
-0.214692943429246,2272.96331198584
-0.213193806912675,2272.97331198584
-0.21153308254131,2272.98331198584
-0.20946509607118,2272.99331198584
-0.207980664764836,2273.00331198584
-0.206758974580842,2273.01331198584
-0.205531875375392,2273.02331198584
-0.204788701065712,2273.03331198584
-0.203868809946562,2273.04331198584
-0.203821131393593,2273.05331198584
-0.203756369820761,2273.06331198584
-0.203869797618869,2273.07331198584
-0.203168170553131,2273.08331198584
-0.203066184343331,2273.09331198584
-0.20321851344089,2273.10331198584
-0.203333933713318,2273.11331198584
-0.203642458141368,2273.12331198584
-0.204280767083549,2273.13331198584
-0.205061144859982,2273.14331198584
-0.205998064210422,2273.15331198584
-0.207063641726372,2273.16331198584
-0.207790949582057,2273.17331198584
-0.208356926223174,2273.18331198584
-0.208851965149554,2273.19331198584
-0.208786810008446,2273.20331198584
-0.208753215030136,2273.21331198584
-0.208916692717824,2273.22331198584
-0.209228564384173,2273.23331198584
-0.210280534945126,2273.24331198584
-0.211296886324987,2273.25331198584
-0.212332744316,2273.26331198584
-0.213435286769071,2273.27331198584
-0.214384205810041,2273.28331198584
-0.215338207126542,2273.29331198584
-0.216155698863682,2273.30331198584
-0.21654542375994,2273.31331198584
-0.217183861386388,2273.32331198584
-0.217947900325043,2273.33331198584
-0.219032895213208,2273.34331198584
-0.22063254302978,2273.35331198584
-0.222847784323144,2273.36331198584
-0.224794243856691,2273.37331198584
-0.226065941749016,2273.38331198584
-0.226680282999747,2273.39331198584
-0.225598028048149,2273.40331198584
-0.222620053773138,2273.41331198584
-0.217783961390304,2273.42331198584
-0.211272783994118,2273.43331198584
-0.203178579866745,2273.44331198584
-0.194187679593512,2273.45331198584
-0.184742028713631,2273.46331198584
-0.175586986355686,2273.47331198584
-0.166541662252962,2273.48331198584
-0.15871271358169,2273.49331198584
-0.151884686124758,2273.50331198584
-0.146093378874471,2273.51331198584
-0.141290767800479,2273.52331198584
-0.137559856616033,2273.53331198584
-0.134313269055966,2273.54331198584
-0.131543514076538,2273.55331198584
-0.129312072021419,2273.56331198584
-0.127860624507584,2273.57331198584
-0.126734058972311,2273.58331198584
-0.125747269831832,2273.59331198584
-0.124094968153366,2273.60331198584
-0.122066349058379,2273.61331198584
-0.119410470634986,2273.62331198584
-0.116164688774368,2273.63331198584
-0.113220196119006,2273.64331198584
-0.11120851116427,2273.65331198584
-0.109808801576215,2273.66331198584
-0.109176620516923,2273.67331198584
-0.108846952550378,2273.68331198584
-0.108404042286819,2273.69331198584
-0.107579246357753,2273.70331198584
-0.106235476283339,2273.71331198584
-0.104487918318342,2273.72331198584
-0.102636205625364,2273.73331198584
-0.101029599476253,2273.74331198584
-0.0993166970351876,2273.75331198584
-0.0976674772488493,2273.76331198584
-0.0962319975688138,2273.77331198584
-0.0949278376939695,2273.78331198584
-0.0932845595316832,2273.79331198584
-0.0916094545830894,2273.80331198584
-0.0900983703167347,2273.81331198584
-0.0888179937997174,2273.82331198584
-0.0878275825547958,2273.83331198584
-0.0867726635658689,2273.84331198584
-0.0861100780560948,2273.85331198584
-0.0860505244876915,2273.86331198584
-0.0858383512814709,2273.87331198584
-0.0858281966969869,2273.88331198584
-0.086235065050042,2273.89331198584
-0.086491335260895,2273.90331198584
-0.0865442936120895,2273.91331198584
-0.0865116451356209,2273.92331198584
-0.0864765010854771,2273.93331198584
-0.0867497141850685,2273.94331198584
-0.0866111926177698,2273.95331198584
-0.0871863536128131,2273.96331198584
-0.087579214167071,2273.97331198584
-0.0883607973378516,2273.98331198584
-0.0895615914304543,2273.99331198584
-0.0909658485834992,2274.00331198584
-0.0920623239942681,2274.01331198584
-0.0931417443363243,2274.02331198584
-0.0944395772933911,2274.03331198584
-0.0956078765302555,2274.04331198584
-0.0967197338049931,2274.05331198584
-0.0974849270862982,2274.06331198584
-0.0984253257690534,2274.07331198584
-0.0993170441995372,2274.08331198584
-0.100550124125331,2274.09331198584
-0.102043300605584,2274.10331198584
-0.10398539536923,2274.11331198584
-0.105981105843685,2274.12331198584
-0.108372207157081,2274.13331198584
-0.110193155087215,2274.14331198584
-0.111875748331375,2274.15331198584
-0.113366739093295,2274.16331198584
-0.114700692684879,2274.17331198584
-0.11575862972039,2274.18331198584
-0.116991049388706,2274.19331198584
-0.118315039593206,2274.20331198584
-0.119557040181683,2274.21331198584
-0.120298901885637,2274.22331198584
-0.119513986195031,2274.23331198584
-0.116484148253613,2274.24331198584
-0.110893215376342,2274.25331198584
-0.103294941311365,2274.26331198584
-0.0942719147723899,2274.27331198584
-0.08459141448043,2274.28331198584
-0.0745970226827786,2274.29331198584
-0.0655219834395882,2274.30331198584
-0.0569433165400503,2274.31331198584
-0.0498477336064129,2274.32331198584
-0.0445099386063732,2274.33331198584
-0.0400139908469479,2274.34331198584
-0.0368902817471779,2274.35331198584
-0.0347811790643206,2274.36331198584
-0.0333701503403682,2274.37331198584
-0.0323811712227065,2274.38331198584
-0.0314070941552726,2274.39331198584
-0.0302831353376945,2274.40331198584
-0.0288301052874381,2274.41331198584
-0.0275707591664738,2274.42331198584
-0.0255059249848754,2274.43331198584
-0.0238967611315803,2274.44331198584
-0.022065669831118,2274.45331198584
-0.0207203737456783,2274.46331198584
-0.0198080354191242,2274.47331198584
-0.0194408421555005,2274.48331198584
-0.0191493177305477,2274.49331198584
-0.0184476148608877,2274.50331198584
-0.0176915932734418,2274.51331198584
-0.0171885299247159,2274.52331198584
-0.0161996594324487,2274.53331198584
-0.0162553677880752,2274.54331198584
-0.0158041102973328,2274.55331198584
-0.015709425593116,2274.56331198584
-0.0150271522689588,2274.57331198584
-0.014376471439773,2274.58331198584
-0.0136582848105342,2274.59331198584
-0.0125683500007587,2274.60331198584
-0.0111565613922325,2274.61331198584
-0.00902428882042111,2274.62331198584
-0.00718902564486032,2274.63331198584
-0.00581604221744951,2274.64331198584
-0.00396709761398851,2274.65331198584
-0.00291361041756809,2274.66331198584
-0.00199504085835406,2274.67331198584
-0.00171727922536928,2274.68331198584
-0.00179398904967407,2274.69331198584
-0.00213783184607533,2274.70331198584
-0.00295076418708386,2274.71331198584
-0.00342221879622159,2274.72331198584
-0.0039812341708938,2274.73331198584
-0.00474815092163784,2274.74331198584
-0.00557597518850968,2274.75331198584
-0.0065763639439395,2274.76331198584
-0.00754536624103641,2274.77331198584
-0.00901962404591426,2274.78331198584
-0.0110806643809665,2274.79331198584
-0.0126395638149918,2274.80331198584
-0.0137527046442904,2274.81331198584
-0.0142851146586304,2274.82331198584
-0.0146756079130375,2274.83331198584
-0.0150215121408498,2274.84331198584
-0.0157611829793831,2274.85331198584
-0.0163471941587122,2274.86331198584
-0.0172880676082074,2274.87331198584
-0.018761682752418,2274.88331198584
-0.0204833079420475,2274.89331198584
-0.0222670773694167,2274.90331198584
-0.0235116622055087,2274.91331198584
-0.0252111641687897,2274.92331198584
-0.0264278826179886,2274.93331198584
-0.027934029539574,2274.94331198584
-0.0297588842840713,2274.95331198584
-0.0312285715876429,2274.96331198584
-0.0326672801146611,2274.97331198584
-0.0341359525352159,2274.98331198584
-0.0353659688714753,2274.99331198584
-0.0359537224672424,2275.00331198584
-0.0370309015746813,2275.01331198584
-0.0378746368719303,2275.02331198584
-0.0377188262533855,2275.03331198584
-0.0367379093560701,2275.04331198584
-0.0340617540785248,2275.05331198584
-0.0295679354299397,2275.06331198584
-0.0231494004490494,2275.07331198584
-0.0154426713128466,2275.08331198584
-0.00715479619144834,2275.09331198584
0.000336131870388702,2275.10331198584
0.00753824162483544,2275.11331198584
0.0132246385291261,2275.12331198584
0.0183160679633931,2275.13331198584
0.0224727477345508,2275.14331198584
0.025969616593647,2275.15331198584
0.0288260933118574,2275.16331198584
0.0308093566508385,2275.17331198584
0.0318062858829216,2275.18331198584
0.0324690102895168,2275.19331198584
0.0333916987535651,2275.20331198584
0.033875192367153,2275.21331198584
0.0352578775902681,2275.22331198584
0.0368597903841733,2275.23331198584
0.0385499571429237,2275.24331198584
0.0400760593821265,2275.25331198584
0.0415919719235947,2275.26331198584
0.0424546544099602,2275.27331198584
0.0432897079799173,2275.28331198584
0.0435684112539099,2275.29331198584
0.0437227572625004,2275.30331198584
0.0435434038142135,2275.31331198584
0.0429878763275907,2275.32331198584
0.043525259651147,2275.33331198584
0.0434644539855226,2275.34331198584
0.0432176253526227,2275.35331198584
0.043165208476724,2275.36331198584
0.0432186627577577,2275.37331198584
0.0439903307025837,2275.38331198584
0.0450501567691607,2275.39331198584
0.0460296418035801,2275.40331198584
0.0476163647350635,2275.41331198584
0.0486882443654518,2275.42331198584
0.0497076961584461,2275.43331198584
0.0506832099370437,2275.44331198584
0.0517418156149338,2275.45331198584
0.0523629343064837,2275.46331198584
0.0523232833194709,2275.47331198584
0.0522718564727545,2275.48331198584
0.0517745654704421,2275.49331198584
0.0517286041064993,2275.50331198584
0.0517225698255094,2275.51331198584
0.0508388221840034,2275.52331198584
0.0498948447274865,2275.53331198584
0.0484116149181373,2275.54331198584
0.0462456519153163,2275.55331198584
0.0442931877702607,2275.56331198584
0.0423948696675278,2275.57331198584
0.0409613476169049,2275.58331198584
0.0394607374420192,2275.59331198584
0.0374274510080431,2275.60331198584
0.0361744902974581,2275.61331198584
0.0346316580623673,2275.62331198584
0.0326443591410436,2275.63331198584
0.0309882452991494,2275.64331198584
0.0285879378466359,2275.65331198584
0.0266487622180421,2275.66331198584
0.0246597518600899,2275.67331198584
0.0236042490018401,2275.68331198584
0.0222403700195421,2275.69331198584
0.0207477632550338,2275.70331198584
0.0187313288544983,2275.71331198584
0.0162854004497263,2275.72331198584
0.0132614750266645,2275.73331198584
0.00993831303696454,2275.74331198584
0.00702953382548902,2275.75331198584
0.004271499651076,2275.76331198584
0.00186326492380373,2275.77331198584
-0.000553812238011203,2275.78331198584
-0.00231833160623946,2275.79331198584
-0.0042127561956763,2275.80331198584
-0.00651087707775238,2275.81331198584
-0.00832655409929377,2275.82331198584
-0.00968783343342352,2275.83331198584
-0.00949892574360186,2275.84331198584
-0.00750157255555848,2275.85331198584
-0.00382426640772762,2275.86331198584
0.00173942810021914,2275.87331198584
0.00813480046618659,2275.88331198584
0.0146421824705868,2275.89331198584
0.0213226603183521,2275.90331198584
0.0271553357276482,2275.91331198584
0.0327780914522521,2275.92331198584
0.037505215896075,2275.93331198584
0.0411311978289632,2275.94331198584
0.0438000221280895,2275.95331198584
0.0454017930963925,2275.96331198584
0.0460013936252853,2275.97331198584
0.0456960647501191,2275.98331198584
0.045048153071478,2275.99331198584
0.0444501980643755,2276.00331198584
0.044429837015681,2276.01331198584
0.0443365004390936,2276.02331198584
0.0444065648762379,2276.03331198584
0.0447994834986604,2276.04331198584
0.0450351288264006,2276.05331198584
0.0449248430184564,2276.06331198584
0.044904630275829,2276.07331198584
0.04493999387476,2276.08331198584
0.0448750454683108,2276.09331198584
0.0452693984570015,2276.10331198584
0.0459771742550151,2276.11331198584
0.046022681241646,2276.12331198584
0.0456637838621059,2276.13331198584
0.0452046651613741,2276.14331198584
0.0445469016605391,2276.15331198584
0.0436074831035329,2276.16331198584
0.0427750639503687,2276.17331198584
0.0419820168935431,2276.18331198584
0.0416817404324924,2276.19331198584
0.0418438621019856,2276.20331198584
0.0421224960680267,2276.21331198584
0.0425126342781744,2276.22331198584
0.0427750557715765,2276.23331198584
0.0426173507602624,2276.24331198584
0.0419507172908685,2276.25331198584
0.0412504566217566,2276.26331198584
0.0406426572862488,2276.27331198584
0.0401449147856229,2276.28331198584
0.0395459193326527,2276.29331198584
0.0384645695142145,2276.30331198584
0.0369886027810987,2276.31331198584
0.0348408147568672,2276.32331198584
0.0325581950472252,2276.33331198584
0.0310755972555794,2276.34331198584
0.0299657359232928,2276.35331198584
0.0293937343145177,2276.36331198584
0.0290056191666603,2276.37331198584
0.0284098716652637,2276.38331198584
0.0274453682712138,2276.39331198584
0.0259248065310895,2276.40331198584
0.0237396329499139,2276.41331198584
0.0211878592620262,2276.42331198584
0.0181643659300905,2276.43331198584
0.0157956933621348,2276.44331198584
0.0134324877352301,2276.45331198584
0.0120396210683965,2276.46331198584
0.010951475294381,2276.47331198584
0.00993498517014576,2276.48331198584
0.00838272271072433,2276.49331198584
0.00647266347059394,2276.50331198584
0.00411791652959348,2276.51331198584
0.00107473509703452,2276.52331198584
-0.00180439730048897,2276.53331198584
-0.0038669021816759,2276.54331198584
-0.00587878940515732,2276.55331198584
-0.00713839256767531,2276.56331198584
-0.00845421186909449,2276.57331198584
-0.00993154193467544,2276.58331198584
-0.0120251936405795,2276.59331198584
-0.0144031154157697,2276.60331198584
-0.0175442046892201,2276.61331198584
-0.0199337041542534,2276.62331198584
-0.0207039469817619,2276.63331198584
-0.0197253947755889,2276.64331198584
-0.0164653141352894,2276.65331198584
-0.0112508404366846,2276.66331198584
-0.00467039848383949,2276.67331198584
0.00287325720785601,2276.68331198584
0.0106188793116042,2276.69331198584
0.0185418788998092,2276.70331198584
0.0257422688156106,2276.71331198584
0.0319665191962457,2276.72331198584
0.0374859490964281,2276.73331198584
0.0422187570734929,2276.74331198584
0.0460447210184602,2276.75331198584
0.0492989491163303,2276.76331198584
0.051305857332917,2276.77331198584
0.052730701755866,2276.78331198584
0.0537776065107502,2276.79331198584
0.054385064490127,2276.80331198584
0.0548018546216569,2276.81331198584
0.0558110025550869,2276.82331198584
0.0569913000775421,2276.83331198584
0.0585623440277115,2276.84331198584
0.0600635322524204,2276.85331198584
0.0616100690043273,2276.86331198584
0.0628805291746994,2276.87331198584
0.0636341403167057,2276.88331198584
0.064108727464996,2276.89331198584
0.0643180645125454,2276.90331198584
0.06468659735771,2276.91331198584
0.0649346231508319,2276.92331198584
0.0651978688168256,2276.93331198584
0.065550143127748,2276.94331198584
0.0662957967233479,2276.95331198584
0.0671288538334887,2276.96331198584
0.0680075247441797,2276.97331198584
0.068994778033129,2276.98331198584
0.0701673239108358,2276.99331198584
0.0715307569761862,2277.00331198584
0.0735251948332194,2277.01331198584
0.0755976846008285,2277.02331198584
0.0781617180348722,2277.03331198584
0.0800096852713749,2277.04331198584
0.0808544777937552,2277.05331198584
0.0812326806233807,2277.06331198584
0.0809481612381479,2277.07331198584
0.0802345869033536,2277.08331198584
0.0794768034689402,2277.09331198584
0.0782792709641382,2277.10331198584
0.0768886761129822,2277.11331198584
0.0764704796627858,2277.12331198584
0.0760819224940816,2277.13331198584
0.0759841737150237,2277.14331198584
0.0755213777523129,2277.15331198584
0.0753078674904185,2277.16331198584
0.0742828452199841,2277.17331198584
0.0733936057900924,2277.18331198584
0.0724620576812575,2277.19331198584
0.0711559433560831,2277.20331198584
0.0698690766559861,2277.21331198584
0.0684462804558752,2277.22331198584
0.066375103999799,2277.23331198584
0.0646170200443476,2277.24331198584
0.0622642415200408,2277.25331198584
0.060163425305832,2277.26331198584
0.0578869605262324,2277.27331198584
0.0558478785803677,2277.28331198584
0.0536551662147985,2277.29331198584
0.052119148448543,2277.30331198584
0.0514236245062746,2277.31331198584
0.0508100276649391,2277.32331198584
0.0501745720848987,2277.33331198584
0.049936645490393,2277.34331198584
0.0484957720448545,2277.35331198584
0.0470696277732748,2277.36331198584
0.0450648930682729,2277.37331198584
0.0429323152495203,2277.38331198584
0.0407085475139431,2277.39331198584
0.0376050035176068,2277.40331198584
0.0350119233683911,2277.41331198584
0.0321282598068758,2277.42331198584
0.0299737678707284,2277.43331198584
0.0291221379666108,2277.44331198584
0.0298283693319774,2277.45331198584
0.0327849275606405,2277.46331198584
0.0377518554282354,2277.47331198584
0.0440296951731346,2277.48331198584
0.0518497156513531,2277.49331198584
0.0605883541629482,2277.50331198584
0.0700858726719704,2277.51331198584
0.0800457979712592,2277.52331198584
0.0895983027934746,2277.53331198584
0.0982485792126417,2277.54331198584
0.1065046878886,2277.55331198584
0.113078178096471,2277.56331198584
0.118851170441063,2277.57331198584
0.124012473292017,2277.58331198584
0.128208056268957,2277.59331198584
0.131558309212964,2277.60331198584
0.134567705019042,2277.61331198584
0.137002901717253,2277.62331198584
0.139635786216047,2277.63331198584
0.14205643613833,2277.64331198584
0.144119794415944,2277.65331198584
0.146372497206679,2277.66331198584
0.1486166023543,2277.67331198584
0.150908480295514,2277.68331198584
0.15330148381689,2277.69331198584
0.155132369985323,2277.70331198584
0.156805686673579,2277.71331198584
0.158078905805715,2277.72331198584
0.15868033731747,2277.73331198584
0.158895159561311,2277.74331198584
0.159486763766816,2277.75331198584
0.159735634032886,2277.76331198584
0.160844232026695,2277.77331198584
0.162347609967108,2277.78331198584
0.163226619210814,2277.79331198584
0.164725245831975,2277.80331198584
0.165678321428567,2277.81331198584
0.166833705641307,2277.82331198584
0.16786772658457,2277.83331198584
0.169285325785731,2277.84331198584
0.171062946347282,2277.85331198584
0.172960278686327,2277.86331198584
0.174735446541107,2277.87331198584
0.175859384443406,2277.88331198584
0.176480777827608,2277.89331198584
0.176822466991566,2277.90331198584
0.176475908826976,2277.91331198584
0.176619642857272,2277.92331198584
0.176860083446683,2277.93331198584
0.17704782538301,2277.94331198584
0.176740712465302,2277.95331198584
0.175592849749645,2277.96331198584
0.174282119015441,2277.97331198584
0.172714415943496,2277.98331198584
0.170730075937698,2277.99331198584
0.169174950996371,2278.00331198584
0.167797401186735,2278.01331198584
0.166351096991863,2278.02331198584
0.164938964446016,2278.03331198584
0.163429354917965,2278.04331198584
0.161835132442226,2278.05331198584
0.159558938558967,2278.06331198584
0.157013118836504,2278.07331198584
0.154391104572258,2278.08331198584
0.152397324293228,2278.09331198584
0.150551076927051,2278.10331198584
0.148933989091271,2278.11331198584
0.147041863279397,2278.12331198584
0.145274237355689,2278.13331198584
0.143470546957566,2278.14331198584
0.141201175536676,2278.15331198584
0.138735478128448,2278.16331198584
0.135851491774071,2278.17331198584
0.132908421501118,2278.18331198584
0.129305722512526,2278.19331198584
0.126094953382001,2278.20331198584
0.122841156184253,2278.21331198584
0.11999337343417,2278.22331198584
0.117043699963121,2278.23331198584
0.114633702123049,2278.24331198584
0.111994413042375,2278.25331198584
0.109252964182992,2278.26331198584
0.106840980026799,2278.27331198584
0.104815633030909,2278.28331198584
0.104286479483772,2278.29331198584
0.105729738070749,2278.30331198584
0.110048194996918,2278.31331198584
0.117050346365394,2278.32331198584
0.125988844452206,2278.33331198584
0.136382059447456,2278.34331198584
0.147052496487043,2278.35331198584
0.158111156486533,2278.36331198584
0.168900701273767,2278.37331198584
0.179139749925279,2278.38331198584
0.188524067494113,2278.39331198584
0.196659623315516,2278.40331198584
0.203485914302904,2278.41331198584
0.208781291455824,2278.42331198584
0.213069186596846,2278.43331198584
0.216243687445022,2278.44331198584
0.218752447098255,2278.45331198584
0.220672290183979,2278.46331198584
0.222237499467405,2278.47331198584
0.223711803247148,2278.48331198584
0.226193478639862,2278.49331198584
0.22851453962075,2278.50331198584
0.231194556970017,2278.51331198584
0.233956835930886,2278.52331198584
0.236054982764094,2278.53331198584
0.237671139117683,2278.54331198584
0.238718898184993,2278.55331198584
0.239203996886833,2278.56331198584
0.239543260950386,2278.57331198584
0.240222043091817,2278.58331198584
0.241465717441736,2278.59331198584
0.24281647832269,2278.60331198584
0.244765300944921,2278.61331198584
0.246093089880966,2278.62331198584
0.247187175403934,2278.63331198584
0.247735781632254,2278.64331198584
0.24855930838816,2278.65331198584
0.249469257791594,2278.66331198584
0.250058473770019,2278.67331198584
0.25100833440492,2278.68331198584
0.25202110362243,2278.69331198584
0.252525471137166,2278.70331198584
0.253378080915364,2278.71331198584
0.253011487410017,2278.72331198584
0.252394039846888,2278.73331198584
0.251347035474031,2278.74331198584
0.249865019675696,2278.75331198584
0.249139560605115,2278.76331198584
0.248625427843601,2278.77331198584
0.248338856840288,2278.78331198584
0.248248021918828,2278.79331198584
0.247869786951253,2278.80331198584
0.247210524884804,2278.81331198584
0.246420083676463,2278.82331198584
0.245659212071028,2278.83331198584
0.244646027747252,2278.84331198584
0.243177869356455,2278.85331198584
0.241496491329176,2278.86331198584
0.240077182353981,2278.87331198584
0.238072977231344,2278.88331198584
0.236062286136802,2278.89331198584
0.233426656653658,2278.90331198584
0.230684877443514,2278.91331198584
0.228178499644956,2278.92331198584
0.225873491065152,2278.93331198584
0.223274063431118,2278.94331198584
0.220812956747075,2278.95331198584
0.218356928335181,2278.96331198584
0.215830985886305,2278.97331198584
0.213227999841557,2278.98331198584
0.210590842149554,2278.99331198584
0.207543039442003,2279.00331198584
0.203974901859526,2279.01331198584
0.200311257028599,2279.02331198584
0.196541440561741,2279.03331198584
0.192864429597954,2279.04331198584
0.18939515885605,2279.05331198584
0.185840124651308,2279.06331198584
0.182561890369675,2279.07331198584
0.180090067013653,2279.08331198584
0.178933148845666,2279.09331198584
0.179053385535867,2279.10331198584
0.181881652666837,2279.11331198584
0.187580430778841,2279.12331198584
0.195617467399482,2279.13331198584
0.205404296798494,2279.14331198584
0.21647276232951,2279.15331198584
0.22842810990928,2279.16331198584
0.240767397746829,2279.17331198584
0.25341301890518,2279.18331198584
0.264627976219204,2279.19331198584
0.27507466188213,2279.20331198584
0.283900603815553,2279.21331198584
0.291240263713164,2279.22331198584
0.297359049625946,2279.23331198584
0.301707794178232,2279.24331198584
0.305007724267193,2279.25331198584
0.307764036693131,2279.26331198584
0.310126875479987,2279.27331198584
0.312309580765966,2279.28331198584
0.314479125680593,2279.29331198584
0.31621321464395,2279.30331198584
0.317933148615941,2279.31331198584
0.318925873832156,2279.32331198584
0.319310313910755,2279.33331198584
0.319110367999391,2279.34331198584
0.318881435853862,2279.35331198584
0.318107626252773,2279.36331198584
0.317322338073793,2279.37331198584
0.31651668850692,2279.38331198584
0.315293415274017,2279.39331198584
0.314448280497572,2279.40331198584
0.31336395406826,2279.41331198584
0.312417766832039,2279.42331198584
0.311504051229253,2279.43331198584
0.31096110942399,2279.44331198584
0.310976782055069,2279.45331198584
0.311365094238935,2279.46331198584
0.311953320307033,2279.47331198584
0.312620148930196,2279.48331198584
0.312721575869665,2279.49331198584
0.311812338734656,2279.50331198584
0.311336105458846,2279.51331198584
0.310353772522684,2279.52331198584
0.309472275256011,2279.53331198584
0.308536313482147,2279.54331198584
0.306867306943966,2279.55331198584
0.305223962845665,2279.56331198584
0.302766740601842,2279.57331198584
0.30021118346193,2279.58331198584
0.297360329094837,2279.59331198584
0.294790467131114,2279.60331198584
0.292050318296042,2279.61331198584
0.289121668902968,2279.62331198584
0.286210543666434,2279.63331198584
0.282960655596861,2279.64331198584
0.279688699010155,2279.65331198584
0.276298797677335,2279.66331198584
0.27345017801569,2279.67331198584
0.270597095934843,2279.68331198584
0.26804835507543,2279.69331198584
0.265491879239594,2279.70331198584
0.262589788627561,2279.71331198584
0.258955392302505,2279.72331198584
0.254479246048465,2279.73331198584
0.250151853419685,2279.74331198584
0.245112043603338,2279.75331198584
0.239993900083176,2279.76331198584
0.235398543607153,2279.77331198584
0.230164655957289,2279.78331198584
0.225606837254372,2279.79331198584
0.221290032228057,2279.80331198584
0.217052306852116,2279.81331198584
0.212453446535807,2279.82331198584
0.208381558098096,2279.83331198584
0.204544882534222,2279.84331198584
0.200568327224444,2279.85331198584
0.195962574208277,2279.86331198584
0.191920036411417,2279.87331198584
0.18857715790557,2279.88331198584
0.186754878514067,2279.89331198584
0.187315801369911,2279.90331198584
0.190586206367483,2279.91331198584
0.196645635151106,2279.92331198584
0.204558974386183,2279.93331198584
0.21466041516643,2279.94331198584
0.2264241648895,2279.95331198584
0.238852194526953,2279.96331198584
0.25085512337619,2279.97331198584
0.262045041056536,2279.98331198584
0.272067050313041,2279.99331198584
0.281330429969066,2280.00331198584
0.289059399088681,2280.01331198584
0.295485847739312,2280.02331198584
0.300149064659389,2280.03331198584
0.303852858648794,2280.04331198584
0.306223936726902,2280.05331198584
0.308077119256608,2280.06331198584
0.309663906134057,2280.07331198584
0.311143024585842,2280.08331198584
0.31297667195666,2280.09331198584
0.314548170315817,2280.10331198584
0.315322972140094,2280.11331198584
0.315801677004013,2280.12331198584
0.315857200995764,2280.13331198584
0.316174630734599,2280.14331198584
0.316310163932133,2280.15331198584
0.31643970884874,2280.16331198584
0.316140844752212,2280.17331198584
0.315322380891348,2280.18331198584
0.313258087793683,2280.19331198584
0.310671231903074,2280.20331198584
0.308486346686452,2280.21331198584
0.306404198934448,2280.22331198584
0.305092787731678,2280.23331198584
0.3041207816206,2280.24331198584
0.303550948870803,2280.25331198584
0.303910191568908,2280.26331198584
0.304732380840153,2280.27331198584
0.306196014399299,2280.28331198584
0.307748718571479,2280.29331198584
0.30850279092135,2280.30331198584
0.308386618132384,2280.31331198584
0.307839327523328,2280.32331198584
0.306297817317133,2280.33331198584
0.304608734109054,2280.34331198584
0.30221416784361,2280.35331198584
0.300080359995716,2280.36331198584
0.297635873223662,2280.37331198584
0.295205643950791,2280.38331198584
0.293026457268174,2280.39331198584
0.290891660474644,2280.40331198584
0.28884212901056,2280.41331198584
0.286243701585494,2280.42331198584
0.284197803982253,2280.43331198584
0.281542189760039,2280.44331198584
0.278578808683099,2280.45331198584
0.275167163653386,2280.46331198584
0.271709271553137,2280.47331198584
0.267657275539691,2280.48331198584
0.26376848171864,2280.49331198584
0.260004111060908,2280.50331198584
0.256612645038963,2280.51331198584
0.253110558243121,2280.52331198584
0.249121063883499,2280.53331198584
0.245693530346027,2280.54331198584
0.241707260688276,2280.55331198584
0.238029421220733,2280.56331198584
0.234107023561669,2280.57331198584
0.230082215019535,2280.58331198584
0.225610880846479,2280.59331198584
0.221286125269898,2280.60331198584
0.216907528994435,2280.61331198584
0.211968803669125,2280.62331198584
0.206945463223585,2280.63331198584
0.202130288188054,2280.64331198584
0.197168299717525,2280.65331198584
0.192185961565807,2280.66331198584
0.187391921065175,2280.67331198584
0.182972321857317,2280.68331198584
0.179706284440256,2280.69331198584
0.177859395166192,2280.70331198584
0.178111087798761,2280.71331198584
0.180875027286098,2280.72331198584
0.186631110457931,2280.73331198584
0.195084303921364,2280.74331198584
0.206040187959282,2280.75331198584
0.218468092277287,2280.76331198584
0.231200109949151,2280.77331198584
0.244188246104372,2280.78331198584
0.256480014823288,2280.79331198584
0.267807143187562,2280.80331198584
0.277681075458635,2280.81331198584
0.286063534831181,2280.82331198584
0.293138019799373,2280.83331198584
0.298819203690389,2280.84331198584
0.302861760674033,2280.85331198584
0.305762441162176,2280.86331198584
0.308259439468738,2280.87331198584
0.310158292474667,2280.88331198584
0.311942366567661,2280.89331198584
0.312869287517413,2280.90331198584
0.313153576796484,2280.91331198584
0.313602357347556,2280.92331198584
0.31439336784698,2280.93331198584
0.315568286843756,2280.94331198584
0.316942686044944,2280.95331198584
0.318389795196132,2280.96331198584
0.319112335932366,2280.97331198584
0.319338416806975,2280.98331198584
0.318844715291729,2280.99331198584
0.318261736697279,2281.00331198584
0.317404035061041,2281.01331198584
0.316610805429088,2281.02331198584
0.316297505148349,2281.03331198584
0.315718253931089,2281.04331198584
0.315668826362354,2281.05331198584
0.315776419108056,2281.06331198584
0.316202450997763,2281.07331198584
0.316552845159689,2281.08331198584
0.317060205443464,2281.09331198584
0.317882245133192,2281.10331198584
0.31827078513386,2281.11331198584
0.31909127090417,2281.12331198584
0.319776172055837,2281.13331198584
0.319976533378588,2281.14331198584
0.319806473372239,2281.15331198584
0.319283932933465,2281.16331198584
0.318130898088556,2281.17331198584
0.316061200670273,2281.18331198584
0.31410167672616,2281.19331198584
0.31178548842304,2281.20331198584
0.309155309360075,2281.21331198584
0.306124193785966,2281.22331198584
0.302931800438478,2281.23331198584
0.299560984859148,2281.24331198584
0.296048016936032,2281.25331198584
0.292333541024042,2281.26331198584
0.288663105854921,2281.27331198584
0.285206558240588,2281.28331198584
0.281786182059814,2281.29331198584
0.278207570141629,2281.30331198584
0.274843071799812,2281.31331198584
0.270993124532363,2281.32331198584
0.266844499011475,2281.33331198584
0.263197413111834,2281.34331198584
0.25939077861805,2281.35331198584
0.255353852666937,2281.36331198584
0.251285882699372,2281.37331198584
0.247462428483381,2281.38331198584
0.243260026705891,2281.39331198584
0.238743557524429,2281.40331198584
0.233877822908011,2281.41331198584
0.2291411005655,2281.42331198584
0.224697967064318,2281.43331198584
0.220613479872598,2281.44331198584
0.217079283415336,2281.45331198584
0.213159259180225,2281.46331198584
0.209889787184499,2281.47331198584
0.206123271492668,2281.48331198584
0.202132022906727,2281.49331198584
0.198040478345721,2281.50331198584
0.193712133590865,2281.51331198584
0.189983432633227,2281.52331198584
0.187650616742256,2281.53331198584
0.187810568333637,2281.54331198584
0.190887706355354,2281.55331198584
0.197132615266033,2281.56331198584
0.206772560579363,2281.57331198584
0.218835133960133,2281.58331198584
0.233177772643633,2281.59331198584
0.248434906341479,2281.60331198584
0.264106398658219,2281.61331198584
0.279022397518175,2281.62331198584
0.292772064345252,2281.63331198584
0.30459711850567,2281.64331198584
0.314219052173372,2281.65331198584
0.321046865813193,2281.66331198584
0.326083085736165,2281.67331198584
0.329864260146984,2281.68331198584
0.333114337992305,2281.69331198584
0.336115007696588,2281.70331198584
0.338795380317581,2281.71331198584
0.341400862012128,2281.72331198584
0.343511848552468,2281.73331198584
0.344232876795442,2281.74331198584
0.34499349099177,2281.75331198584
0.345216004918517,2281.76331198584
0.34594798733755,2281.77331198584
0.346766262301717,2281.78331198584
0.34713458590993,2281.79331198584
0.347706782610455,2281.80331198584
0.347620227250091,2281.81331198584
0.34711152123128,2281.82331198584
0.346525416048416,2281.83331198584
0.345277946058229,2281.84331198584
0.34411722842862,2281.85331198584
0.343396523578492,2281.86331198584
0.343060278154485,2281.87331198584
0.342514921905065,2281.88331198584
0.342051055287646,2281.89331198584
0.34239273510669,2281.90331198584
0.342679160633633,2281.91331198584
0.342825695538633,2281.92331198584
0.343652219803351,2281.93331198584
0.343823473627278,2281.94331198584
0.34368363944928,2281.95331198584
0.343633284802738,2281.96331198584
0.343327103267272,2281.97331198584
0.342722384409266,2281.98331198584
0.341378801915121,2281.99331198584
0.339494276422413,2282.00331198584
0.337635427452426,2282.01331198584
0.335901198542195,2282.02331198584
0.334210356905313,2282.03331198584
0.331933136559986,2282.04331198584
0.32972946801512,2282.05331198584
0.326594646187172,2282.06331198584
0.32374599989104,2282.07331198584
0.320491088089237,2282.08331198584
0.316887815454582,2282.09331198584
0.313162486583274,2282.10331198584
0.309596496638123,2282.11331198584
0.306026549420758,2282.12331198584
0.301680758163008,2282.13331198584
0.297281256787459,2282.14331198584
0.293025526006183,2282.15331198584
0.288567917342874,2282.16331198584
0.283839691520273,2282.17331198584
0.279279974389437,2282.18331198584
0.275099224751617,2282.19331198584
0.271071858335449,2282.20331198584
0.266589627465327,2282.21331198584
0.262060635831138,2282.22331198584
0.256668970585075,2282.23331198584
0.251037887247037,2282.24331198584
0.245443909417531,2282.25331198584
0.240214482174695,2282.26331198584
0.23537697622273,2282.27331198584
0.230205674398716,2282.28331198584
0.225644333877585,2282.29331198584
0.220796047650378,2282.30331198584
0.215681297028725,2282.31331198584
0.21083021071097,2282.32331198584
0.206009506404786,2282.33331198584
0.202388784782006,2282.34331198584
0.20089065446602,2282.35331198584
0.20257218901895,2282.36331198584
0.207669524591969,2282.37331198584
0.216795702310169,2282.38331198584
0.228823074448249,2282.39331198584
0.242976479282255,2282.40331198584
0.258184751180586,2282.41331198584
0.274355164873719,2282.42331198584
0.290410661524961,2282.43331198584
0.304880045118509,2282.44331198584
0.317277897903757,2282.45331198584
0.327579695902571,2282.46331198584
0.335612021727196,2282.47331198584
0.341188555683554,2282.48331198584
0.345063924725596,2282.49331198584
0.347741406027673,2282.50331198584
0.349789484597094,2282.51331198584
0.351435416809388,2282.52331198584
0.35283534450812,2282.53331198584
0.353555168420434,2282.54331198584
0.354245463101926,2282.55331198584
0.35458891082693,2282.56331198584
0.354830998537772,2282.57331198584
0.354956543846931,2282.58331198584
0.354841837018716,2282.59331198584
0.354746437571271,2282.60331198584
0.353625072811698,2282.61331198584
0.351743419774687,2282.62331198584
0.349453830714487,2282.63331198584
0.347153660779982,2282.64331198584
0.344694742558686,2282.65331198584
0.342706978605324,2282.66331198584
0.341772494057318,2282.67331198584
0.34196443024663,2282.68331198584
0.342966117562696,2282.69331198584
0.344287654291005,2282.70331198584
0.345533268144139,2282.71331198584
0.346822983125029,2282.72331198584
0.347557513807231,2282.73331198584
0.3474438569333,2282.74331198584
0.34664052688108,2282.75331198584
0.345708003395405,2282.76331198584
0.344822180441724,2282.77331198584
0.343807307658801,2282.78331198584
0.342739880852356,2282.79331198584
0.341680993705129,2282.80331198584
0.340019688111113,2282.81331198584
0.338712266578307,2282.82331198584
0.336354820582491,2282.83331198584
0.333348251497689,2282.84331198584
0.329954458815482,2282.85331198584
0.325829354013136,2282.86331198584
0.321885989006792,2282.87331198584
0.317699804627456,2282.88331198584
0.313900050405966,2282.89331198584
0.310045580031442,2282.90331198584
0.306527250144515,2282.91331198584
0.30242966958499,2282.92331198584
0.29801876801055,2282.93331198584
0.293054002633729,2282.94331198584
0.287857115724157,2282.95331198584
0.282631981737273,2282.96331198584
0.277792958022381,2282.97331198584
0.272697407051516,2282.98331198584
0.267921787456176,2282.99331198584
0.263121778459504,2283.00331198584
0.258482058712422,2283.01331198584
0.254066015442614,2283.02331198584
0.249141784613042,2283.03331198584
0.244239953518063,2283.04331198584
0.238653167644475,2283.05331198584
0.232648109842686,2283.06331198584
0.226541760813397,2283.07331198584
0.220607816687403,2283.08331198584
0.214864301026796,2283.09331198584
0.209359561159101,2283.10331198584
0.204239042420664,2283.11331198584
0.200014786376086,2283.12331198584
0.196611374235349,2283.13331198584
0.194063735642807,2283.14331198584
0.193269233495813,2283.15331198584
0.195196204633757,2283.16331198584
0.200634318243171,2283.17331198584
0.209306004321554,2283.18331198584
0.221391040428454,2283.19331198584
0.23580329506994,2283.20331198584
0.252499035656835,2283.21331198584
0.269422937650925,2283.22331198584
0.285716802081843,2283.23331198584
0.300679213523881,2283.24331198584
0.313980462221474,2283.25331198584
0.32511002353731,2283.26331198584
0.333954209253593,2283.27331198584
0.340546205477623,2283.28331198584
0.345798614270019,2283.29331198584
0.349387564836138,2283.30331198584
0.35210478820205,2283.31331198584
0.354262130213425,2283.32331198584
0.355959501309352,2283.33331198584
0.357239745726556,2283.34331198584
0.358612258178937,2283.35331198584
0.360180916449121,2283.36331198584
0.362316372775433,2283.37331198584
0.363995762736084,2283.38331198584
0.366058441060335,2283.39331198584
0.367544918457751,2283.40331198584
0.368724739455716,2283.41331198584
0.369352656472457,2283.42331198584
0.368889048703726,2283.43331198584
0.368584215444102,2283.44331198584
0.367131946041067,2283.45331198584
0.365863934641491,2283.46331198584
0.365285940374294,2283.47331198584
0.364955542765109,2283.48331198584
0.365137396179997,2283.49331198584
0.365439441884682,2283.50331198584
0.366238340359344,2283.51331198584
0.367004874777802,2283.52331198584
0.367896091272575,2283.53331198584
0.368544469670829,2283.54331198584
0.369129509312185,2283.55331198584
0.369450207448809,2283.56331198584
0.369398708414945,2283.57331198584
0.368590945134707,2283.58331198584
0.367440094532239,2283.59331198584
0.365915397271783,2283.60331198584
0.364324567433248,2283.61331198584
0.362502460827435,2283.62331198584
0.359638389122484,2283.63331198584
0.356599511502683,2283.64331198584
0.35330321068666,2283.65331198584
0.34966133108903,2283.66331198584
0.346071809400233,2283.67331198584
0.342547837759829,2283.68331198584
0.338676499705548,2283.69331198584
0.334735406880376,2283.70331198584
0.33111944489256,2283.71331198584
0.327341694794811,2283.72331198584
0.323573333136608,2283.73331198584
0.319768189847737,2283.74331198584
0.315404360428718,2283.75331198584
0.310330783494349,2283.76331198584
0.304934880580454,2283.77331198584
0.299558453039996,2283.78331198584
0.293578459882166,2283.79331198584
0.288501593471845,2283.80331198584
0.283854558211367,2283.81331198584
0.279549267464424,2283.82331198584
0.274544900633549,2283.83331198584
0.268941569535225,2283.84331198584
0.262563773840764,2283.85331198584
0.256553425658728,2283.86331198584
0.249883157463301,2283.87331198584
0.243495890273135,2283.88331198584
0.237983716736246,2283.89331198584
0.231771760537222,2283.90331198584
0.226345274969092,2283.91331198584
0.221042945023463,2283.92331198584
0.216092114644383,2283.93331198584
0.212309794957329,2283.94331198584
0.210088562225656,2283.95331198584
0.209935922253978,2283.96331198584
0.21241686541497,2283.97331198584
0.218439706200605,2283.98331198584
0.227673275540758,2283.99331198584
0.240289956162969,2284.00331198584
0.255390165919755,2284.01331198584
0.272881501727043,2284.02331198584
0.291259984912888,2284.03331198584
0.309384459192752,2284.04331198584
0.325564194898941,2284.05331198584
0.340661272574427,2284.06331198584
0.353881734305346,2284.07331198584
0.364847427393095,2284.08331198584
0.374203221792113,2284.09331198584
0.381353634368026,2284.10331198584
0.386652675468132,2284.11331198584
0.391138123460384,2284.12331198584
0.394461260895376,2284.13331198584
0.396959331633011,2284.14331198584
0.399402846308943,2284.15331198584
0.401560398734608,2284.16331198584
0.403946973023779,2284.17331198584
0.406527392118975,2284.18331198584
0.409063694862085,2284.19331198584
0.411518859068236,2284.20331198584
0.412879281716898,2284.21331198584
0.41344088853485,2284.22331198584
0.41338135164338,2284.23331198584
0.41334071915357,2284.24331198584
0.412986300845806,2284.25331198584
0.412957220610268,2284.26331198584
0.413161780255029,2284.27331198584
0.413311223723371,2284.28331198584
0.412961227835959,2284.29331198584
0.413035622515161,2284.30331198584
0.41323246616326,2284.31331198584
0.413937623086215,2284.32331198584
0.415085439204488,2284.33331198584
0.416167848547776,2284.34331198584
0.417384577578926,2284.35331198584
0.418409499684165,2284.36331198584
0.418701628380434,2284.37331198584
0.418684026439459,2284.38331198584
0.417438165330767,2284.39331198584
0.416263787157238,2284.40331198584
0.414835524806966,2284.41331198584
0.41288170938754,2284.42331198584
0.411163573148541,2284.43331198584
0.409264943003839,2284.44331198584
0.406749667649234,2284.45331198584
0.403924407183237,2284.46331198584
0.400006485209002,2284.47331198584
0.395063566121374,2284.48331198584
0.389511488612894,2284.49331198584
0.384085494922176,2284.50331198584
0.378819329830871,2284.51331198584
0.373916583312618,2284.52331198584
0.369201586925578,2284.53331198584
0.364485225322765,2284.54331198584
0.359879281624116,2284.55331198584
0.354927735302869,2284.56331198584
0.349418115696651,2284.57331198584
0.343446393719689,2284.58331198584
0.337321000756301,2284.59331198584
0.331024427076542,2284.60331198584
0.3247616220864,2284.61331198584
0.319115534131793,2284.62331198584
0.312890582999634,2284.63331198584
0.307125902991045,2284.64331198584
0.300838058241734,2284.65331198584
0.29497332153202,2284.66331198584
0.288763926375952,2284.67331198584
0.282157093821634,2284.68331198584
0.275911293337124,2284.69331198584
0.269512804784666,2284.70331198584
0.263629564270106,2284.71331198584
0.257837909261243,2284.72331198584
0.251925635884785,2284.73331198584
0.245822339211503,2284.74331198584
0.23958797998559,2284.75331198584
0.23281774356356,2284.76331198584
0.227042386666497,2284.77331198584
0.222210025334227,2284.78331198584
0.218564142427995,2284.79331198584
0.218398402497942,2284.80331198584
0.221536912203069,2284.81331198584
0.228428213454427,2284.82331198584
0.238860442337827,2284.83331198584
0.252733780304773,2284.84331198584
0.268993868300988,2284.85331198584
0.287430014864727,2284.86331198584
0.306880217188384,2284.87331198584
0.32622642686718,2284.88331198584
0.3446768355153,2284.89331198584
0.361463229351104,2284.90331198584
0.37583022945111,2284.91331198584
0.387832308989438,2284.92331198584
0.397740745010898,2284.93331198584
0.405446247205861,2284.94331198584
0.411963151591192,2284.95331198584
0.417665501771886,2284.96331198584
0.422312147059524,2284.97331198584
0.426162291570229,2284.98331198584
0.429864114267853,2284.99331198584
0.433522231443385,2285.00331198584
0.436468927421522,2285.01331198584
0.438875132363496,2285.02331198584
0.440358749841503,2285.03331198584
0.440942573296855,2285.04331198584
0.440936234196888,2285.05331198584
0.440794600273187,2285.06331198584
0.440619764706088,2285.07331198584
0.439909466900571,2285.08331198584
0.43894279202402,2285.09331198584
0.438120610720001,2285.10331198584
0.437252019586608,2285.11331198584
0.436774761616604,2285.12331198584
0.436600857569774,2285.13331198584
0.436383616047394,2285.14331198584
0.43635224810568,2285.15331198584
0.436178119149223,2285.16331198584
0.435753985311107,2285.17331198584
0.435068395633236,2285.18331198584
0.43394777535998,2285.19331198584
0.433222324590882,2285.20331198584
0.432589226592979,2285.21331198584
0.43154921378406,2285.22331198584
0.429985358559735,2285.23331198584
0.428167641661008,2285.24331198584
0.425757898611239,2285.25331198584
0.423099187347652,2285.26331198584
0.419712910226843,2285.27331198584
0.416030849367456,2285.28331198584
0.412671120445218,2285.29331198584
0.408983353966573,2285.30331198584
0.405322718915684,2285.31331198584
0.401348724107782,2285.32331198584
0.396778615455182,2285.33331198584
0.39138465042941,2285.34331198584
0.38527597787876,2285.35331198584
0.378965098590777,2285.36331198584
0.372501592920207,2285.37331198584
0.365810693201174,2285.38331198584
0.359257534586703,2285.39331198584
0.352525478286043,2285.40331198584
0.346402733250271,2285.41331198584
0.340577685792091,2285.42331198584
0.334965920309558,2285.43331198584
0.328969869657713,2285.44331198584
0.32233428078823,2285.45331198584
0.315589195427687,2285.46331198584
0.308865721970145,2285.47331198584
0.301694632480608,2285.48331198584
0.294858179359873,2285.49331198584
0.287669496655585,2285.50331198584
0.281147593293998,2285.51331198584
0.274561567577719,2285.52331198584
0.267892580648822,2285.53331198584
0.260890174023645,2285.54331198584
0.253851600115381,2285.55331198584
0.247039633796846,2285.56331198584
0.241631462359168,2285.57331198584
0.238368581062092,2285.58331198584
0.238725914661544,2285.59331198584
0.243111013943156,2285.60331198584
0.251492513880575,2285.61331198584
0.264013546369128,2285.62331198584
0.279574992135715,2285.63331198584
0.297864368897056,2285.64331198584
0.317350947402429,2285.65331198584
0.337620841435195,2285.66331198584
0.35725898839642,2285.67331198584
0.375583062870596,2285.68331198584
0.39237832438206,2285.69331198584
0.406747254546963,2285.70331198584
0.418288311561691,2285.71331198584
0.427319907665668,2285.72331198584
0.433852391341049,2285.73331198584
0.438540510479087,2285.74331198584
0.442053702163789,2285.75331198584
0.44496930139997,2285.76331198584
0.447581829168971,2285.77331198584
0.449542783858121,2285.78331198584
0.45067579536077,2285.79331198584
0.45035659063853,2285.80331198584
0.44988678187206,2285.81331198584
0.449095565090763,2285.82331198584
0.448051283962136,2285.83331198584
0.44652460680563,2285.84331198584
0.444655034686495,2285.85331198584
0.442496672241365,2285.86331198584
0.440304616084328,2285.87331198584
0.438086677867438,2285.88331198584
0.436059515729471,2285.89331198584
0.434427572007019,2285.90331198584
0.432738751792601,2285.91331198584
0.431668995480438,2285.92331198584
0.430549679657155,2285.93331198584
0.429925431481489,2285.94331198584
0.429909211328731,2285.95331198584
0.429524195606898,2285.96331198584
0.429280065209427,2285.97331198584
0.429158316609866,2285.98331198584
0.428748953249819,2285.99331198584
0.428099202990426,2286.00331198584
0.427446890736664,2286.01331198584
0.425732248540871,2286.02331198584
0.423014089804261,2286.03331198584
0.419235744333705,2286.04331198584
0.414941598088642,2286.05331198584
0.409485624043946,2286.06331198584
0.404036942826076,2286.07331198584
0.398606213634746,2286.08331198584
0.392619229153184,2286.09331198584
0.387651488533661,2286.10331198584
0.382731938401211,2286.11331198584
0.377303898842403,2286.12331198584
0.371933355816012,2286.13331198584
0.365929219415238,2286.14331198584
0.359420761004488,2286.15331198584
0.352995033713968,2286.16331198584
0.346647175496055,2286.17331198584
0.339966705786351,2286.18331198584
0.333002659073808,2286.19331198584
0.32563037004799,2286.20331198584
0.318298080851215,2286.21331198584
0.310799198969301,2286.22331198584
0.303487406257433,2286.23331198584
0.296098200305748,2286.24331198584
0.288673665546399,2286.25331198584
0.281042688940436,2286.26331198584
0.273362779626903,2286.27331198584
0.265916819767207,2286.28331198584
0.258554892378235,2286.29331198584
0.251211877636601,2286.30331198584
0.244470550066506,2286.31331198584
0.238030273953558,2286.32331198584
0.232104861008131,2286.33331198584
0.227723391066815,2286.34331198584
0.225750956370391,2286.35331198584
0.227254060819056,2286.36331198584
0.233294835451721,2286.37331198584
0.244549918020511,2286.38331198584
0.260546367336465,2286.39331198584
0.280071678959295,2286.40331198584
0.302001051102365,2286.41331198584
0.325824031406528,2286.42331198584
0.34968634167908,2286.43331198584
0.372585570801244,2286.44331198584
0.393471000129099,2286.45331198584
0.411773200179048,2286.46331198584
0.427810583736565,2286.47331198584
0.440952057365863,2286.48331198584
0.451891318824429,2286.49331198584
0.460868247005021,2286.50331198584
0.468012503022948,2286.51331198584
0.47418076351247,2286.52331198584
0.478708977346252,2286.53331198584
0.482252982200086,2286.54331198584
0.485429788381902,2286.55331198584
0.487929999438881,2286.56331198584
0.490087274785438,2286.57331198584
0.491803683208353,2286.58331198584
0.493057755713215,2286.59331198584
0.493577372415049,2286.60331198584
0.493222022976758,2286.61331198584
0.492286959877442,2286.62331198584
0.490688779575137,2286.63331198584
0.488380204302174,2286.64331198584
0.48499339655738,2286.65331198584
0.481266318666938,2286.66331198584
0.477798740181726,2286.67331198584
0.474660537615633,2286.68331198584
0.472471311115267,2286.69331198584
0.471018405703322,2286.70331198584
0.470376338382377,2286.71331198584
0.469845806769551,2286.72331198584
0.469571467163951,2286.73331198584
0.468969098438035,2286.74331198584
0.468025929519269,2286.75331198584
0.466900817712769,2286.76331198584
0.465364501240771,2286.77331198584
0.463211085122998,2286.78331198584
0.460610349999426,2286.79331198584
0.457012182802424,2286.80331198584
0.452410268433974,2286.81331198584
0.447200490039724,2286.82331198584
0.441951555778463,2286.83331198584
0.436277938829626,2286.84331198584
0.430404620519016,2286.85331198584
0.424525042850973,2286.86331198584
0.418407274157755,2286.87331198584
0.411981312746601,2286.88331198584
0.405143018729845,2286.89331198584
0.398592829354842,2286.90331198584
0.391026988411314,2286.91331198584
0.383586985157171,2286.92331198584
0.37597635908728,2286.93331198584
0.368030102231208,2286.94331198584
0.360171392516816,2286.95331198584
0.351835286859609,2286.96331198584
0.343760864789909,2286.97331198584
0.335266830146,2286.98331198584
0.3271593026864,2286.99331198584
0.31887099659449,2287.00331198584
0.310879731308064,2287.01331198584
0.303402459307544,2287.02331198584
0.296364386471074,2287.03331198584
0.289329288968179,2287.04331198584
0.282125081005463,2287.05331198584
0.274726123959121,2287.06331198584
0.267189714041764,2287.07331198584
0.260394961451003,2287.08331198584
0.255735063053213,2287.09331198584
0.254707449184271,2287.10331198584
0.258080185215182,2287.11331198584
0.26594474603102,2287.12331198584
0.279105182858259,2287.13331198584
0.296551890767501,2287.14331198584
0.317705681781613,2287.15331198584
0.341051110388106,2287.16331198584
0.365306436093424,2287.17331198584
0.390053824094906,2287.18331198584
0.413088021469834,2287.19331198584
0.434258182558226,2287.20331198584
0.452457798608776,2287.21331198584
0.467088803462869,2287.22331198584
0.479176949404516,2287.23331198584
0.487383011028386,2287.24331198584
0.493855577853294,2287.25331198584
0.497478108773777,2287.26331198584
0.499924233546423,2287.27331198584
0.501708049590694,2287.28331198584
0.502988703124773,2287.29331198584
0.503706529067339,2287.30331198584
0.50406896945458,2287.31331198584
0.503997136200773,2287.32331198584
