PPG,time
0.395293903683364,2613.71215263915
0.778772142364535,2613.72215263915
0.681980350438121,2613.73215263915
0.727822340902893,2613.74215263915
0.690379721487429,2613.75215263915
0.703624715234669,2613.76215263915
0.682998245024369,2613.77215263915
0.682197656778274,2613.78215263915
0.668594550315578,2613.79215263915
0.661309859815462,2613.80215263915
0.650308304604373,2613.81215263915
0.640020170320848,2613.82215263915
0.629839375695641,2613.83215263915
0.61975345933623,2613.84215263915
0.610031220779699,2613.85215263915
0.600682967483844,2613.86215263915
0.59150682018397,2613.87215263915
0.583370747971609,2613.88215263915
0.575930059870365,2613.89215263915
0.568717068968357,2613.90215263915
0.561323550366237,2613.91215263915
0.554169338847604,2613.92215263915
0.546683817522187,2613.93215263915
0.538853588593652,2613.94215263915
0.531470508050342,2613.95215263915
0.524003374748725,2613.96215263915
0.516670776279923,2613.97215263915
0.509425411297122,2613.98215263915
0.501581874110408,2613.99215263915
0.493567650112189,2614.00215263915
0.485554529763578,2614.01215263915
0.477444088246795,2614.02215263915
0.469177560888758,2614.03215263915
0.461025275929594,2614.04215263915
0.452662311565539,2614.05215263915
0.444088901057974,2614.06215263915
0.435540835097836,2614.07215263915
0.426807392951251,2614.08215263915
0.418333311933756,2614.09215263915
0.409801427408062,2614.10215263915
0.401530858520411,2614.11215263915
0.39393183542492,2614.12215263915
0.386077021555339,2614.13215263915
0.378815015535157,2614.14215263915
0.371596438702761,2614.15215263915
0.36390927084352,2614.16215263915
0.356530978847299,2614.17215263915
0.349121884186161,2614.18215263915
0.341931832927961,2614.19215263915
0.334728679007989,2614.20215263915
0.327680621420742,2614.21215263915
0.320845505060343,2614.22215263915
0.315020062073255,2614.23215263915
0.309506378176541,2614.24215263915
0.303900400469481,2614.25215263915
0.298369968683246,2614.26215263915
0.292252403100046,2614.27215263915
0.285556188444362,2614.28215263915
0.278255572689899,2614.29215263915
0.270947221585609,2614.30215263915
0.264283610204928,2614.31215263915
0.257736421268106,2614.32215263915
0.251200914258018,2614.33215263915
0.244943374736969,2614.34215263915
0.238838297433342,2614.35215263915
0.231733497528189,2614.36215263915
0.224857139724913,2614.37215263915
0.217520427776216,2614.38215263915
0.209921130547528,2614.39215263915
0.202550777899023,2614.40215263915
0.196391327836784,2614.41215263915
0.193179628839594,2614.42215263915
0.194379794131447,2614.43215263915
0.203652861372309,2614.44215263915
0.222948144556147,2614.45215263915
0.254285236507081,2614.46215263915
0.29832985134544,2614.47215263915
0.354455265489299,2614.48215263915
0.419600619284553,2614.49215263915
0.48996155506576,2614.50215263915
0.562216326830851,2614.51215263915
0.631826133235481,2614.52215263915
0.69615762271701,2614.53215263915
0.752600068636544,2614.54215263915
0.799588523273336,2614.55215263915
0.837497147849126,2614.56215263915
0.865667348111297,2614.57215263915
0.885916147564868,2614.58215263915
0.898341828691362,2614.59215263915
0.904490107912059,2614.60215263915
0.905590491880936,2614.61215263915
0.902709944585294,2614.62215263915
0.897368983846535,2614.63215263915
0.890217274708732,2614.64215263915
0.881453329509042,2614.65215263915
0.872262675760607,2614.66215263915
0.861372655375042,2614.67215263915
0.849273832518372,2614.68215263915
0.835748539549744,2614.69215263915
0.820529806858082,2614.70215263915
0.804068636261551,2614.71215263915
0.786922699398611,2614.72215263915
0.770652417489612,2614.73215263915
0.755493698970255,2614.74215263915
0.743139926552329,2614.75215263915
0.734263653148221,2614.76215263915
0.728919483954758,2614.77215263915
0.726897382612898,2614.78215263915
0.728082398249503,2614.79215263915
0.731809369649965,2614.80215263915
0.738400238617746,2614.81215263915
0.74629626138104,2614.82215263915
0.754940306008421,2614.83215263915
0.763466912618875,2614.84215263915
0.770833677704266,2614.85215263915
0.776935534672057,2614.86215263915
0.78134741100789,2614.87215263915
0.783606441668341,2614.88215263915
0.783454050758925,2614.89215263915
0.781117700513174,2614.90215263915
0.776823927963434,2614.91215263915
0.770504324741523,2614.92215263915
0.76282759818402,2614.93215263915
0.753737678968794,2614.94215263915
0.743245355283336,2614.95215263915
0.732309067710678,2614.96215263915
0.721167172161859,2614.97215263915
0.709647825054881,2614.98215263915
0.698055081672407,2614.99215263915
0.68687668048791,2615.00215263915
0.675293354640905,2615.01215263915
0.664035352196887,2615.02215263915
0.652881152887215,2615.03215263915
0.642021372856443,2615.04215263915
0.631420666144978,2615.05215263915
0.621362744106553,2615.06215263915
0.611358175306773,2615.07215263915
0.601275089197269,2615.08215263915
0.591021907023634,2615.09215263915
0.580612684311261,2615.10215263915
0.570302764813706,2615.11215263915
0.560246618598184,2615.12215263915
0.55043062947139,2615.13215263915
0.54049419745432,2615.14215263915
0.530868621054827,2615.15215263915
0.521261767851994,2615.16215263915
0.511623924765116,2615.17215263915
0.502795428413695,2615.18215263915
0.494058263758322,2615.19215263915
0.486153126892188,2615.20215263915
0.477966481788245,2615.21215263915
0.469105942116537,2615.22215263915
0.459512959068737,2615.23215263915
0.449374923488739,2615.24215263915
0.439546693601412,2615.25215263915
0.429825538314553,2615.26215263915
0.42004223637822,2615.27215263915
0.410444687377616,2615.28215263915
0.401338507117185,2615.29215263915
0.392458457362033,2615.30215263915
0.383628344264091,2615.31215263915
0.375054570240176,2615.32215263915
0.366321331521005,2615.33215263915
0.358040766139132,2615.34215263915
0.349651582533039,2615.35215263915
0.341955247504749,2615.36215263915
0.334637449283691,2615.37215263915
0.327608009857499,2615.38215263915
0.32111043800769,2615.39215263915
0.314386329646778,2615.40215263915
0.307392880402266,2615.41215263915
0.300419989480672,2615.42215263915
0.293169477990117,2615.43215263915
0.285894960335361,2615.44215263915
0.278189909427187,2615.45215263915
0.270548906994894,2615.46215263915
0.26311498836275,2615.47215263915
0.255007007478371,2615.48215263915
0.247052422457029,2615.49215263915
0.239796038694826,2615.50215263915
0.23233003666549,2615.51215263915
0.225698584087161,2615.52215263915
0.219594539445768,2615.53215263915
0.214486610841729,2615.54215263915
0.211409395680794,2615.55215263915
0.212593242940032,2615.56215263915
0.220665668686063,2615.57215263915
0.238214514901226,2615.58215263915
0.267029718149921,2615.59215263915
0.307626589770533,2615.60215263915
0.359882605245368,2615.61215263915
0.421051212617829,2615.62215263915
0.488985621880418,2615.63215263915
0.559323693879141,2615.64215263915
0.628436658957657,2615.65215263915
0.6932129719786,2615.66215263915
0.750258211439217,2615.67215263915
0.798259410210279,2615.68215263915
0.835992170628478,2615.69215263915
0.863392749996969,2615.70215263915
0.881105562385718,2615.71215263915
0.890292641076383,2615.72215263915
0.892053039880418,2615.73215263915
0.887887466282793,2615.74215263915
0.880085751083838,2615.75215263915
0.869335414907341,2615.76215263915
0.857186671793668,2615.77215263915
0.843367842473431,2615.78215263915
0.828540759180014,2615.79215263915
0.812358032009288,2615.80215263915
0.794708657377455,2615.81215263915
0.775975937225418,2615.82215263915
0.756211867763555,2615.83215263915
0.735800589766887,2615.84215263915
0.71576070630781,2615.85215263915
0.698067170326467,2615.86215263915
0.683116319663645,2615.87215263915
0.671415984749447,2615.88215263915
0.664287165418751,2615.89215263915
0.661764341086832,2615.90215263915
0.662983390225842,2615.91215263915
0.668377140582812,2615.92215263915
0.676665781156691,2615.93215263915
0.686805916215232,2615.94215263915
0.698147516163407,2615.95215263915
0.709313747019934,2615.96215263915
0.719502436772044,2615.97215263915
0.727972821824729,2615.98215263915
0.733917548017858,2615.99215263915
0.73741356599906,2616.00215263915
0.737821686386049,2616.01215263915
0.735621759427857,2616.02215263915
0.731483540589088,2616.03215263915
0.725369473359412,2616.04215263915
0.717956674490068,2616.05215263915
0.708974133821374,2616.06215263915
0.698571424880142,2616.07215263915
0.68737971431941,2616.08215263915
0.675546189119464,2616.09215263915
0.663817329904138,2616.10215263915
0.651366268953996,2616.11215263915
0.638811449682767,2616.12215263915
0.626424738235205,2616.13215263915
0.614757129970127,2616.14215263915
0.603649789290927,2616.15215263915
0.592913289487852,2616.16215263915
0.5826028308278,2616.17215263915
0.572232230519573,2616.18215263915
0.562020091658316,2616.19215263915
0.552466188862768,2616.20215263915
0.542729468524948,2616.21215263915
0.533332799353437,2616.22215263915
0.5243267245516,2616.23215263915
0.515306117621765,2616.24215263915
0.506784958426537,2616.25215263915
0.498572113157653,2616.26215263915
0.490269556717061,2616.27215263915
0.481828260037218,2616.28215263915
0.47295322700611,2616.29215263915
0.463883743131248,2616.30215263915
0.455186912199216,2616.31215263915
0.446552197401231,2616.32215263915
0.437405327654188,2616.33215263915
0.42828653542187,2616.34215263915
0.418436122704934,2616.35215263915
0.408355789473815,2616.36215263915
0.398839790065391,2616.37215263915
0.388486286228184,2616.38215263915
0.37894204052734,2616.39215263915
0.36902108333828,2616.40215263915
0.35864391763999,2616.41215263915
0.348153566924687,2616.42215263915
0.338239710950224,2616.43215263915
0.328386318585422,2616.44215263915
0.319031076528062,2616.45215263915
0.310016698035258,2616.46215263915
0.300999894082932,2616.47215263915
0.292425475738968,2616.48215263915
0.284540056842761,2616.49215263915
0.276987274540765,2616.50215263915
0.269788756022111,2616.51215263915
0.262449310491783,2616.52215263915
0.255319323537586,2616.53215263915
0.247982905717113,2616.54215263915
0.24073127222798,2616.55215263915
0.233430871689726,2616.56215263915
0.226688259817611,2616.57215263915
0.220140386263329,2616.58215263915
0.213735090312632,2616.59215263915
0.207337550794011,2616.60215263915
0.201068764918865,2616.61215263915
0.195697837592011,2616.62215263915
0.193037298658319,2616.63215263915
0.195021254787863,2616.64215263915
0.204756253933519,2616.65215263915
0.224817843807731,2616.66215263915
0.256925136582314,2616.67215263915
0.302663915117562,2616.68215263915
0.361511789195338,2616.69215263915
0.431975332017426,2616.70215263915
0.510491083009653,2616.71215263915
0.592789962094209,2616.72215263915
0.674700284252486,2616.73215263915
0.75239852327077,2616.74215263915
0.822200452172663,2616.75215263915
0.881116218350794,2616.76215263915
0.928132723445225,2616.77215263915
0.96305147292346,2616.78215263915
0.98667800177384,2616.79215263915
1.00045113952173,2616.80215263915
1.00611436812261,2616.81215263915
1.00634752066019,2616.82215263915
1.0022848132309,2616.83215263915
0.995866044301539,2616.84215263915
0.987495839893388,2616.85215263915
0.978312175589108,2616.86215263915
0.968319472685682,2616.87215263915
0.957277767100713,2616.88215263915
0.945596764218548,2616.89215263915
0.931985541955163,2616.90215263915
0.91661920767933,2616.91215263915
0.899656530885042,2616.92215263915
0.88124941950924,2616.93215263915
0.862871236734667,2616.94215263915
0.844846557467212,2616.95215263915
0.82950567422208,2616.96215263915
0.816584657692607,2616.97215263915
0.808384863065368,2616.98215263915
0.803827377899142,2616.99215263915
0.802860949040435,2617.00215263915
0.805634963777639,2617.01215263915
0.810981164662515,2617.02215263915
0.817515281157719,2617.03215263915
0.825240522012425,2617.04215263915
0.833374220951689,2617.05215263915
0.840997885511801,2617.06215263915
0.847484445688925,2617.07215263915
0.852110096545027,2617.08215263915
0.854500697020917,2617.09215263915
0.854533167642612,2617.10215263915
0.852322039118509,2617.11215263915
0.847673124323198,2617.12215263915
0.840250315259781,2617.13215263915
0.830680318111067,2617.14215263915
0.81960895711178,2617.15215263915
0.807619971029465,2617.16215263915
0.795106359678031,2617.17215263915
0.78232374591563,2617.18215263915
0.768934428590728,2617.19215263915
0.755545249327791,2617.20215263915
0.741955562715489,2617.21215263915
0.728026149301847,2617.22215263915
0.714144094953412,2617.23215263915
0.700322593946787,2617.24215263915
0.687100313122839,2617.25215263915
0.674702441169283,2617.26215263915
0.662766981720318,2617.27215263915
0.651670723855459,2617.28215263915
0.640727647560936,2617.29215263915
0.630226867306185,2617.30215263915
0.619726032895795,2617.31215263915
0.609632764433707,2617.32215263915
0.599090788415094,2617.33215263915
0.588670119741708,2617.34215263915
0.577958635412638,2617.35215263915
0.567655663391393,2617.36215263915
0.557006545018822,2617.37215263915
0.546188112563606,2617.38215263915
0.535710007171254,2617.39215263915
0.524870319326744,2617.40215263915
0.514396195386294,2617.41215263915
0.503270255037636,2617.42215263915
0.492136813847654,2617.43215263915
0.48106799444318,2617.44215263915
0.469853989521333,2617.45215263915
0.458838733125573,2617.46215263915
0.448068691070024,2617.47215263915
0.437686941061168,2617.48215263915
0.426970202919064,2617.49215263915
0.416661811869074,2617.50215263915
0.406511692402521,2617.51215263915
0.396222665802319,2617.52215263915
0.3859599844617,2617.53215263915
0.3757719201857,2617.54215263915
0.365943815964297,2617.55215263915
0.356416727743044,2617.56215263915
0.346966053667555,2617.57215263915
0.337239948059212,2617.58215263915
0.327701235452656,2617.59215263915
0.317791644093116,2617.60215263915
0.307911225352725,2617.61215263915
0.298573813815288,2617.62215263915
0.289112742617894,2617.63215263915
0.280709741584169,2617.64215263915
0.272454440661831,2617.65215263915
0.264840306137956,2617.66215263915
0.257108813737758,2617.67215263915
0.248970712433832,2617.68215263915
0.240443014580975,2617.69215263915
0.231580640542304,2617.70215263915
0.222222996145068,2617.71215263915
0.212391137681303,2617.72215263915
0.202665845757466,2617.73215263915
0.193047168049347,2617.74215263915
0.182966932357291,2617.75215263915
0.173090119374837,2617.76215263915
0.163169198979506,2617.77215263915
0.154032446104921,2617.78215263915
0.148194986968905,2617.79215263915
0.148483947395709,2617.80215263915
0.158152163366819,2617.81215263915
0.180738999825162,2617.82215263915
0.21784092605501,2617.83215263915
0.270283149388489,2617.84215263915
0.336348500838058,2617.85215263915
0.413041069367303,2617.86215263915
0.496707625563503,2617.87215263915
0.582773555290119,2617.88215263915
0.667081511578244,2617.89215263915
0.744360653098629,2617.90215263915
0.811748653517734,2617.91215263915
0.866873562685241,2617.92215263915
0.908761330503011,2617.93215263915
0.938094430239767,2617.94215263915
0.955723377587453,2617.95215263915
0.963826388435426,2617.96215263915
0.964306103022636,2617.97215263915
0.958923220723531,2617.98215263915
0.949598373539004,2617.99215263915
0.937727274829355,2618.00215263915
0.923988190917748,2618.01215263915
0.909637800793327,2618.02215263915
0.895021818060893,2618.03215263915
0.880393817191009,2618.04215263915
0.864526606996093,2618.05215263915
0.847353655790201,2618.06215263915
0.828808360410196,2618.07215263915
0.80844228778981,2618.08215263915
0.787351903327922,2618.09215263915
0.76612250400827,2618.10215263915
0.746892487986318,2618.11215263915
0.730071435682528,2618.12215263915
0.717171070459217,2618.13215263915
0.709177627263323,2618.14215263915
0.705408044618139,2618.15215263915
0.705831528130748,2618.16215263915
0.709064975316368,2618.17215263915
0.715223455367929,2618.18215263915
0.722962243420411,2618.19215263915
0.731263532744605,2618.20215263915
0.739408984002711,2618.21215263915
0.746848748975983,2618.22215263915
0.75285713518304,2618.23215263915
0.756854816689245,2618.24215263915
0.758919323513072,2618.25215263915
0.757301703828166,2618.26215263915
0.753077969788216,2618.27215263915
0.745571716025229,2618.28215263915
0.735592639065221,2618.29215263915
0.723452814656965,2618.30215263915
0.709950619071772,2618.31215263915
0.695979538136684,2618.32215263915
0.681494065985159,2618.33215263915
0.66645334150487,2618.34215263915
0.651305537381933,2618.35215263915
0.635739036489434,2618.36215263915
0.620323284811965,2618.37215263915
0.605093844948707,2618.38215263915
0.589762803149306,2618.39215263915
0.575442159034414,2618.40215263915
0.561482786881698,2618.41215263915
0.547839091091368,2618.42215263915
0.535064074326567,2618.43215263915
0.522744280955759,2618.44215263915
0.510312381981532,2618.45215263915
0.497586408450722,2618.46215263915
0.484979704798218,2618.47215263915
0.472970507590992,2618.48215263915
0.460940004026263,2618.49215263915
0.449402031890791,2618.50215263915
0.438103234751275,2618.51215263915
0.426779671065379,2618.52215263915
0.415605469013525,2618.53215263915
0.404134951371779,2618.54215263915
0.392524952005395,2618.55215263915
0.380470951025002,2618.56215263915
0.368465616308036,2618.57215263915
0.356510222064425,2618.58215263915
0.344479237666123,2618.59215263915
0.333135843117295,2618.60215263915
0.322129466354124,2618.61215263915
0.311397164836799,2618.62215263915
0.301044539874193,2618.63215263915
0.290864297362115,2618.64215263915
0.280464596278437,2618.65215263915
0.269952233446668,2618.66215263915
0.25974947197301,2618.67215263915
0.249157377535171,2618.68215263915
0.238571763484279,2618.69215263915
0.227023107883192,2618.70215263915
0.21608303197811,2618.71215263915
0.205785068982254,2618.72215263915
0.195380120178322,2618.73215263915
0.185685419835231,2618.74215263915
0.176451642910864,2618.75215263915
0.167285488970708,2618.76215263915
0.157475953900695,2618.77215263915
0.148001087875069,2618.78215263915
0.138480185595168,2618.79215263915
0.128993830516384,2618.80215263915
0.119837058813303,2618.81215263915
0.111265308107606,2618.82215263915
0.103639019324966,2618.83215263915
0.0963559238082067,2618.84215263915
0.0894460245046395,2618.85215263915
0.081829517179803,2618.86215263915
0.0744050144400848,2618.87215263915
0.0671949003543571,2618.88215263915
0.0604941432263866,2618.89215263915
0.0540476897246672,2618.90215263915
0.0479620247763463,2618.91215263915
0.0415929012084518,2618.92215263915
0.0342787827642387,2618.93215263915
0.0257492676874265,2618.94215263915
0.0161198476670498,2618.95215263915
0.00668632586211726,2618.96215263915
-0.00177843175370948,2618.97215263915
-0.00698005317526628,2618.98215263915
-0.00703682757935169,2618.99215263915
0.00200163931876952,2619.00215263915
0.0232734224169466,2619.01215263915
0.0586901414655727,2619.02215263915
0.109179203202749,2619.03215263915
0.173552592883269,2619.04215263915
0.249135775782474,2619.05215263915
0.332021959183717,2619.06215263915
0.418973244234115,2619.07215263915
0.504862070315691,2619.08215263915
0.585795554766641,2619.09215263915
0.657907848009068,2619.10215263915
0.718811604815317,2619.11215263915
0.766201500072946,2619.12215263915
0.800196651844437,2619.13215263915
0.820837844208404,2619.14215263915
0.829643906528165,2619.15215263915
0.829519914420769,2619.16215263915
0.822257307668969,2619.17215263915
0.810473655816908,2619.18215263915
0.795334554763431,2619.19215263915
0.777925734002425,2619.20215263915
0.759353008256297,2619.21215263915
0.738997817991384,2619.22215263915
0.717222911168416,2619.23215263915
0.693841620016812,2619.24215263915
0.668540500704751,2619.25215263915
0.643199940695906,2619.26215263915
0.617566842528314,2619.27215263915
0.593337726094444,2619.28215263915
0.571221660156213,2619.29215263915
0.552521655654984,2619.30215263915
0.538559068568228,2619.31215263915
0.52947914943818,2619.32215263915
0.52577080507736,2619.33215263915
0.527324117772181,2619.34215263915
0.533360168007449,2619.35215263915
0.543299544168963,2619.36215263915
0.555751977545677,2619.37215263915
0.569277202572027,2619.38215263915
0.583041280504988,2619.39215263915
0.595990784713771,2619.40215263915
0.60769081437191,2619.41215263915
0.616917022915043,2619.42215263915
0.622658404983792,2619.43215263915
0.625071726005247,2619.44215263915
0.623623412650118,2619.45215263915
0.619330171974494,2619.46215263915
0.612108874768913,2619.47215263915
0.602645700871985,2619.48215263915
0.591566093675757,2619.49215263915
0.578688694062145,2619.50215263915
0.564759646615287,2619.51215263915
0.550535025543112,2619.52215263915
0.535949691239821,2619.53215263915
0.521415222593624,2619.54215263915
0.506717801718099,2619.55215263915
0.492369093862452,2619.56215263915
0.477808138773187,2619.57215263915
0.463848623960922,2619.58215263915
0.450683492828096,2619.59215263915
0.438349785132059,2619.60215263915
0.426791226526218,2619.61215263915
0.415956211939693,2619.62215263915
0.405138288322191,2619.63215263915
0.395202809137426,2619.64215263915
0.385071490937621,2619.65215263915
0.375832284504855,2619.66215263915
0.36656166185826,2619.67215263915
0.35699489748273,2619.68215263915
0.34744201866462,2619.69215263915
0.337527028561083,2619.70215263915
0.32743840928799,2619.71215263915
0.317490972636476,2619.72215263915
0.307703888482403,2619.73215263915
0.297594511104527,2619.74215263915
0.287208831657914,2619.75215263915
0.276426749813105,2619.76215263915
0.265499656932894,2619.77215263915
0.255106810859354,2619.78215263915
0.24462925358298,2619.79215263915
0.23473751058588,2619.80215263915
0.224838371958705,2619.81215263915
0.214896259207043,2619.82215263915
0.204715565846173,2619.83215263915
0.193927661548032,2619.84215263915
0.183038100028587,2619.85215263915
0.171822934933009,2619.86215263915
0.160281290012738,2619.87215263915
0.149371904864361,2619.88215263915
0.139133214358959,2619.89215263915
0.129126396281588,2619.90215263915
0.119599281986641,2619.91215263915
0.110922018549924,2619.92215263915
0.102824841681199,2619.93215263915
0.0946902747892226,2619.94215263915
0.0869256915297261,2619.95215263915
0.0788593557918342,2619.96215263915
0.0711463206737516,2619.97215263915
0.0629350935479814,2619.98215263915
0.055083166186807,2619.99215263915
0.0474727566250948,2620.00215263915
0.0396687643959461,2620.01215263915
0.032700815493548,2620.02215263915
0.0256605286453914,2620.03215263915
0.0183840761865973,2620.04215263915
0.0109577586823598,2620.05215263915
0.0038129026069635,2620.06215263915
-0.00201803342948718,2620.07215263915
-0.00636026209526063,2620.08215263915
-0.00527506725357238,2620.09215263915
0.00422153443673288,2620.10215263915
0.0257719377556624,2620.11215263915
0.0620935277826188,2620.12215263915
0.114265515616164,2620.13215263915
0.182518140712755,2620.14215263915
0.264241698070859,2620.15215263915
0.355757740832206,2620.16215263915
0.452394738646073,2620.17215263915
0.549455815821647,2620.18215263915
0.640942011422693,2620.19215263915
0.722444914825674,2620.20215263915
0.790559253665239,2620.21215263915
0.844671237096499,2620.22215263915
0.884089197377197,2620.23215263915
0.910094505157208,2620.24215263915
0.92489009188338,2620.25215263915
0.930059233326714,2620.26215263915
0.928971729062752,2620.27215263915
0.922649492626015,2620.28215263915
0.912474218151128,2620.29215263915
0.899746171210738,2620.30215263915
0.884562565313643,2620.31215263915
0.867886775256047,2620.32215263915
0.849831475721534,2620.33215263915
0.830776179172146,2620.34215263915
0.810629235436574,2620.35215263915
0.789357487816973,2620.36215263915
0.767532978556269,2620.37215263915
0.744987796719411,2620.38215263915
0.722656694606312,2620.39215263915
0.701266540481287,2620.40215263915
0.682079261450544,2620.41215263915
0.665711135703875,2620.42215263915
0.653157280356765,2620.43215263915
0.646021793049207,2620.44215263915
0.643455598172941,2620.45215263915
0.645318743193859,2620.46215263915
0.650511491407988,2620.47215263915
0.658112268976233,2620.48215263915
0.667539055285559,2620.49215263915
0.677461526363359,2620.50215263915
0.687582670794113,2620.51215263915
0.696595482852972,2620.52215263915
0.704092674725246,2620.53215263915
0.708675702403064,2620.54215263915
0.71042335659212,2620.55215263915
0.708665441390298,2620.56215263915
0.704283285710748,2620.57215263915
0.697264642546867,2620.58215263915
0.687762738620499,2620.59215263915
0.676925810598692,2620.60215263915
0.664564994660704,2620.61215263915
0.651642661616776,2620.62215263915
0.637068439441054,2620.63215263915
0.621346269365938,2620.64215263915
0.604495997472086,2620.65215263915
0.587354756893659,2620.66215263915
0.570168308173885,2620.67215263915
0.554021484999264,2620.68215263915
0.538460812214094,2620.69215263915
0.523040285230442,2620.70215263915
0.508226537055639,2620.71215263915
0.493584850296338,2620.72215263915
0.480077666053866,2620.73215263915
0.466812404404687,2620.74215263915
0.454316302535771,2620.75215263915
0.442239328256884,2620.76215263915
0.430133397572142,2620.77215263915
0.418223718439862,2620.78215263915
0.406608372449176,2620.79215263915
0.394847910435644,2620.80215263915
0.383114244105894,2620.81215263915
0.371164023115884,2620.82215263915
0.358839980922208,2620.83215263915
0.346634011907929,2620.84215263915
0.334563805872368,2620.85215263915
0.323104770087307,2620.86215263915
0.311249596208121,2620.87215263915
0.299720246407631,2620.88215263915
0.288294064460215,2620.89215263915
0.277263223539361,2620.90215263915
0.265931307629338,2620.91215263915
0.254624249484184,2620.92215263915
0.243465876011491,2620.93215263915
0.232163132363243,2620.94215263915
0.221062463955037,2620.95215263915
0.210069631514938,2620.96215263915
0.19928699083529,2620.97215263915
0.188958864561114,2620.98215263915
0.178583853442052,2620.99215263915
0.16800941927283,2621.00215263915
0.157418004383065,2621.01215263915
0.146965399922178,2621.02215263915
0.136384376375225,2621.03215263915
0.126022939824578,2621.04215263915
0.116111747747871,2621.05215263915
0.106950061823138,2621.06215263915
0.0978180236516179,2621.07215263915
0.0886491975680163,2621.08215263915
0.0798473907235689,2621.09215263915
0.0713731659968795,2621.10215263915
0.0629364092274216,2621.11215263915
0.054702707694681,2621.12215263915
0.0462285659892536,2621.13215263915
0.0378720085376627,2621.14215263915
0.0291378554799461,2621.15215263915
0.0198820070708692,2621.16215263915
0.0105431336891677,2621.17215263915
0.00149740346775213,2621.18215263915
-0.00739396160830755,2621.19215263915
-0.0163356484330584,2621.20215263915
-0.0252988459230171,2621.21215263915
-0.0341974701902326,2621.22215263915
-0.0429488784090994,2621.23215263915
-0.0521484692789722,2621.24215263915
-0.0611912341677241,2621.25215263915
-0.0710804593520533,2621.26215263915
-0.0811221532661255,2621.27215263915
-0.0914834391438357,2621.28215263915
-0.102011588230601,2621.29215263915
-0.112039652407237,2621.30215263915
-0.122243163919072,2621.31215263915
-0.132703803719753,2621.32215263915
-0.14269287364557,2621.33215263915
-0.152853290258289,2621.34215263915
-0.162586552756184,2621.35215263915
-0.171813057521809,2621.36215263915
-0.180990840016804,2621.37215263915
-0.190250300760615,2621.38215263915
-0.199142706737605,2621.39215263915
-0.208830397932909,2621.40215263915
-0.218696188356055,2621.41215263915
-0.228922239447708,2621.42215263915
-0.239112519336456,2621.43215263915
-0.248006905777305,2621.44215263915
-0.253902224915297,2621.45215263915
-0.254169231511664,2621.46215263915
-0.244769455522154,2621.47215263915
-0.222764843087584,2621.48215263915
-0.184065165111799,2621.49215263915
-0.128194686319614,2621.50215263915
-0.0546769336570806,2621.51215263915
0.0339369509847519,2621.52215263915
0.133460411243757,2621.53215263915
0.239286559963883,2621.54215263915
0.345882999396672,2621.55215263915
0.44764414797418,2621.56215263915
0.539593460758192,2621.57215263915
0.619165857637661,2621.58215263915
0.6831406139206,2621.59215263915
0.731157384131144,2621.60215263915
0.762745870088213,2621.61215263915
0.779780892269237,2621.62215263915
0.785141952815805,2621.63215263915
0.780584380241307,2621.64215263915
0.769606818255386,2621.65215263915
0.754253058109129,2621.66215263915
0.735314952114857,2621.67215263915
0.714467656970247,2621.68215263915
0.692374309471596,2621.69215263915
0.670402149051278,2621.70215263915
0.647954363230744,2621.71215263915
0.625146258811441,2621.72215263915
0.601648191626866,2621.73215263915
0.577443472914193,2621.74215263915
0.552752146217338,2621.75215263915
0.527739856884922,2621.76215263915
0.503908485896631,2621.77215263915
0.482590197427214,2621.78215263915
0.464343922251149,2621.79215263915
0.450736902758682,2621.80215263915
0.442040526172584,2621.81215263915
0.438435805356926,2621.82215263915
0.439889445460818,2621.83215263915
0.446077645895988,2621.84215263915
0.455641629161508,2621.85215263915
0.467889489271397,2621.86215263915
0.481810290913862,2621.87215263915
0.496821814751139,2621.88215263915
0.511757673327152,2621.89215263915
0.525320258050776,2621.90215263915
0.536284374758658,2621.91215263915
0.544117786443367,2621.92215263915
0.548124492298431,2621.93215263915
0.548235786327436,2621.94215263915
0.545654013855487,2621.95215263915
0.540098083753716,2621.96215263915
0.532274953533188,2621.97215263915
0.52198843060474,2621.98215263915
0.509452341957848,2621.99215263915
0.495707497658676,2622.00215263915
0.480516504428725,2622.01215263915
0.464361395226893,2622.02215263915
0.447904724917791,2622.03215263915
0.431161026718636,2622.04215263915
0.415144593694693,2622.05215263915
0.399397641730753,2622.06215263915
0.384640548592763,2622.07215263915
0.37065532902985,2622.08215263915
0.357101304065457,2622.09215263915
0.344717001564352,2622.10215263915
0.332621800185778,2622.11215263915
0.321320386888033,2622.12215263915
0.311306092970488,2622.13215263915
0.301965128408823,2622.14215263915
0.293995690806049,2622.15215263915
0.287031903428782,2622.16215263915
0.280866715118386,2622.17215263915
0.274471203226049,2622.18215263915
0.268004302613997,2622.19215263915
0.261713828945541,2622.20215263915
0.255062325540831,2622.21215263915
0.248932891287211,2622.22215263915
0.242725233137029,2622.23215263915
0.236529079638858,2622.24215263915
0.230692099853089,2622.25215263915
0.223920285743426,2622.26215263915
0.217951445281929,2622.27215263915
0.212313155610768,2622.28215263915
0.205991516117711,2622.29215263915
0.20011288124048,2622.30215263915
0.193517531322108,2622.31215263915
0.186658109065774,2622.32215263915
0.179602257443497,2622.33215263915
0.172316437818074,2622.34215263915
0.165152556539619,2622.35215263915
0.157427396325528,2622.36215263915
0.149923624302888,2622.37215263915
0.142569413042853,2622.38215263915
0.134968319484111,2622.39215263915
0.126911190219048,2622.40215263915
0.11947162686142,2622.41215263915
0.112935544247928,2622.42215263915
0.106854594015464,2622.43215263915
0.101692801585666,2622.44215263915
0.0969130070909461,2622.45215263915
0.0927507297587092,2622.46215263915
0.0881911609021738,2622.47215263915
0.0836377848168774,2622.48215263915
0.0790325853331633,2622.49215263915
0.0732835727628847,2622.50215263915
0.06668048587389,2622.51215263915
0.0590674362343986,2622.52215263915
0.0510832711289097,2622.53215263915
0.0430126439758746,2622.54215263915
0.0354680987516411,2622.55215263915
0.0297972647096911,2622.56215263915
0.0274548271742198,2622.57215263915
0.0322014867224551,2622.58215263915
0.0462894358494646,2622.59215263915
0.0742320478919077,2622.60215263915
0.117558232527078,2622.61215263915
0.177219275400278,2622.62215263915
0.251863431946808,2622.63215263915
0.338005228106667,2622.64215263915
0.430313722332193,2622.65215263915
0.523711454485555,2622.66215263915
0.612545945176977,2622.67215263915
0.692904231400489,2622.68215263915
0.76220324841477,2622.69215263915
0.818155556522882,2622.70215263915
0.859917163642163,2622.71215263915
0.887575406610024,2622.72215263915
0.902883672925737,2622.73215263915
0.907517240674338,2622.74215263915
0.903854863085142,2622.75215263915
0.893675865641698,2622.76215263915
0.878189031086657,2622.77215263915
0.859374329343454,2622.78215263915
0.837432262102658,2622.79215263915
0.813795580095698,2622.80215263915
0.788557242166747,2622.81215263915
0.761795699435146,2622.82215263915
0.733517471679795,2622.83215263915
0.70397493603592,2622.84215263915
0.673584968156235,2622.85215263915
0.643247161663282,2622.86215263915
0.614297735703598,2622.87215263915
0.588305769507603,2622.88215263915
0.566308080362887,2622.89215263915
0.549223867119691,2622.90215263915
0.537486740832157,2622.91215263915
0.53140674630802,2622.92215263915
0.530659228176618,2622.93215263915
0.534983123624774,2622.94215263915
0.543549973289881,2622.95215263915
0.555201482768974,2622.96215263915
0.569318042480179,2622.97215263915
0.583718161607808,2622.98215263915
0.597486048689667,2622.99215263915
0.609749201773614,2623.00215263915
0.619146622567864,2623.01215263915
0.626118273535756,2623.02215263915
0.629147707591426,2623.03215263915
0.629031027371382,2623.04215263915
0.625065605674461,2623.05215263915
0.617405259919216,2623.06215263915
0.607219438666979,2623.07215263915
0.594840413771105,2623.08215263915
0.581548857501112,2623.09215263915
0.567373413669901,2623.10215263915
0.55228517467699,2623.11215263915
0.536613206040593,2623.12215263915
0.520855770704894,2623.13215263915
0.504218273681396,2623.14215263915
0.48817948904362,2623.15215263915
0.472693838747967,2623.16215263915
0.457518796963845,2623.17215263915
0.442904084256521,2623.18215263915
0.42904958459942,2623.19215263915
0.416055884866325,2623.20215263915
0.403674236159674,2623.21215263915
0.39118935359354,2623.22215263915
0.37850073399017,2623.23215263915
0.366081326358002,2623.24215263915
0.354158217188271,2623.25215263915
0.3431030418202,2623.26215263915
0.333101065524561,2623.27215263915
0.323075020943904,2623.28215263915
0.313211940117344,2623.29215263915
0.302810782140823,2623.30215263915
0.291341815533266,2623.31215263915
0.279968896527208,2623.32215263915
0.267976491177652,2623.33215263915
0.256411795629982,2623.34215263915
0.244560097175806,2623.35215263915
0.232542494265025,2623.36215263915
0.221069812407929,2623.37215263915
0.208735348024898,2623.38215263915
0.196121758306957,2623.39215263915
0.183146171250078,2623.40215263915
0.170164971189237,2623.41215263915
0.15649610245056,2623.42215263915
0.142640555654599,2623.43215263915
0.128531337906874,2623.44215263915
0.114634968812262,2623.45215263915
0.101333718715108,2623.46215263915
0.0873462947760971,2623.47215263915
0.074206513927531,2623.48215263915
0.0615761201658861,2623.49215263915
0.0500332907287203,2623.50215263915
0.0387151749928945,2623.51215263915
0.0277277530609458,2623.52215263915
0.0168469610106396,2623.53215263915
0.00575487969009841,2623.54215263915
-0.00531633457721117,2623.55215263915
-0.0172454245036934,2623.56215263915
-0.0296956903456488,2623.57215263915
-0.04189217376134,2623.58215263915
-0.0533364961457417,2623.59215263915
-0.0620604227242478,2623.60215263915
-0.0663729818559932,2623.61215263915
-0.0628286517612217,2623.62215263915
-0.048932428274076,2623.63215263915
-0.0213873496222906,2623.64215263915
0.0220094175191596,2623.65215263915
0.0823326916060104,2623.66215263915
0.158205017674961,2623.67215263915
0.246425393027535,2623.68215263915
0.342365024827871,2623.69215263915
0.440101719067395,2623.70215263915
0.533914834191544,2623.71215263915
0.619788823197073,2623.72215263915
0.694106777431623,2623.73215263915
0.754443716510261,2623.74215263915
0.800278056776598,2623.75215263915
0.831774609159748,2623.76215263915
0.850495063438337,2623.77215263915
0.858076994822742,2623.78215263915
0.856656651538272,2623.79215263915
0.848929343251123,2623.80215263915
0.835776128861899,2623.81215263915
0.819452523526633,2623.82215263915
0.800914327733244,2623.83215263915
0.780341507969637,2623.84215263915
0.759373042997969,2623.85215263915
0.736018528943614,2623.86215263915
0.711167594406848,2623.87215263915
0.684706251455882,2623.88215263915
0.657319753634877,2623.89215263915
0.629708555185896,2623.90215263915
0.60262925316637,2623.91215263915
0.576886651238215,2623.92215263915
0.553100826913604,2623.93215263915
0.533099320777461,2623.94215263915
0.517190700381348,2623.95215263915
0.50767701310669,2623.96215263915
0.503604766367727,2623.97215263915
0.505156866130163,2623.98215263915
0.512313705824232,2623.99215263915
0.522870624455142,2624.00215263915
0.535929967175845,2624.01215263915
0.549690346258953,2624.02215263915
0.562697734547057,2624.03215263915
0.574712653564758,2624.04215263915
0.585153886470311,2624.05215263915
0.593201848417676,2624.06215263915
0.598684843863473,2624.07215263915
0.600794757592227,2624.08215263915
0.599623016489906,2624.09215263915
0.59535747258188,2624.10215263915
0.587179151257417,2624.11215263915
0.576570204082375,2624.12215263915
0.563507564305941,2624.13215263915
0.548928359142919,2624.14215263915
0.53369473730345,2624.15215263915
0.51768458427352,2624.16215263915
0.501625322015841,2624.17215263915
0.485121163590305,2624.18215263915
0.468567146050054,2624.19215263915
0.452541796849374,2624.20215263915
0.436682361384004,2624.21215263915
0.42152377059449,2624.22215263915
0.407122792760119,2624.23215263915
0.393519137010988,2624.24215263915
0.380866379745996,2624.25215263915
0.368781051555514,2624.26215263915
0.357010225158909,2624.27215263915
0.345485469045687,2624.28215263915
0.33399332563518,2624.29215263915
0.323430775817447,2624.30215263915
0.312966489071376,2624.31215263915
0.302641379896961,2624.32215263915
0.29215723364261,2624.33215263915
0.280828503103385,2624.34215263915
0.269134766867857,2624.35215263915
0.25730453113097,2624.36215263915
0.245867188124217,2624.37215263915
0.234360060194096,2624.38215263915
0.223011997551733,2624.39215263915
0.211783538941536,2624.40215263915
0.200682678552935,2624.41215263915
0.189554477631763,2624.42215263915
0.177856805508313,2624.43215263915
0.166137213085429,2624.44215263915
0.153784757426528,2624.45215263915
0.141375028267746,2624.46215263915
0.129406204469562,2624.47215263915
0.116838438649265,2624.48215263915
0.104224365343797,2624.49215263915
0.0915709539528917,2624.50215263915
0.0790578112087985,2624.51215263915
0.0661833654933943,2624.52215263915
0.0535169364233209,2624.53215263915
0.0405861136761397,2624.54215263915
0.0275559786322169,2624.55215263915
0.0145042431970169,2624.56215263915
0.00205824204829809,2624.57215263915
-0.00833815730602319,2624.58215263915
-0.0140538502263437,2624.59215263915
-0.011687436518563,2624.60215263915
0.00161278605772962,2624.61215263915
0.0292672103495036,2624.62215263915
0.0717073803871784,2624.63215263915
0.128309030955712,2624.64215263915
0.197135541006924,2624.65215263915
0.273494411534801,2624.66215263915
0.352458170805679,2624.67215263915
0.429417119282066,2624.68215263915
0.500092328529988,2624.69215263915
0.561101887400378,2624.70215263915
0.610765469276566,2624.71215263915
0.648477622797605,2624.72215263915
0.674442493570977,2624.73215263915
0.688839954950824,2624.74215263915
0.693332029346743,2624.75215263915
0.689523923436965,2624.76215263915
0.679326686208186,2624.77215263915
0.664450362196508,2624.78215263915
0.646366360800281,2624.79215263915
0.625493220354913,2624.80215263915
0.602616218096871,2624.81215263915
0.57802608306971,2624.82215263915
0.551533946510153,2624.83215263915
0.523176864109666,2624.84215263915
0.493054566379424,2624.85215263915
0.462079712914489,2624.86215263915
0.43089976545014,2624.87215263915
0.400039118649139,2624.88215263915
0.369515373961807,2624.89215263915
0.342033897302337,2624.90215263915
0.318439008855684,2624.91215263915
0.300062031883916,2624.92215263915
0.287623152756815,2624.93215263915
0.280588661117128,2624.94215263915
0.278625527033477,2624.95215263915
0.280407427412672,2624.96215263915
0.284919028642023,2624.97215263915
0.290966541235145,2624.98215263915
0.297096058863359,2624.99215263915
0.301885861574591,2625.00215263915
0.304426562487726,2625.01215263915
0.303808629336863,2625.02215263915
0.29987327375264,2625.03215263915
0.293077885025177,2625.04215263915
0.283720961662288,2625.05215263915
0.271331717628226,2625.06215263915
0.256534284403861,2625.07215263915
0.23976227453267,2625.08215263915
0.221467222561563,2625.09215263915
0.202630430417491,2625.10215263915
0.182969507660677,2625.11215263915
0.16341980589973,2625.12215263915
0.143962245715159,2625.13215263915
0.124837737674405,2625.14215263915
0.105774014912433,2625.15215263915
0.0866958605906325,2625.16215263915
0.0680105283666257,2625.17215263915
0.0495666720764382,2625.18215263915
0.0310527446560296,2625.19215263915
0.0127469463389614,2625.20215263915
-0.00522581189832041,2625.21215263915
-0.0236633564912801,2625.22215263915
-0.0423724492178061,2625.23215263915
-0.0610622184497218,2625.24215263915
-0.0793913134975636,2625.25215263915
-0.097867450729891,2625.26215263915
-0.115913057693951,2625.27215263915
-0.133647226384875,2625.28215263915
-0.150970662221871,2625.29215263915
-0.167736548383387,2625.30215263915
-0.183916517289996,2625.31215263915
-0.20003378950886,2625.32215263915
-0.216144544712576,2625.33215263915
-0.232276936631912,2625.34215263915
-0.249323228358977,2625.35215263915
-0.265932258998628,2625.36215263915
-0.282646261211737,2625.37215263915
-0.299286971248098,2625.38215263915
-0.315641024152289,2625.39215263915
-0.33191849060549,2625.40215263915
-0.348199770085995,2625.41215263915
-0.364307431642931,2625.42215263915
-0.380311429334935,2625.43215263915
-0.395663061304888,2625.44215263915
-0.409967080977774,2625.45215263915
-0.422636970483258,2625.46215263915
-0.431339681146441,2625.47215263915
-0.434110240288414,2625.48215263915
-0.428320847454871,2625.49215263915
-0.411758311140343,2625.50215263915
-0.383066148516446,2625.51215263915
-0.343013349465123,2625.52215263915
-0.293496902184206,2625.53215263915
-0.237125566226187,2625.54215263915
-0.178151145625493,2625.55215263915
-0.12057555283228,2625.56215263915
-0.0672341323623929,2625.57215263915
-0.0218065261247094,2625.58215263915
0.014956701128473,2625.59215263915
0.0425917719087972,2625.60215263915
0.0609936191130225,2625.61215263915
0.0709315005290806,2625.62215263915
0.0735519384014227,2625.63215263915
0.0694512685211881,2625.64215263915
0.0611389593422902,2625.65215263915
0.0494042551655822,2625.66215263915
0.0352978961663326,2625.67215263915
0.0190327081027861,2625.68215263915
0.00111472680723444,2625.69215263915
-0.0179765293328887,2625.70215263915
-0.036558221868609,2625.71215263915
-0.0549397554934153,2625.72215263915
-0.0743741225704004,2625.73215263915
-0.0952813546409012,2625.74215263915
-0.116998025733948,2625.75215263915
-0.139376283040694,2625.76215263915
-0.161305386541572,2625.77215263915
-0.181976702734476,2625.78215263915
-0.201151150850709,2625.79215263915
-0.217101804830513,2625.80215263915
-0.2301456092615,2625.81215263915
-0.239418297192498,2625.82215263915
-0.244349409974962,2625.83215263915
-0.246059437156955,2625.84215263915
-0.244913538924119,2625.85215263915
-0.242021593136105,2625.86215263915
-0.239024284580903,2625.87215263915
-0.236598891793594,2625.88215263915
-0.235197607949975,2625.89215263915
-0.235143887721102,2625.90215263915
-0.236873507033184,2625.91215263915
-0.240264374472859,2625.92215263915
-0.245009577465019,2625.93215263915
-0.252312141334167,2625.94215263915
-0.26146497033791,2625.95215263915
-0.27195453903692,2625.96215263915
-0.283863011826151,2625.97215263915
-0.296203022389274,2625.98215263915
-0.30866909159101,2625.99215263915
-0.32167517691575,2626.00215263915
-0.335491617925495,2626.01215263915
-0.349592065118419,2626.02215263915
-0.36352397803158,2626.03215263915
-0.377062969441448,2626.04215263915
-0.390036179769275,2626.05215263915
-0.402860301958504,2626.06215263915
-0.415490028930971,2626.07215263915
-0.428332593311457,2626.08215263915
-0.441206430860118,2626.09215263915
-0.454081530513855,2626.10215263915
-0.467090599750214,2626.11215263915
-0.47961495963166,2626.12215263915
-0.491655242948431,2626.13215263915
-0.503607978263061,2626.14215263915
-0.51542667984087,2626.15215263915
-0.52695247420958,2626.16215263915
-0.538144480130744,2626.17215263915
-0.549122839706464,2626.18215263915
-0.560401225131624,2626.19215263915
-0.572545503662078,2626.20215263915
-0.584682470643305,2626.21215263915
-0.596549792759781,2626.22215263915
-0.608413071431159,2626.23215263915
-0.619777738560089,2626.24215263915
-0.631047729281409,2626.25215263915
-0.642822621156179,2626.26215263915
-0.655569067906771,2626.27215263915
-0.668881941508558,2626.28215263915
-0.682161950170791,2626.29215263915
-0.69454537991477,2626.30215263915
-0.705685863333509,2626.31215263915
-0.712770267583789,2626.32215263915
-0.713971166925071,2626.33215263915
-0.70708383796367,2626.34215263915
-0.690596510138266,2626.35215263915
-0.664775843120367,2626.36215263915
-0.630436803096943,2626.37215263915
-0.589622563624012,2626.38215263915
-0.545216924573805,2626.39215263915
-0.500003422916058,2626.40215263915
-0.457641394406927,2626.41215263915
-0.419686237105945,2626.42215263915
-0.387850408747477,2626.43215263915
-0.363040733057227,2626.44215263915
-0.344877430241339,2626.45215263915
-0.333861828560245,2626.46215263915
-0.327800927908613,2626.47215263915
-0.326140867500248,2626.48215263915
-0.327339079536542,2626.49215263915
-0.331043776765194,2626.50215263915
-0.336740464978283,2626.51215263915
-0.343720365192295,2626.52215263915
-0.351517068879518,2626.53215263915
-0.360007312824859,2626.54215263915
-0.369387735401291,2626.55215263915
-0.380462492644103,2626.56215263915
-0.393993042209897,2626.57215263915
-0.409157684366525,2626.58215263915
-0.426256218118219,2626.59215263915
-0.444067846049782,2626.60215263915
-0.462121874454791,2626.61215263915
-0.479579433399784,2626.62215263915
-0.49463099897403,2626.63215263915
-0.507342144269835,2626.64215263915
-0.516536576021296,2626.65215263915
-0.523224017539509,2626.66215263915
-0.527118938188634,2626.67215263915
-0.528395615187578,2626.68215263915
-0.527780192940095,2626.69215263915
-0.52588701050586,2626.70215263915
-0.523748825614537,2626.71215263915
-0.521363755956641,2626.72215263915
-0.519913063331053,2626.73215263915
-0.519310466796906,2626.74215263915
-0.52006472830124,2626.75215263915
-0.522613031890249,2626.76215263915
-0.526297821273141,2626.77215263915
-0.531598452545305,2626.78215263915
-0.53756520024577,2626.79215263915
-0.544222045362727,2626.80215263915
-0.552241122126505,2626.81215263915
-0.560396556718358,2626.82215263915
-0.569586933771129,2626.83215263915
-0.579381608073402,2626.84215263915
-0.589676045491328,2626.85215263915
-0.600212396929313,2626.86215263915
-0.610491862226403,2626.87215263915
-0.620883773455652,2626.88215263915
-0.63106448899719,2626.89215263915
-0.641710842682532,2626.90215263915
-0.652538266891749,2626.91215263915
-0.663338614573258,2626.92215263915
-0.674021974109616,2626.93215263915
-0.684173364239672,2626.94215263915
-0.694361291401912,2626.95215263915
-0.704234049183066,2626.96215263915
-0.713173541479048,2626.97215263915
-0.721604495701527,2626.98215263915
-0.72921567789811,2626.99215263915
-0.736889501454637,2627.00215263915
-0.74459004917489,2627.01215263915
-0.752898513448939,2627.02215263915
-0.761368044088809,2627.03215263915
-0.770385041406172,2627.04215263915
-0.779704299416986,2627.05215263915
-0.789168177735468,2627.06215263915
-0.799000292991489,2627.07215263915
-0.808615680430288,2627.08215263915
-0.818529263234048,2627.09215263915
-0.828492467328762,2627.10215263915
-0.838557937823854,2627.11215263915
-0.848977355897706,2627.12215263915
-0.859229139258487,2627.13215263915
-0.869457933918352,2627.14215263915
-0.879009935766749,2627.15215263915
-0.888085391515772,2627.16215263915
-0.895678087110149,2627.17215263915
-0.900597872007267,2627.18215263915
-0.901478668140358,2627.19215263915
-0.895898601052578,2627.20215263915
-0.883316388719377,2627.21215263915
-0.862263118402652,2627.22215263915
-0.833566636485914,2627.23215263915
-0.798648636443564,2627.24215263915
-0.760139734549084,2627.25215263915
-0.721351692046031,2627.26215263915
-0.684184799798126,2627.27215263915
-0.650516060091232,2627.28215263915
-0.622746483119645,2627.29215263915
-0.600616909701149,2627.30215263915
-0.584323519495111,2627.31215263915
-0.573967924770657,2627.32215263915
-0.568627012984815,2627.33215263915
-0.567547708565982,2627.34215263915
-0.569626131676971,2627.35215263915
-0.57367346746736,2627.36215263915
-0.579394435072917,2627.37215263915
-0.586292788091988,2627.38215263915
-0.594156121623965,2627.39215263915
-0.602931797151166,2627.40215263915
-0.612987493872113,2627.41215263915
-0.623925240376964,2627.42215263915
-0.635939591420149,2627.43215263915
-0.648706653873788,2627.44215263915
-0.661791694120536,2627.45215263915
-0.67472141116126,2627.46215263915
-0.686991651012685,2627.47215263915
-0.697302298021494,2627.48215263915
-0.705497077905751,2627.49215263915
-0.710645208836106,2627.50215263915
-0.712697126809952,2627.51215263915
-0.712012225826304,2627.52215263915
-0.709461913201731,2627.53215263915
-0.705759102341355,2627.54215263915
-0.701085743552114,2627.55215263915
-0.696683302261609,2627.56215263915
-0.692353666926855,2627.57215263915
-0.687558504644178,2627.58215263915
-0.684173120622691,2627.59215263915
-0.682317515202671,2627.60215263915
-0.681817308556948,2627.61215263915
-0.682854121650869,2627.62215263915
-0.685604487106293,2627.63215263915
-0.689881442171569,2627.64215263915
-0.695418239705387,2627.65215263915
-0.702122994801841,2627.66215263915
-0.709733757550061,2627.67215263915
-0.717528385959493,2627.68215263915
-0.726108770362171,2627.69215263915
-0.73507685372055,2627.70215263915
-0.744437571553084,2627.71215263915
-0.754103948381594,2627.72215263915
-0.763993560600978,2627.73215263915
-0.773371665609594,2627.74215263915
-0.782231278126956,2627.75215263915
-0.791284413735854,2627.76215263915
-0.799630238796914,2627.77215263915
-0.808397760973067,2627.78215263915
-0.816909718522885,2627.79215263915
-0.825336365997205,2627.80215263915
-0.834169711522903,2627.81215263915
-0.843304489236959,2627.82215263915
-0.852580024401575,2627.83215263915
-0.861990482645759,2627.84215263915
-0.871057873463295,2627.85215263915
-0.879614621550907,2627.86215263915
-0.88861800710127,2627.87215263915
-0.897287071695183,2627.88215263915
-0.906469087172039,2627.89215263915
-0.915838238488659,2627.90215263915
-0.925365342149396,2627.91215263915
-0.934455765383915,2627.92215263915
-0.943500541316436,2627.93215263915
-0.952906516424806,2627.94215263915
-0.96232058718032,2627.95215263915
-0.971906675664641,2627.96215263915
-0.981668085956741,2627.97215263915
-0.991128815125981,2627.98215263915
-0.99994817705454,2627.99215263915
-1.00751368286996,2628.00215263915
-1.01428643130142,2628.01215263915
-1.01886042027975,2628.02215263915
-1.01947235295822,2628.03215263915
-1.01392818674622,2628.04215263915
-1.00120886235183,2628.05215263915
-0.980978265942017,2628.06215263915
-0.953565168443314,2628.07215263915
-0.92084713463048,2628.08215263915
-0.884880166571791,2628.09215263915
-0.848334435368808,2628.10215263915
-0.813594800895376,2628.11215263915
-0.782692647494549,2628.12215263915
-0.756991047993589,2628.13215263915
-0.736411646210667,2628.14215263915
-0.721539009058827,2628.15215263915
-0.711385033222961,2628.16215263915
-0.705343950019922,2628.17215263915
-0.70252665587508,2628.18215263915
-0.701928754476082,2628.19215263915
-0.703073897420696,2628.20215263915
-0.704916434935092,2628.21215263915
-0.707976754896559,2628.22215263915
-0.711884779925311,2628.23215263915
-0.715765042618051,2628.24215263915
-0.720209147433843,2628.25215263915
-0.724763923551299,2628.26215263915
-0.729948170295564,2628.27215263915
-0.736760563386642,2628.28215263915
-0.745043598070101,2628.29215263915
-0.754987656942251,2628.30215263915
-0.765898558748902,2628.31215263915
-0.776331624286886,2628.32215263915
-0.786169471555148,2628.33215263915
-0.79369957715033,2628.34215263915
-0.799203960175922,2628.35215263915
-0.80253331583225,2628.36215263915
-0.803533664651998,2628.37215263915
-0.803410699737022,2628.38215263915
-0.802710784638177,2628.39215263915
-0.801827730497723,2628.40215263915
-0.800801045635039,2628.41215263915
-0.800462437383102,2628.42215263915
-0.800687982869628,2628.43215263915
-0.801814050532803,2628.44215263915
-0.80351216106585,2628.45215263915
-0.80603929254687,2628.46215263915
-0.8086515233648,2628.47215263915
-0.811516776527431,2628.48215263915
-0.814421691458646,2628.49215263915
-0.818370067638667,2628.50215263915
-0.822581367021438,2628.51215263915
-0.827408102055522,2628.52215263915
-0.83246702944218,2628.53215263915
-0.838268442738448,2628.54215263915
-0.844436687975675,2628.55215263915
-0.851319110371132,2628.56215263915
-0.85808654755276,2628.57215263915
-0.864885436312992,2628.58215263915
-0.871550143617133,2628.59215263915
-0.877963109216055,2628.60215263915
-0.884525779302365,2628.61215263915
-0.890508169138715,2628.62215263915
-0.896940422374404,2628.63215263915
-0.90332732331878,2628.64215263915
-0.909857088153537,2628.65215263915
-0.916132234866411,2628.66215263915
-0.922042785702635,2628.67215263915
-0.928411492074469,2628.68215263915
-0.934199841232352,2628.69215263915
-0.939648868086624,2628.70215263915
-0.944727170312373,2628.71215263915
-0.950126576299641,2628.72215263915
-0.956032208136283,2628.73215263915
-0.96250766219203,2628.74215263915
-0.96915994220466,2628.75215263915
-0.975943930625332,2628.76215263915
-0.982477179760748,2628.77215263915
-0.989151057991416,2628.78215263915
-0.995582578341235,2628.79215263915
-1.00215523354823,2628.80215263915
-1.00851114912819,2628.81215263915
-1.01433212347317,2628.82215263915
-1.02035189924173,2628.83215263915
-1.02596959440162,2628.84215263915
-1.03156774596203,2628.85215263915
-1.03743272038496,2628.86215263915
-1.04364052684274,2628.87215263915
-1.04944967769641,2628.88215263915
-1.05475467479501,2628.89215263915
-1.05826378168341,2628.90215263915
-1.05854573198324,2628.91215263915
-1.05425066533863,2628.92215263915
-1.04310173882652,2628.93215263915
-1.02482894999581,2628.94215263915
-0.999567108107581,2628.95215263915
-0.968938424136574,2628.96215263915
-0.935053519281952,2628.97215263915
-0.900549625611845,2628.98215263915
-0.866778905447004,2628.99215263915
-0.836518763538465,2629.00215263915
-0.810486295874142,2629.01215263915
-0.789081828381981,2629.02215263915
-0.772572366675863,2629.03215263915
-0.760235167684826,2629.04215263915
-0.751372487204899,2629.05215263915
-0.745273475255875,2629.06215263915
-0.740944406691768,2629.07215263915
-0.738645580083263,2629.08215263915
-0.73730347279067,2629.09215263915
-0.737313381589263,2629.10215263915
-0.73784744278507,2629.11215263915
-0.738780648862099,2629.12215263915
-0.739321837284863,2629.13215263915
-0.740218045026243,2629.14215263915
-0.742730798776628,2629.15215263915
-0.746543285523346,2629.16215263915
-0.75209984126979,2629.17215263915
-0.758642046791289,2629.18215263915
-0.765622037264181,2629.19215263915
-0.771775182660829,2629.20215263915
-0.776695193402384,2629.21215263915
-0.78051375888541,2629.22215263915
-0.783058413557912,2629.23215263915
-0.784234874525711,2629.24215263915
-0.784027851851199,2629.25215263915
-0.78264825697579,2629.26215263915
-0.779779264751534,2629.27215263915
-0.775771163611144,2629.28215263915
-0.771317160937362,2629.29215263915
-0.766536505229056,2629.30215263915
-0.762525252888067,2629.31215263915
-0.759682822814686,2629.32215263915
-0.758374961536314,2629.33215263915
-0.75830428492797,2629.34215263915
-0.759851653837476,2629.35215263915
-0.7624230481271,2629.36215263915
-0.765554135069152,2629.37215263915
-0.769058827634029,2629.38215263915
-0.7732521831492,2629.39215263915
-0.777677400165126,2629.40215263915
-0.782623054207371,2629.41215263915
-0.78721600461995,2629.42215263915
-0.791991617250108,2629.43215263915
-0.796914454799343,2629.44215263915
-0.801756633089361,2629.45215263915
-0.807466247338172,2629.46215263915
-0.813359269564902,2629.47215263915
-0.819571469066507,2629.48215263915
-0.825520762602426,2629.49215263915
-0.831323949004062,2629.50215263915
-0.836709958828702,2629.51215263915
-0.841696888003627,2629.52215263915
-0.84724098910102,2629.53215263915
-0.852201399564195,2629.54215263915
-0.85745399717477,2629.55215263915
-0.863196283631027,2629.56215263915
-0.868864919874172,2629.57215263915
-0.87414542490238,2629.58215263915
-0.879853839993673,2629.59215263915
-0.885526180504921,2629.60215263915
-0.891006240445445,2629.61215263915
-0.896843047463755,2629.62215263915
-0.902850882732787,2629.63215263915
-0.908517498439735,2629.64215263915
-0.914014537044815,2629.65215263915
-0.919792220343169,2629.66215263915
-0.924984733605999,2629.67215263915
-0.930329280786308,2629.68215263915
-0.936263627031733,2629.69215263915
-0.942122477151912,2629.70215263915
-0.948050539905524,2629.71215263915
-0.954286993428552,2629.72215263915
-0.960536301016834,2629.73215263915
-0.966358109946103,2629.74215263915
-0.972068786142574,2629.75215263915
-0.977143294927001,2629.76215263915
-0.982062596427864,2629.77215263915
-0.987109991814746,2629.78215263915
-0.992532311491713,2629.79215263915
-0.998086791086554,2629.80215263915
-1.0029355921601,2629.81215263915
-1.00781969871961,2629.82215263915
-1.01263962863808,2629.83215263915
-1.01758370265562,2629.84215263915
-1.02267477522017,2629.85215263915
-1.02785261928413,2629.86215263915
-1.03396574565621,2629.87215263915
-1.04018088964995,2629.88215263915
-1.04614064026908,2629.89215263915
-1.05188560374686,2629.90215263915
-1.05685358108277,2629.91215263915
-1.0599534755912,2629.92215263915
-1.06069156592414,2629.93215263915
-1.05788799101306,2629.94215263915
-1.04941267582021,2629.95215263915
-1.03431816762369,2629.96215263915
-1.01239467463484,2629.97215263915
-0.98422977175676,2629.98215263915
-0.952053360528886,2629.99215263915
-0.917731841351448,2630.00215263915
-0.882551428147037,2630.01215263915
-0.849134682111878,2630.02215263915
-0.818918809798037,2630.03215263915
-0.793220973435174,2630.04215263915
-0.772637413284001,2630.05215263915
-0.757118859691717,2630.06215263915
-0.74610388984699,2630.07215263915
-0.738630616679964,2630.08215263915
-0.734437736593473,2630.09215263915
-0.731975347091152,2630.10215263915
-0.731013198381256,2630.11215263915
-0.73128192506919,2630.12215263915
-0.732391409668825,2630.13215263915
-0.733882702226764,2630.14215263915
-0.735635082192089,2630.15215263915
-0.738205468169007,2630.16215263915
-0.74118885675113,2630.17215263915
-0.745498236449976,2630.18215263915
-0.749647007274452,2630.19215263915
-0.754653791267976,2630.20215263915
-0.759640970080378,2630.21215263915
-0.76404555678497,2630.22215263915
-0.766952735424674,2630.23215263915
-0.768394447455855,2630.24215263915
-0.767417618947684,2630.25215263915
-0.764063866668181,2630.26215263915
-0.758276736975491,2630.27215263915
-0.749993357423283,2630.28215263915
-0.740459383133456,2630.29215263915
-0.730091301209589,2630.30215263915
-0.71967616379152,2630.31215263915
-0.710478012918857,2630.32215263915
-0.701808764433296,2630.33215263915
-0.694476079671659,2630.34215263915
-0.688082746807744,2630.35215263915
-0.683196646421975,2630.36215263915
-0.679596275140905,2630.37215263915
-0.676586012664189,2630.38215263915
-0.674635138203416,2630.39215263915
-0.673425592283602,2630.40215263915
-0.67303012456065,2630.41215263915
-0.673399114043767,2630.42215263915
-0.674465904996028,2630.43215263915
-0.676041106793862,2630.44215263915
-0.678598071008655,2630.45215263915
-0.681139663877471,2630.46215263915
-0.683348330071396,2630.47215263915
-0.685151918010105,2630.48215263915
-0.686581726576677,2630.49215263915
-0.687589146487239,2630.50215263915
-0.68849440605364,2630.51215263915
-0.689791167811445,2630.52215263915
-0.691284632989083,2630.53215263915
-0.693179720624847,2630.54215263915
-0.694801870438834,2630.55215263915
-0.696920062282571,2630.56215263915
-0.698423453200857,2630.57215263915
-0.700224195276676,2630.58215263915
-0.702105834261601,2630.59215263915
-0.704391159296802,2630.60215263915
-0.706365784898974,2630.61215263915
-0.708507085253746,2630.62215263915
-0.711242655630504,2630.63215263915
-0.714248065114476,2630.64215263915
-0.717205711767484,2630.65215263915
-0.720432143744881,2630.66215263915
-0.724206944077885,2630.67215263915
-0.728092829475006,2630.68215263915
-0.73228714797714,2630.69215263915
-0.736221610578295,2630.70215263915
-0.74048920696177,2630.71215263915
-0.744737436784575,2630.72215263915
-0.748884432866343,2630.73215263915
-0.753471611834527,2630.74215263915
-0.757211674406434,2630.75215263915
-0.761010726101187,2630.76215263915
-0.765350949309337,2630.77215263915
-0.770204552385373,2630.78215263915
-0.775142907943104,2630.79215263915
-0.779853024761561,2630.80215263915
-0.783583670579655,2630.81215263915
-0.785945941737109,2630.82215263915
-0.785925515867683,2630.83215263915
-0.781920448172811,2630.84215263915
-0.772337850980866,2630.85215263915
-0.756313711756784,2630.86215263915
-0.733273504230479,2630.87215263915
-0.704614992476263,2630.88215263915
-0.671229912601006,2630.89215263915
-0.636092284680222,2630.90215263915
-0.600443614690499,2630.91215263915
-0.566276244576825,2630.92215263915
-0.535020500516167,2630.93215263915
-0.507784977635454,2630.94215263915
-0.485230600897227,2630.95215263915
-0.466954903040075,2630.96215263915
-0.452848415591759,2630.97215263915
-0.442757113820109,2630.98215263915
-0.435876463972747,2630.99215263915
-0.431216153904156,2631.00215263915
-0.428173254282497,2631.01215263915
-0.425715770992984,2631.02215263915
-0.42448492421621,2631.03215263915
-0.423948416488224,2631.04215263915
-0.424014947283618,2631.05215263915
-0.424150647789148,2631.06215263915
-0.425047693815251,2631.07215263915
-0.426910800962629,2631.08215263915
-0.429320120293447,2631.09215263915
-0.432488933001607,2631.10215263915
-0.435701295834244,2631.11215263915
-0.43866037569258,2631.12215263915
-0.441211965355623,2631.13215263915
-0.442240307101658,2631.14215263915
-0.442461607405952,2631.15215263915
-0.440515354199269,2631.16215263915
-0.437044609370423,2631.17215263915
-0.432031061589161,2631.18215263915
-0.42602504159319,2631.19215263915
-0.418852885703022,2631.20215263915
-0.410546661263632,2631.21215263915
-0.402242226061684,2631.22215263915
-0.394188248866107,2631.23215263915
-0.386866158231413,2631.24215263915
-0.380746918981641,2631.25215263915
-0.375962855240089,2631.26215263915
-0.371927168956932,2631.27215263915
-0.36955789970557,2631.28215263915
-0.368455682479431,2631.29215263915
-0.368137144836964,2631.30215263915
-0.369398725262661,2631.31215263915
-0.371347517303534,2631.32215263915
-0.374312923552112,2631.33215263915
-0.377579588004635,2631.34215263915
-0.381070065578905,2631.35215263915
-0.384580160455126,2631.36215263915
-0.38797271118068,2631.37215263915
-0.391558305048462,2631.38215263915
-0.395091295928091,2631.39215263915
-0.398858107406336,2631.40215263915
-0.402079440755276,2631.41215263915
-0.405354886669839,2631.42215263915
-0.408604383173513,2631.43215263915
-0.411400750285068,2631.44215263915
-0.4138657193271,2631.45215263915
-0.416488859541506,2631.46215263915
-0.419139597722289,2631.47215263915
-0.421599700998942,2631.48215263915
-0.424125220517414,2631.49215263915
-0.426733967925275,2631.50215263915
-0.430110996666232,2631.51215263915
-0.434113614469836,2631.52215263915
-0.438966944739102,2631.53215263915
-0.443597349541364,2631.54215263915
-0.448440213049315,2631.55215263915
-0.452864438396182,2631.56215263915
-0.456792316529699,2631.57215263915
-0.460813819232553,2631.58215263915
-0.464640886330398,2631.59215263915
-0.468652185527219,2631.60215263915
-0.473191100361589,2631.61215263915
-0.477928346693494,2631.62215263915
-0.482703736562666,2631.63215263915
-0.487696834462082,2631.64215263915
-0.492498824873809,2631.65215263915
-0.496859326822927,2631.66215263915
-0.501673506579288,2631.67215263915
-0.506044176629654,2631.68215263915
-0.510680973209219,2631.69215263915
-0.51513378529817,2631.70215263915
-0.518919097042317,2631.71215263915
-0.522914903328396,2631.72215263915
-0.527107649238623,2631.73215263915
-0.531303269192977,2631.74215263915
-0.536259062719547,2631.75215263915
-0.541352725106679,2631.76215263915
-0.546769426840412,2631.77215263915
-0.552037770021376,2631.78215263915
-0.55679077954123,2631.79215263915
-0.56123347391677,2631.80215263915
-0.564986996796875,2631.81215263915
-0.568145297236083,2631.82215263915
-0.569363227956153,2631.83215263915
-0.567611300953058,2631.84215263915
-0.56165015042642,2631.85215263915
-0.549227929654946,2631.86215263915
-0.530144839908893,2631.87215263915
-0.503942776061132,2631.88215263915
-0.471548398689374,2631.89215263915
-0.435096897876416,2631.90215263915
-0.396727290001788,2631.91215263915
-0.358090931799091,2631.92215263915
-0.322019294456363,2631.93215263915
-0.290891564457847,2631.94215263915
-0.26454809406209,2631.95215263915
-0.243537978834966,2631.96215263915
-0.227172856803287,2631.97215263915
-0.214551600297135,2631.98215263915
-0.204712304232652,2631.99215263915
-0.197127424548104,2632.00215263915
-0.191833850830553,2632.01215263915
-0.188394601439865,2632.02215263915
-0.186361355138279,2632.03215263915
-0.185066133816562,2632.04215263915
-0.184474483406241,2632.05215263915
-0.184864285553213,2632.06215263915
-0.186306622256747,2632.07215263915
-0.18835124462948,2632.08215263915
-0.19130880271431,2632.09215263915
-0.194642620025569,2632.10215263915
-0.19846162508112,2632.11215263915
-0.202492460968202,2632.12215263915
-0.206346765496585,2632.13215263915
-0.209784183536271,2632.14215263915
-0.21308451359893,2632.15215263915
-0.215276115089362,2632.16215263915
-0.216030207519057,2632.17215263915
-0.215278419214723,2632.18215263915
-0.213077833148475,2632.19215263915
-0.209586218906937,2632.20215263915
-0.204920671297034,2632.21215263915
-0.199414800232058,2632.22215263915
-0.193949373644787,2632.23215263915
-0.188713256970975,2632.24215263915
-0.183574996637937,2632.25215263915
-0.179054582078439,2632.26215263915
-0.175044693675337,2632.27215263915
-0.172143082622324,2632.28215263915
-0.170503587159732,2632.29215263915
-0.170725003897922,2632.30215263915
-0.171839395726902,2632.31215263915
-0.173780686044801,2632.32215263915
-0.176649562512221,2632.33215263915
-0.180075148540738,2632.34215263915
-0.183989460730007,2632.35215263915
-0.188072506865731,2632.36215263915
-0.193044334009911,2632.37215263915
-0.198592858065766,2632.38215263915
-0.204352772226461,2632.39215263915
-0.210360183695911,2632.40215263915
-0.216084349856167,2632.41215263915
-0.221417441401553,2632.42215263915
-0.226647690075689,2632.43215263915
-0.23119117091913,2632.44215263915
-0.235423589372628,2632.45215263915
-0.239815222947864,2632.46215263915
-0.24402570094605,2632.47215263915
-0.24858598555517,2632.48215263915
-0.252803918364704,2632.49215263915
-0.257581285687754,2632.50215263915
-0.262353794254911,2632.51215263915
-0.267251523837547,2632.52215263915
-0.272210159938356,2632.53215263915
-0.277340042603511,2632.54215263915
-0.282257695473653,2632.55215263915
-0.287145260685433,2632.56215263915
-0.292279721812134,2632.57215263915
-0.297208175355039,2632.58215263915
-0.302697407282516,2632.59215263915
-0.307995549306554,2632.60215263915
-0.313642312297732,2632.61215263915
-0.319097244652689,2632.62215263915
-0.324542987772498,2632.63215263915
-0.330356654239816,2632.64215263915
-0.336145749756614,2632.65215263915
-0.342167405707662,2632.66215263915
-0.348590597616989,2632.67215263915
-0.354705818949606,2632.68215263915
-0.36101569097639,2632.69215263915
-0.366995102627622,2632.70215263915
-0.372643969208617,2632.71215263915
-0.378065933552028,2632.72215263915
-0.383157833004223,2632.73215263915
-0.387786260666054,2632.74215263915
-0.39266853390584,2632.75215263915
-0.397006169642909,2632.76215263915
-0.401291659480017,2632.77215263915
-0.405399497298526,2632.78215263915
-0.409557730703561,2632.79215263915
-0.41354090642848,2632.80215263915
-0.418359804478394,2632.81215263915
-0.423287928413121,2632.82215263915
-0.428604141447615,2632.83215263915
-0.434741730348282,2632.84215263915
-0.440532611760676,2632.85215263915
-0.445857012900441,2632.86215263915
-0.450828434315366,2632.87215263915
-0.45379804667506,2632.88215263915
-0.454866527620593,2632.89215263915
-0.451882470335491,2632.90215263915
-0.442912048836959,2632.91215263915
-0.427315372326164,2632.92215263915
-0.404692165725725,2632.93215263915
-0.375782473514761,2632.94215263915
-0.34205532276449,2632.95215263915
-0.304985536349076,2632.96215263915
-0.267021528885475,2632.97215263915
-0.230539972165153,2632.98215263915
-0.197338342383553,2632.99215263915
-0.168591168590044,2633.00215263915
-0.145220963888007,2633.01215263915
-0.126366606070962,2633.02215263915
-0.112382697862809,2633.03215263915
-0.102229260830111,2633.04215263915
-0.0961291480497109,2633.05215263915
-0.0928363986783804,2633.06215263915
-0.0917226918256956,2633.07215263915
-0.0922901828547336,2633.08215263915
-0.0939505610144997,2633.09215263915
-0.0965396926620337,2633.10215263915
-0.0997717054436859,2633.11215263915
-0.103339019915751,2633.12215263915
-0.107792577467757,2633.13215263915
-0.113565381170313,2633.14215263915
-0.12040009750909,2633.15215263915
-0.127454867091575,2633.16215263915
-0.134709079411845,2633.17215263915
-0.140999466518545,2633.18215263915
-0.145500636544023,2633.19215263915
-0.14841423237531,2633.20215263915
-0.149305859808625,2633.21215263915
-0.147967141893269,2633.22215263915
-0.144495265296097,2633.23215263915
-0.138755399795343,2633.24215263915
-0.131382839436768,2633.25215263915
-0.123184640152478,2633.26215263915
-0.114978889809046,2633.27215263915
-0.107150211859209,2633.28215263915
-0.100502257243057,2633.29215263915
-0.0948225018106886,2633.30215263915
-0.0903415633111101,2633.31215263915
-0.0862944549268588,2633.32215263915
-0.0827506783185631,2633.33215263915
-0.0801027453205411,2633.34215263915
-0.0783213569695758,2633.35215263915
-0.0785261173601578,2633.36215263915
-0.0805030061374568,2633.37215263915
-0.0835850913624364,2633.38215263915
-0.088003637649696,2633.39215263915
-0.0931287768833872,2633.40215263915
-0.0993452697083486,2633.41215263915
-0.105557329701165,2633.42215263915
-0.111615580326295,2633.43215263915
-0.11744213769968,2633.44215263915
-0.122862335799895,2633.45215263915
-0.127763869698544,2633.46215263915
-0.132782632347733,2633.47215263915
-0.137571583351951,2633.48215263915
-0.141868919645638,2633.49215263915
-0.146587831671562,2633.50215263915
-0.150725565840198,2633.51215263915
-0.154295753713646,2633.52215263915
-0.157291737208323,2633.53215263915
-0.160013969226853,2633.54215263915
-0.162742627261127,2633.55215263915
-0.165638717955418,2633.56215263915
-0.168631251278024,2633.57215263915
-0.171814468883547,2633.58215263915
-0.175432504729413,2633.59215263915
-0.178991160655154,2633.60215263915
-0.182785231489367,2633.61215263915
-0.187064515788706,2633.62215263915
-0.191880034504837,2633.63215263915
-0.196730122899075,2633.64215263915
-0.201415939455071,2633.65215263915
-0.205654034705651,2633.66215263915
-0.209390090399082,2633.67215263915
-0.21275872188371,2633.68215263915
-0.216631778947968,2633.69215263915
-0.220995965356136,2633.70215263915
-0.226513736704366,2633.71215263915
-0.232720107385167,2633.72215263915
-0.239129117554727,2633.73215263915
-0.245579727178307,2633.74215263915
-0.251592177534381,2633.75215263915
-0.256954424225298,2633.76215263915
-0.261367574504178,2633.77215263915
-0.265934993354009,2633.78215263915
-0.27053681737088,2633.79215263915
-0.275427096001325,2633.80215263915
-0.280148274420828,2633.81215263915
-0.285534783222837,2633.82215263915
-0.290892365147933,2633.83215263915
-0.296005659142522,2633.84215263915
-0.300890659052125,2633.85215263915
-0.30522398123516,2633.86215263915
-0.308781177705219,2633.87215263915
-0.310334917080174,2633.88215263915
-0.309011732321678,2633.89215263915
-0.302407305563482,2633.90215263915
-0.288577511703818,2633.91215263915
-0.26684147701982,2633.92215263915
-0.237199225588171,2633.93215263915
-0.200524975493942,2633.94215263915
-0.159019192461922,2633.95215263915
-0.114248064097304,2633.96215263915
-0.0688587183343088,2633.97215263915
-0.0245766394191296,2633.98215263915
0.0159854049195738,2633.99215263915
0.0522495968490329,2634.00215263915
0.083528660055116,2634.01215263915
0.109480379578928,2634.02215263915
0.130723994008419,2634.03215263915
0.147019796301845,2634.04215263915
0.159062422142461,2634.05215263915
0.167068071498364,2634.06215263915
0.171789237227352,2634.07215263915
0.174689369905991,2634.08215263915
0.1759483646854,2634.09215263915
0.176405342129473,2634.10215263915
0.176489295464809,2634.11215263915
0.176052040039888,2634.12215263915
0.175128152378069,2634.13215263915
0.173582001002412,2634.14215263915
0.171208905155126,2634.15215263915
0.167698363091809,2634.16215263915
0.163190223102832,2634.17215263915
0.158536051974711,2634.18215263915
0.1537764818191,2634.19215263915
0.149384040800569,2634.20215263915
0.146116432064952,2634.21215263915
0.144145859960156,2634.22215263915
0.144060523914157,2634.23215263915
0.146143024980888,2634.24215263915
0.15076558153808,2634.25215263915
0.157574381153309,2634.26215263915
0.165863430967302,2634.27215263915
0.174498797715865,2634.28215263915
0.182991671091477,2634.29215263915
0.190601342280878,2634.30215263915
0.197236956649042,2634.31215263915
0.20311278570494,2634.32215263915
0.207300258111476,2634.33215263915
0.209935429410674,2634.34215263915
0.21079664055659,2634.35215263915
0.210250505783334,2634.36215263915
0.208508190971192,2634.37215263915
0.205987997415724,2634.38215263915
0.202428147797122,2634.39215263915
0.197636316127239,2634.40215263915
0.192880806574539,2634.41215263915
0.187487968061063,2634.42215263915
0.181615304801003,2634.43215263915
0.175344835254188,2634.44215263915
0.168877326985281,2634.45215263915
0.16256547161794,2634.46215263915
0.155678808994327,2634.47215263915
0.148977132091653,2634.48215263915
0.142182778343217,2634.49215263915
0.13494763685643,2634.50215263915
0.128152614847151,2634.51215263915
0.121033214889954,2634.52215263915
0.114651477913244,2634.53215263915
0.108282185654242,2634.54215263915
0.102373492573262,2634.55215263915
0.0963114041348023,2634.56215263915
0.0902075583979274,2634.57215263915
0.0841450688562446,2634.58215263915
0.0776649262164451,2634.59215263915
0.0715461799690426,2634.60215263915
0.0651460334718001,2634.61215263915
0.0589836539317672,2634.62215263915
0.0527122809246021,2634.63215263915
0.0463526258474791,2634.64215263915
0.0395432477569846,2634.65215263915
0.0326561766063883,2634.66215263915
0.0255623471300442,2634.67215263915
0.0185376204549861,2634.68215263915
0.0119104874388781,2634.69215263915
0.00541719742034366,2634.70215263915
-0.000961863387124087,2634.71215263915
-0.00729069483265127,2634.72215263915
-0.0138971385734872,2634.73215263915
-0.0207284657803201,2634.74215263915
-0.0277755539695864,2634.75215263915
-0.0346472293770478,2634.76215263915
-0.0421949340724988,2634.77215263915
-0.0502107819472309,2634.78215263915
-0.0579643908962701,2634.79215263915
-0.0656415959600251,2634.80215263915
-0.0732181406241106,2634.81215263915
-0.0801565278488581,2634.82215263915
-0.0868497010789603,2634.83215263915
-0.0935902351211303,2634.84215263915
-0.100585954499182,2634.85215263915
-0.107545751282133,2634.86215263915
-0.113916655371968,2634.87215263915
-0.119652101245518,2634.88215263915
-0.123135481445714,2634.89215263915
-0.122765982607909,2634.90215263915
-0.116024430700968,2634.91215263915
-0.101751172040711,2634.92215263915
-0.0786078789274983,2634.93215263915
-0.0462962284182076,2634.94215263915
-0.00744027643762379,2634.95215263915
0.0367908018437022,2634.96215263915
0.082764336687282,2634.97215263915
0.128522725897747,2634.98215263915
0.171606025466068,2634.99215263915
0.210639337188341,2635.00215263915
0.244971501872803,2635.01215263915
0.273479706192363,2635.02215263915
0.296050622965612,2635.03215263915
0.3123821348514,2635.04215263915
0.323401041280574,2635.05215263915
0.329258979785168,2635.06215263915
0.331676368298852,2635.07215263915
0.331480252378422,2635.08215263915
0.329555242582632,2635.09215263915
0.326394266667237,2635.10215263915
0.322655513451633,2635.11215263915
0.317850616497004,2635.12215263915
0.312466819951959,2635.13215263915
0.306008168044506,2635.14215263915
0.298830553435158,2635.15215263915
0.290052324635401,2635.16215263915
0.279977189574715,2635.17215263915
0.268837895561057,2635.18215263915
0.25780373299905,2635.19215263915
0.247289629836522,2635.20215263915
0.238326037687782,2635.21215263915
0.231462214882643,2635.22215263915
0.227146162413485,2635.23215263915
0.225595152962955,2635.24215263915
0.22658235281376,2635.25215263915
0.229219575458599,2635.26215263915
0.233966407078451,2635.27215263915
0.239384790508034,2635.28215263915
0.24552151310636,2635.29215263915
0.251784063500269,2635.30215263915
0.257342074641265,2635.31215263915
0.262709805151319,2635.32215263915
0.266569137196534,2635.33215263915
0.269462441552795,2635.34215263915
0.270234726083404,2635.35215263915
0.26931719494914,2635.36215263915
0.266703703862592,2635.37215263915
0.262283612340798,2635.38215263915
0.256565245231282,2635.39215263915
0.249677183548393,2635.40215263915
0.241714766193886,2635.41215263915
0.23334355360701,2635.42215263915
0.225183778194811,2635.43215263915
0.216541135747981,2635.44215263915
0.207834211101249,2635.45215263915
0.198987765195668,2635.46215263915
0.190141371120538,2635.47215263915
0.181097454707441,2635.48215263915
0.171452765920374,2635.49215263915
0.161985330586203,2635.50215263915
0.152389866543653,2635.51215263915
0.142934369859734,2635.52215263915
0.134053142468903,2635.53215263915
0.125878407523582,2635.54215263915
0.118148508667931,2635.55215263915
0.111055105662817,2635.56215263915
0.103934634128523,2635.57215263915
0.0967365251265513,2635.58215263915
0.0891717228194494,2635.59215263915
0.0819344316316473,2635.60215263915
0.0751628849390196,2635.61215263915
0.0680145533856537,2635.62215263915
0.06103613014908,2635.63215263915
0.0537010137482704,2635.64215263915
0.0461130773779402,2635.65215263915
0.038423772630944,2635.66215263915
0.0310332709563212,2635.67215263915
0.023868935874839,2635.68215263915
0.016511912312873,2635.69215263915
0.00898557733398471,2635.70215263915
0.00148669113934535,2635.71215263915
-0.00612640245237139,2635.72215263915
-0.0139281263017199,2635.73215263915
-0.021633412333078,2635.74215263915
-0.0293959264911922,2635.75215263915
-0.0368397897904158,2635.76215263915
-0.0444076044644026,2635.77215263915
-0.0515285252259591,2635.78215263915
-0.0589178537807159,2635.79215263915
-0.0663712625117678,2635.80215263915
-0.0738393604351752,2635.81215263915
-0.0813105797480881,2635.82215263915
-0.0888021576871803,2635.83215263915
-0.0965839990281562,2635.84215263915
-0.103399275778635,2635.85215263915
-0.11027736747323,2635.86215263915
-0.117440047220792,2635.87215263915
-0.124647505321372,2635.88215263915
-0.132076739527552,2635.89215263915
-0.138251292974684,2635.90215263915
-0.142832927292164,2635.91215263915
-0.143669875862072,2635.92215263915
-0.139392834008682,2635.93215263915
-0.129026238687606,2635.94215263915
-0.11053395372226,2635.95215263915
-0.0837750671979522,2635.96215263915
-0.0495774263134657,2635.97215263915
-0.00958641767106554,2635.98215263915
0.0336274329986429,2635.99215263915
0.0785839147203792,2636.00215263915
0.121709297840175,2636.01215263915
0.162026044454212,2636.02215263915
0.198009380765048,2636.03215263915
0.227603647654634,2636.04215263915
0.251379851985388,2636.05215263915
0.268188309719723,2636.06215263915
0.278890116272013,2636.07215263915
0.284706524407456,2636.08215263915
0.285823938167736,2636.09215263915
0.283963544276372,2636.10215263915
0.279617088423919,2636.11215263915
0.273156661031686,2636.12215263915
0.265162091522119,2636.13215263915
0.255616034509598,2636.14215263915
0.244767402355583,2636.15215263915
0.232438418597395,2636.16215263915
0.21895514350435,2636.17215263915
0.2050631466905,2636.18215263915
0.190583342369329,2636.19215263915
0.17659713257568,2636.20215263915
0.163109851066991,2636.21215263915
0.150899689657915,2636.22215263915
0.140842427417435,2636.23215263915
0.133498177159392,2636.24215263915
0.129475139428718,2636.25215263915
0.128368737979326,2636.26215263915
0.129745004988423,2636.27215263915
0.133719244774958,2636.28215263915
0.139455883802021,2636.29215263915
0.146506035197836,2636.30215263915
0.153716927466774,2636.31215263915
0.161144008531948,2636.32215263915
0.167859523088851,2636.33215263915
0.172958682995912,2636.34215263915
0.176610512702989,2636.35215263915
0.178563513726648,2636.36215263915
0.17867932514829,2636.37215263915
0.176978827784665,2636.38215263915
0.173695118429029,2636.39215263915
0.169771413670055,2636.40215263915
0.164511188121076,2636.41215263915
0.158506518594381,2636.42215263915
0.152018873191247,2636.43215263915
0.144374004064142,2636.44215263915
0.136950467053104,2636.45215263915
0.12888703520828,2636.46215263915
0.120384750634323,2636.47215263915
0.112522969372988,2636.48215263915
0.104513946370014,2636.49215263915
0.0967399732643408,2636.50215263915
0.0885244284660454,2636.51215263915
0.080749381512011,2636.52215263915
0.0730598749376736,2636.53215263915
0.0647183136985219,2636.54215263915
0.056896060028281,2636.55215263915
0.049680743775251,2636.56215263915
0.0429621317312536,2636.57215263915
0.036878540142395,2636.58215263915
0.0311746828327318,2636.59215263915
0.0258690738689198,2636.60215263915
0.0212409622596865,2636.61215263915
0.0161183327822244,2636.62215263915
0.010582322501539,2636.63215263915
0.00462831562235216,2636.64215263915
-0.0022323102362014,2636.65215263915
-0.00932841566094766,2636.66215263915
-0.0166503352424942,2636.67215263915
-0.0244048003818576,2636.68215263915
-0.0325435110925788,2636.69215263915
-0.0414839462243987,2636.70215263915
-0.049576269385699,2636.71215263915
-0.0575539818646029,2636.72215263915
-0.0656420473975792,2636.73215263915
-0.0733234006248454,2636.74215263915
-0.081062313301681,2636.75215263915
-0.0887568697463881,2636.76215263915
-0.0963725120875922,2636.77215263915
-0.103678602211845,2636.78215263915
-0.111376463166903,2636.79215263915
-0.119854652986084,2636.80215263915
-0.128919309553136,2636.81215263915
-0.138813694481437,2636.82215263915
-0.148331722572549,2636.83215263915
-0.157518499534949,2636.84215263915
-0.166168045470974,2636.85215263915
-0.174424827901626,2636.86215263915
-0.181471542678345,2636.87215263915
-0.186255324658586,2636.88215263915
-0.187279244144908,2636.89215263915
-0.183410584874681,2636.90215263915
-0.172006676809162,2636.91215263915
-0.152023577785064,2636.92215263915
-0.123155887533288,2636.93215263915
-0.0856237274913387,2636.94215263915
-0.0414717518726304,2636.95215263915
0.00757111871174034,2636.96215263915
0.0579805913186515,2636.97215263915
0.107478985007402,2636.98215263915
0.153985933348258,2636.99215263915
0.19618563367923,2637.00215263915
0.232397538508802,2637.01215263915
0.262046993316496,2637.02215263915
0.284766725248446,2637.03215263915
0.301272423618359,2637.04215263915
0.312043269501307,2637.05215263915
0.31780088796102,2637.06215263915
0.319765657113035,2637.07215263915
0.31829183620551,2637.08215263915
0.314640056554066,2637.09215263915
0.308972684286019,2637.10215263915
0.302644450459416,2637.11215263915
0.295633546366969,2637.12215263915
0.288215868697076,2637.13215263915
0.28010738315925,2637.14215263915
0.270582185019075,2637.15215263915
0.259904121169537,2637.16215263915
0.248125203280073,2637.17215263915
0.235650899028983,2637.18215263915
0.222948526612554,2637.19215263915
0.211317840270167,2637.20215263915
0.200550813821757,2637.21215263915
0.192109545206365,2637.22215263915
0.185676272053502,2637.23215263915
0.182080832181871,2637.24215263915
0.180819973365069,2637.25215263915
0.181689941073926,2637.26215263915
0.184886995122152,2637.27215263915
0.188994330199134,2637.28215263915
0.194285029083429,2637.29215263915
0.200085092070481,2637.30215263915
0.206077965540167,2637.31215263915
0.21115241579124,2637.32215263915
0.214741873226366,2637.33215263915
0.21612630488712,2637.34215263915
0.215972823655569,2637.35215263915
0.214280008125499,2637.36215263915
0.210900727974599,2637.37215263915
0.206843284039864,2637.38215263915
0.201393380833023,2637.39215263915
0.195382984127082,2637.40215263915
0.188779241507078,2637.41215263915
0.181598312871633,2637.42215263915
0.173952511381298,2637.43215263915
0.166083595264735,2637.44215263915
0.157517303797824,2637.45215263915
0.149195574207179,2637.46215263915
0.140666307918025,2637.47215263915
0.132302869050235,2637.48215263915
0.123554660278059,2637.49215263915
0.114868867555584,2637.50215263915
0.106126080681959,2637.51215263915
0.0969875936129276,2637.52215263915
0.088676159701292,2637.53215263915
0.0805196060466607,2637.54215263915
0.0726562668320386,2637.55215263915
0.0648145585212829,2637.56215263915
0.0572581972069083,2637.57215263915
0.0495607320087523,2637.58215263915
0.0418977083054406,2637.59215263915
0.0344084638470567,2637.60215263915
0.0267639479464863,2637.61215263915
0.0189732487885888,2637.62215263915
0.011421570768202,2637.63215263915
0.00397193586387275,2637.64215263915
-0.0041734478318321,2637.65215263915
-0.0126351558055445,2637.66215263915
-0.0214774305204052,2637.67215263915
-0.0302672888677013,2637.68215263915
-0.0395091899968408,2637.69215263915
-0.049160631739423,2637.70215263915
-0.0586016209291675,2637.71215263915
-0.067589412472434,2637.72215263915
-0.0771101346565145,2637.73215263915
-0.0864502365754339,2637.74215263915
-0.0957480902221213,2637.75215263915
-0.1051951056719,2637.76215263915
-0.114172270640963,2637.77215263915
-0.123510284204057,2637.78215263915
-0.132328418485955,2637.79215263915
-0.141646142497584,2637.80215263915
-0.150581650832731,2637.81215263915
-0.15884004839628,2637.82215263915
-0.166442996879789,2637.83215263915
-0.173791482590267,2637.84215263915
-0.18127340709833,2637.85215263915
-0.188905315585281,2637.86215263915
-0.197338025260801,2637.87215263915
-0.206522530385417,2637.88215263915
-0.215748932961962,2637.89215263915
-0.225072218269966,2637.90215263915
-0.233488808697189,2637.91215263915
-0.23985346556669,2637.92215263915
-0.242489009568734,2637.93215263915
-0.239348099510462,2637.94215263915
-0.228684263764965,2637.95215263915
-0.209506083641874,2637.96215263915
-0.181483046498494,2637.97215263915
-0.145430038800534,2637.98215263915
-0.102893243160116,2637.99215263915
-0.0554701522585496,2638.00215263915
-0.00725800946926445,2638.01215263915
0.0406408046350906,2638.02215263915
0.0854280829561078,2638.03215263915
0.12559354274585,2638.04215263915
0.160324412604227,2638.05215263915
0.188528461781171,2638.06215263915
0.210588568766563,2638.07215263915
0.226331645114712,2638.08215263915
0.236339430127033,2638.09215263915
0.241109528520614,2638.10215263915
0.241634735308647,2638.11215263915
0.239525301827548,2638.12215263915
0.235400279687823,2638.13215263915
0.230091257101432,2638.14215263915
0.223724496247372,2638.15215263915
0.215901529105589,2638.16215263915
0.207054832817875,2638.17215263915
0.196885767288958,2638.18215263915
0.185157629999932,2638.19215263915
0.171850095484003,2638.20215263915
0.158307057179347,2638.21215263915
0.14401297059061,2638.22215263915
0.130740432473092,2638.23215263915
0.117664273569418,2638.24215263915
0.106777980867294,2638.25215263915
0.0981764272904812,2638.26215263915
0.0920072898753305,2638.27215263915
0.0886143783155362,2638.28215263915
0.0877098778860745,2638.29215263915
0.0891597661666795,2638.30215263915
0.0923163384318625,2638.31215263915
0.097203237148563,2638.32215263915
0.103342794950933,2638.33215263915
0.109299354018427,2638.34215263915
0.114946407830098,2638.35215263915
0.120187638016568,2638.36215263915
0.123782968299804,2638.37215263915
0.126053713428286,2638.38215263915
0.127078411261977,2638.39215263915
0.126348937397851,2638.40215263915
0.123940882332127,2638.41215263915
0.121014437160016,2638.42215263915
0.116889896285504,2638.43215263915
0.111545314399536,2638.44215263915
0.105711239313132,2638.45215263915
0.0990162842135161,2638.46215263915
0.091838165283958,2638.47215263915
0.0846049898853005,2638.48215263915
0.0771589612102318,2638.49215263915
0.0691774417374803,2638.50215263915
0.060343535434284,2638.51215263915
0.0516329921704029,2638.52215263915
0.0426369602827315,2638.53215263915
0.0333216967954254,2638.54215263915
0.0248424378805707,2638.55215263915
0.0168444147327829,2638.56215263915
0.00925995438948826,2638.57215263915
0.00210081461244787,2638.58215263915
-0.004814602416651,2638.59215263915
-0.0122920722611897,2638.60215263915
-0.0192582401089789,2638.61215263915
-0.0258242361646049,2638.62215263915
-0.0317595749465442,2638.63215263915
-0.0375928345456264,2638.64215263915
-0.0437387207157664,2638.65215263915
-0.0500309397220027,2638.66215263915
-0.0568043257429569,2638.67215263915
-0.0631602210889952,2638.68215263915
-0.0700310332765648,2638.69215263915
-0.0768810559591303,2638.70215263915
-0.0837866624481767,2638.71215263915
-0.0906476035543207,2638.72215263915
-0.0972118833221233,2638.73215263915
-0.10430360649361,2638.74215263915
-0.111370579719166,2638.75215263915
-0.11860321153066,2638.76215263915
-0.125673795466571,2638.77215263915
-0.133280208223731,2638.78215263915
-0.140976568084087,2638.79215263915
-0.148610341304385,2638.80215263915
-0.156149781442749,2638.81215263915
-0.163261226491791,2638.82215263915
-0.170498760391387,2638.83215263915
-0.177741818154708,2638.84215263915
-0.184734069649653,2638.85215263915
-0.191543706881819,2638.86215263915
-0.198037264973421,2638.87215263915
-0.205229401995021,2638.88215263915
-0.211983500674517,2638.89215263915
-0.218429427085092,2638.90215263915
-0.225098623451219,2638.91215263915
-0.231915954648269,2638.92215263915
-0.239269112860396,2638.93215263915
-0.246924118621339,2638.94215263915
-0.253988064770856,2638.95215263915
-0.260302407938667,2638.96215263915
-0.265487652727746,2638.97215263915
-0.268473542324447,2638.98215263915
-0.267240251531896,2638.99215263915
-0.260143870329768,2639.00215263915
-0.245467175140686,2639.01215263915
-0.222503062543761,2639.02215263915
-0.191033204919744,2639.03215263915
-0.151993325993261,2639.04215263915
-0.1076853254814,2639.05215263915
-0.0602476906250574,2639.06215263915
-0.01208005723474,2639.07215263915
0.0337085719946075,2639.08215263915
0.0758573394865337,2639.09215263915
0.112415747138216,2639.10215263915
0.143065682608552,2639.11215263915
0.168045068678341,2639.12215263915
0.186674255722931,2639.13215263915
0.199494446402951,2639.14215263915
0.206966128822919,2639.15215263915
0.210536453373481,2639.16215263915
0.211015680821567,2639.17215263915
0.208457232505026,2639.18215263915
0.203792923999603,2639.19215263915
0.196495158420125,2639.20215263915
0.187509940621082,2639.21215263915
0.177631906098396,2639.22215263915
0.166497336272949,2639.23215263915
0.154328664092008,2639.24215263915
0.141211373069199,2639.25215263915
0.12738443628996,2639.26215263915
0.113576457206088,2639.27215263915
0.100191313568706,2639.28215263915
0.0877321457510331,2639.29215263915
0.0775527400825319,2639.30215263915
0.0697255489949272,2639.31215263915
0.0637400252087246,2639.32215263915
0.0608465469663865,2639.33215263915
0.0602733132360848,2639.34215263915
0.0623723862616144,2639.35215263915
0.0668470121950067,2639.36215263915
0.0733634277281766,2639.37215263915
0.0811060741617392,2639.38215263915
0.0892348071833331,2639.39215263915
0.096748760458048,2639.40215263915
0.103461046635735,2639.41215263915
0.108778733368358,2639.42215263915
0.112130637563204,2639.43215263915
0.113861473417029,2639.44215263915
0.114233676875444,2639.45215263915
0.113191819480108,2639.46215263915
0.110756096725275,2639.47215263915
0.107309136100442,2639.48215263915
0.103453082860767,2639.49215263915
0.0985249282104743,2639.50215263915
0.0931867717219385,2639.51215263915
0.0871073237603532,2639.52215263915
0.0811788577421928,2639.53215263915
0.0743119569724875,2639.54215263915
0.0674273325692852,2639.55215263915
0.0605137063077138,2639.56215263915
0.05347720353228,2639.57215263915
0.0466364421686263,2639.58215263915
0.0396955782674107,2639.59215263915
0.0327173936920065,2639.60215263915
0.0256142483329998,2639.61215263915
0.0187482422473618,2639.62215263915
0.0123203164879757,2639.63215263915
0.00570446575322432,2639.64215263915
-0.000687730351801433,2639.65215263915
-0.00714960640566852,2639.66215263915
-0.0131537635695146,2639.67215263915
-0.0191034855565709,2639.68215263915
-0.0252540386424488,2639.69215263915
-0.0312142816538558,2639.70215263915
-0.0372051548909285,2639.71215263915
-0.0439931961123555,2639.72215263915
-0.0508381217018015,2639.73215263915
-0.058049229857756,2639.74215263915
-0.065194812301797,2639.75215263915
-0.0720327945416167,2639.76215263915
-0.0785794129457537,2639.77215263915
-0.0850973659752042,2639.78215263915
-0.0916033531534837,2639.79215263915
-0.0984995916513424,2639.80215263915
-0.10595215863736,2639.81215263915
-0.114387697929543,2639.82215263915
-0.123064411414548,2639.83215263915
-0.132036589460698,2639.84215263915
-0.140277641755955,2639.85215263915
-0.147638634118804,2639.86215263915
-0.154652890274917,2639.87215263915
-0.161340664854604,2639.88215263915
-0.168429648399702,2639.89215263915
-0.175700924875913,2639.90215263915
-0.182702369108907,2639.91215263915
-0.189575887573122,2639.92215263915
-0.196969787387994,2639.93215263915
-0.203831480071588,2639.94215263915
-0.21098769271502,2639.95215263915
-0.218564448035789,2639.96215263915
-0.22597754583397,2639.97215263915
-0.23331171646932,2639.98215263915
-0.240686790859885,2639.99215263915
-0.246557176972051,2640.00215263915
-0.24925725974944,2640.01215263915
-0.246263778508793,2640.02215263915
-0.23554180660842,2640.03215263915
-0.215527942446267,2640.04215263915
-0.185534406627467,2640.05215263915
-0.146750751082319,2640.06215263915
-0.100744357148871,2640.07215263915
-0.0493394961610502,2640.08215263915
0.00426192042557802,2640.09215263915
0.0578337148158656,2640.10215263915
0.108554891585776,2640.11215263915
0.155833675159836,2640.12215263915
0.197851714604991,2640.13215263915
0.233754239643131,2640.14215263915
0.262949522383235,2640.15215263915
0.285806958576002,2640.16215263915
0.302486904222042,2640.17215263915
0.314129990035767,2640.18215263915
0.321562469555519,2640.19215263915
0.325273239622661,2640.20215263915
0.325332614932049,2640.21215263915
0.323534627164219,2640.22215263915
0.319684006988966,2640.23215263915
0.314296987753694,2640.24215263915
0.307679045891916,2640.25215263915
0.299347787899675,2640.26215263915
0.28965314942713,2640.27215263915
0.278609996427569,2640.28215263915
0.266301629532623,2640.29215263915
0.253737324408684,2640.30215263915
0.240278331885586,2640.31215263915
0.227498277131673,2640.32215263915
0.215945438189501,2640.33215263915
0.205532002964089,2640.34215263915
0.198273293838584,2640.35215263915
0.193256946267783,2640.36215263915
0.191604955942059,2640.37215263915
0.192498867842441,2640.38215263915
0.196023819647522,2640.39215263915
0.201717324938264,2640.40215263915
0.20887978408948,2640.41215263915
0.217247098646794,2640.42215263915
0.226009824911232,2640.43215263915
0.234592419712328,2640.44215263915
0.242109642603323,2640.45215263915
0.247828574982109,2640.46215263915
0.251181378569048,2640.47215263915
0.252817185960464,2640.48215263915
0.252722269580937,2640.49215263915
0.250996455361053,2640.50215263915
0.24745848774056,2640.51215263915
0.242388166898877,2640.52215263915
0.23571993326793,2640.53215263915
0.228332176607837,2640.54215263915
0.220719355433235,2640.55215263915
0.213110684311428,2640.56215263915
0.205004076303803,2640.57215263915
0.196845611654441,2640.58215263915
0.188513878671526,2640.59215263915
0.180302743280555,2640.60215263915
0.171831917850087,2640.61215263915
0.163722305445914,2640.62215263915
0.155657295285434,2640.63215263915
0.14763471580336,2640.64215263915
0.140233031938806,2640.65215263915
0.133134197522963,2640.66215263915
0.126302194920776,2640.67215263915
0.120115770755826,2640.68215263915
0.114358191809269,2640.69215263915
0.108697130478813,2640.70215263915
0.102912028405195,2640.71215263915
0.0973456945932162,2640.72215263915
0.0918599831093475,2640.73215263915
0.0859488336747815,2640.74215263915
0.0803703569256228,2640.75215263915
0.0742924069091741,2640.76215263915
0.0683699957697049,2640.77215263915
0.0624956662782166,2640.78215263915
0.0564226620842906,2640.79215263915
0.0506879445890187,2640.80215263915
0.0450605700668187,2640.81215263915
0.0395466560447193,2640.82215263915
0.0342899447894116,2640.83215263915
0.028919252903432,2640.84215263915
0.0231571017164635,2640.85215263915
0.0173375284231272,2640.86215263915
0.0122163331768257,2640.87215263915
0.00737279418767716,2640.88215263915
0.00260769108936926,2640.89215263915
-0.0018428541719677,2640.90215263915
-0.00672931638749222,2640.91215263915
-0.0119479660557056,2640.92215263915
-0.0176647241339051,2640.93215263915
-0.0241872139308746,2640.94215263915
-0.0308041768800202,2640.95215263915
-0.0383424095672956,2640.96215263915
-0.0457850048476321,2640.97215263915
-0.0527007259013659,2640.98215263915
-0.0597375888578695,2640.99215263915
-0.0658072219722214,2641.00215263915
-0.0697945429562752,2641.01215263915
-0.0708632812440793,2641.02215263915
-0.0663500332920976,2641.03215263915
-0.054466060676424,2641.04215263915
-0.033511408165217,2641.05215263915
-0.00295247252520106,2641.06215263915
0.0362514033568464,2641.07215263915
0.0825777990116287,2641.08215263915
0.133727215309639,2641.09215263915
0.188249384059688,2641.10215263915
0.242591530230118,2641.11215263915
0.294312084524584,2641.12215263915
0.341857820767601,2641.13215263915
0.383506284328782,2641.14215263915
0.418447833211818,2641.15215263915
0.446293487459393,2641.16215263915
0.46723503075021,2641.17215263915
0.481706360501343,2641.18215263915
0.490753320944332,2641.19215263915
0.494834961319435,2641.20215263915
0.49438001723467,2641.21215263915
0.49082108817628,2641.22215263915
0.483996993024895,2641.23215263915
0.474551752079045,2641.24215263915
0.46315180183499,2641.25215263915
0.450374636899763,2641.26215263915
0.435319759537947,2641.27215263915
0.418846712078184,2641.28215263915
0.400758740856385,2641.29215263915
0.381785031087224,2641.30215263915
0.362732304971107,2641.31215263915
0.343591818205626,2641.32215263915
0.325306421328505,2641.33215263915
0.309004135086067,2641.34215263915
0.294948967462842,2641.35215263915
0.284032352602525,2641.36215263915
0.275711301558327,2641.37215263915
0.269805006812735,2641.38215263915
0.266225127914247,2641.39215263915
0.264455447090175,2641.40215263915
0.264861082853237,2641.41215263915
0.265741045912865,2641.42215263915
0.26696312999509,2641.43215263915
0.26744213547095,2641.44215263915
0.266063034505774,2641.45215263915
0.262618851997286,2641.46215263915
0.256634877266973,2641.47215263915
0.248291711014966,2641.48215263915
0.237484582762311,2641.49215263915
0.224785925284484,2641.50215263915
0.21057057410752,2641.51215263915
0.195011672859367,2641.52215263915
0.179482814350662,2641.53215263915
0.163312390186703,2641.54215263915
0.147183446439466,2641.55215263915
0.131014002730211,2641.56215263915
0.115190468188234,2641.57215263915
0.0994534496853228,2641.58215263915
0.0836651064405713,2641.59215263915
0.0681479792923155,2641.60215263915
0.0531849871643103,2641.61215263915
0.0390040310213163,2641.62215263915
0.0263604568015834,2641.63215263915
0.0145787495718056,2641.64215263915
0.00372747836077259,2641.65215263915
-0.00598271467616675,2641.66215263915
-0.0146673523529318,2641.67215263915
-0.0223618238314179,2641.68215263915
-0.0294450518322645,2641.69215263915
-0.0350600142985123,2641.70215263915
-0.0402841012992652,2641.71215263915
-0.0447870940634116,2641.72215263915
-0.0483636415894537,2641.73215263915
-0.0512507264756428,2641.74215263915
-0.0541460497454337,2641.75215263915
-0.0566248245935148,2641.76215263915
-0.0589512476823743,2641.77215263915
-0.0611950516004937,2641.78215263915
-0.0625405454751562,2641.79215263915
-0.0641413665771852,2641.80215263915
-0.0657457951467582,2641.81215263915
-0.0675426582372558,2641.82215263915
-0.0694762850784866,2641.83215263915
-0.0722926659289948,2641.84215263915
-0.075889593319331,2641.85215263915
-0.0803471202845044,2641.86215263915
-0.0845961553004141,2641.87215263915
-0.0886334821711248,2641.88215263915
-0.092288294111102,2641.89215263915
-0.0957806112299914,2641.90215263915
-0.0991365305951167,2641.91215263915
-0.102631946095305,2641.92215263915
-0.106474777753775,2641.93215263915
-0.110809662982541,2641.94215263915
-0.115436959131303,2641.95215263915
-0.120471286336591,2641.96215263915
-0.125366832490534,2641.97215263915
-0.130374309512458,2641.98215263915
-0.134698041291631,2641.99215263915
-0.138154815252499,2642.00215263915
-0.139370625626313,2642.01215263915
-0.136778369892243,2642.02215263915
-0.128642927417075,2642.03215263915
-0.111682162569839,2642.04215263915
-0.0851376986253041,2642.05215263915
-0.0475785613493331,2642.06215263915
-0.000835947049232944,2642.07215263915
0.0542264172989281,2642.08215263915
0.115188045386172,2642.09215263915
0.179720768671448,2642.10215263915
0.2449864782024,2642.11215263915
0.308762391464405,2642.12215263915
0.368697497729128,2642.13215263915
0.422045765639731,2642.14215263915
0.468697178630217,2642.15215263915
0.507525346129006,2642.16215263915
0.538258581196364,2642.17215263915
0.561503067330971,2642.18215263915
0.577410698930076,2642.19215263915
0.587552211539214,2642.20215263915
0.592861518406172,2642.21215263915
0.593671260196628,2642.22215263915
0.590916803010938,2642.23215263915
0.58585357100245,2642.24215263915
0.578775948583526,2642.25215263915
0.570368954339158,2642.26215263915
0.560438312163727,2642.27215263915
0.549028466612302,2642.28215263915
0.535910567297423,2642.29215263915
0.521003659476357,2642.30215263915
0.505141478593518,2642.31215263915
0.488844500047244,2642.32215263915
0.472985121667989,2642.33215263915
0.458119090346016,2642.34215263915
0.444982511687147,2642.35215263915
0.434184231613054,2642.36215263915
0.42607437824911,2642.37215263915
0.4217331560892,2642.38215263915
0.420277290963876,2642.39215263915
0.42221835669707,2642.40215263915
0.427255678776357,2642.41215263915
0.434041439641942,2642.42215263915
0.441978259307377,2642.43215263915
0.450565353966466,2642.44215263915
0.458434467784311,2642.45215263915
0.466004616743899,2642.46215263915
0.471850893209368,2642.47215263915
0.475255230323701,2642.48215263915
0.47678860497647,2642.49215263915
0.476317595037782,2642.50215263915
0.474006321420971,2642.51215263915
0.469949484633173,2642.52215263915
0.464615406997042,2642.53215263915
0.457899830538783,2642.54215263915
0.449846791731621,2642.55215263915
0.441183722172896,2642.56215263915
0.431525852392228,2642.57215263915
0.421714874926936,2642.58215263915
0.411880096929303,2642.59215263915
0.401807211009817,2642.60215263915
0.391881478613276,2642.61215263915
0.382312129198364,2642.62215263915
0.372908630984117,2642.63215263915
0.363678074031472,2642.64215263915
0.354133793132234,2642.65215263915
0.34461533097817,2642.66215263915
0.335461681403181,2642.67215263915
0.326217871560711,2642.68215263915
0.317678207816482,2642.69215263915
0.309194199630103,2642.70215263915
0.301076033188425,2642.71215263915
0.292636260017147,2642.72215263915
0.284054194459979,2642.73215263915
0.275693746350156,2642.74215263915
0.266925031735194,2642.75215263915
0.258027818708193,2642.76215263915
0.249041970686649,2642.77215263915
0.24033627187227,2642.78215263915
0.231979065966937,2642.79215263915
0.224102464223572,2642.80215263915
0.215820253623807,2642.81215263915
0.207225976530671,2642.82215263915
0.19836229633102,2642.83215263915
0.189354811945073,2642.84215263915
0.180214220498048,2642.85215263915
0.170717609124434,2642.86215263915
0.161520204175309,2642.87215263915
0.15313725987067,2642.88215263915
0.144577142054966,2642.89215263915
0.136208866431543,2642.90215263915
0.127458508878737,2642.91215263915
0.118520418228611,2642.92215263915
0.109420058076201,2642.93215263915
0.100319198259849,2642.94215263915
0.0905329032297895,2642.95215263915
0.0813990188964561,2642.96215263915
0.0732629482705504,2642.97215263915
0.0680526085265956,2642.98215263915
0.06738084788719,2642.99215263915
0.0736113288639765,2643.00215263915
0.0891007086551573,2643.01215263915
0.11459900274109,2643.02215263915
0.151068512129991,2643.03215263915
0.197498176722407,2643.04215263915
0.251858203166459,2643.05215263915
0.311509695224665,2643.06215263915
0.373052118038966,2643.07215263915
0.433452993920029,2643.08215263915
0.490527150291852,2643.09215263915
0.541582678636311,2643.10215263915
0.585678997241115,2643.11215263915
0.621975663511434,2643.12215263915
0.649857131154659,2643.13215263915
0.669648286144638,2643.14215263915
0.681856366465742,2643.15215263915
0.687825412708697,2643.16215263915
0.688023652654742,2643.17215263915
0.683975743050688,2643.18215263915
0.676761990219725,2643.19215263915
0.6666891553241,2643.20215263915
0.654423152405129,2643.21215263915
0.64000780082281,2643.22215263915
0.623125833254223,2643.23215263915
0.604745753365049,2643.24215263915
0.584816760196205,2643.25215263915
0.56329784968444,2643.26215263915
0.541402773853645,2643.27215263915
0.519745870353594,2643.28215263915
0.499158646349385,2643.29215263915
0.480450836181879,2643.30215263915
0.465380028126355,2643.31215263915
0.453649301972511,2643.32215263915
0.4457805039473,2643.33215263915
0.441464189838584,2643.34215263915
0.440771832471675,2643.35215263915
0.443435232699296,2643.36215263915
0.448746175231125,2643.37215263915
0.455763997070366,2643.38215263915
0.463807743163392,2643.39215263915
0.472010433127366,2643.40215263915
0.479031905965938,2643.41215263915
0.484299577569486,2643.42215263915
0.487856485640961,2643.43215263915
0.489966639070161,2643.44215263915
0.489813580592241,2643.45215263915
0.488119143176254,2643.46215263915
0.485029028311701,2643.47215263915
0.479659742102491,2643.48215263915
0.47313857313299,2643.49215263915
0.464639270355737,2643.50215263915
0.455193400252882,2643.51215263915
0.445436272234401,2643.52215263915
0.434769421692945,2643.53215263915
0.42409788309507,2643.54215263915
0.41288278702259,2643.55215263915
0.401576324105388,2643.56215263915
0.389815691256527,2643.57215263915
0.378081581803927,2643.58215263915
0.366108897888628,2643.59215263915
0.354192610307411,2643.60215263915
0.343230960995056,2643.61215263915
0.332707668641822,2643.62215263915
0.322902059673877,2643.63215263915
0.313364659190993,2643.64215263915
0.302936918774988,2643.65215263915
0.292539963369803,2643.66215263915
0.28227525772558,2643.67215263915
0.272345489303673,2643.68215263915
0.262980032974013,2643.69215263915
0.253607317731887,2643.70215263915
0.243856982040889,2643.71215263915
0.234275515886371,2643.72215263915
0.224032546809917,2643.73215263915
0.214252848762105,2643.74215263915
0.204466444267058,2643.75215263915
0.195912050501219,2643.76215263915
0.18798961941679,2643.77215263915
0.179980555652091,2643.78215263915
0.172400919300917,2643.79215263915
0.164956041586062,2643.80215263915
0.156752111934817,2643.81215263915
0.148881093610809,2643.82215263915
0.141374493704654,2643.83215263915
0.133601346757397,2643.84215263915
0.126465741474313,2643.85215263915
0.119036663229854,2643.86215263915
0.112063094226509,2643.87215263915
0.105601032885196,2643.88215263915
0.0990306229494601,2643.89215263915
0.0919053564195079,2643.90215263915
0.0843360388940529,2643.91215263915
0.0770928376227774,2643.92215263915
0.0702566722065397,2643.93215263915
0.0664526954730021,2643.94215263915
0.0679870732032421,2643.95215263915
0.0774081588456554,2643.96215263915
0.0970796209148494,2643.97215263915
0.128440781385092,2643.98215263915
0.171180105696316,2643.99215263915
0.224124956675789,2644.00215263915
0.285329328177478,2644.01215263915
0.351371805441285,2644.02215263915
0.419491382345029,2644.03215263915
0.486244512331754,2644.04215263915
0.549638997950355,2644.05215263915
0.60630802015158,2644.06215263915
0.655121121188575,2644.07215263915
0.694768162882629,2644.08215263915
0.725168052871295,2644.09215263915
0.74688508455132,2644.10215263915
0.760847004673746,2644.11215263915
0.768294838550239,2644.12215263915
0.770622916844104,2644.13215263915
0.768894557582202,2644.14215263915
0.763986807178393,2644.15215263915
0.756485975161957,2644.16215263915
0.74690182552539,2644.17215263915
0.735127310172579,2644.18215263915
0.721251589314485,2644.19215263915
0.705453476324376,2644.20215263915
0.687483988403666,2644.21215263915
0.667987559054259,2644.22215263915
0.647323405136525,2644.23215263915
0.626392442903205,2644.24215263915
0.606208123816126,2644.25215263915
0.587354666954341,2644.26215263915
0.570898040324776,2644.27215263915
0.557301980979513,2644.28215263915
0.547321163575963,2644.29215263915
0.541206821296746,2644.30215263915
0.538567396517474,2644.31215263915
0.539355221078503,2644.32215263915
0.542875965329879,2644.33215263915
0.548149901232768,2644.34215263915
0.554712612005754,2644.35215263915
0.561518381299222,2644.36215263915
0.568331202802207,2644.37215263915
0.574861095997129,2644.38215263915
0.580061445116209,2644.39215263915
0.583573438314351,2644.40215263915
0.584864575990704,2644.41215263915
0.583716419151154,2644.42215263915
0.579793770190396,2644.43215263915
0.57378191646252,2644.44215263915
0.566045599890572,2644.45215263915
0.557428171044313,2644.46215263915
0.548432418897208,2644.47215263915
0.538594887165231,2644.48215263915
0.528897528128238,2644.49215263915
0.518811193468348,2644.50215263915
0.508149329677743,2644.51215263915
0.497154843991312,2644.52215263915
0.48592507854426,2644.53215263915
0.47450776090952,2644.54215263915
0.462897391027839,2644.55215263915
0.451353347322209,2644.56215263915
0.439935955919153,2644.57215263915
0.428236182831057,2644.58215263915
0.417292327884027,2644.59215263915
0.406389125187963,2644.60215263915
0.39573022129663,2644.61215263915
0.385626403017347,2644.62215263915
0.375882065230114,2644.63215263915
0.365977380462738,2644.64215263915
0.356305962587434,2644.65215263915
0.34684685645004,2644.66215263915
0.337277763893184,2644.67215263915
0.327705899038915,2644.68215263915
0.317762113109655,2644.69215263915
0.307515557898676,2644.70215263915
0.297061317079911,2644.71215263915
0.286533778007516,2644.72215263915
0.275680300101357,2644.73215263915
0.264989049977586,2644.74215263915
0.254118476319975,2644.75215263915
0.242345429815648,2644.76215263915
0.231034224435255,2644.77215263915
0.219657725406835,2644.78215263915
0.208526468683386,2644.79215263915
0.19795030218401,2644.80215263915
0.187370406819367,2644.81215263915
0.177465558531599,2644.82215263915
0.167811666749784,2644.83215263915
0.158150084931872,2644.84215263915
0.147942603924594,2644.85215263915
0.137565046131741,2644.86215263915
0.127548997675343,2644.87215263915
0.119750750016509,2644.88215263915
0.116300833864644,2644.89215263915
0.120403995307377,2644.90215263915
0.134059611604959,2644.91215263915
0.159325584571183,2644.92215263915
0.196934716961223,2644.93215263915
0.246185471776741,2644.94215263915
0.305320896938601,2644.95215263915
0.371956214832198,2644.96215263915
0.442858079462038,2644.97215263915
0.513767276196622,2644.98215263915
0.581197692638766,2644.99215263915
0.643311109907439,2645.00215263915
0.697343484249193,2645.01215263915
0.743061307612162,2645.02215263915
0.779142139156701,2645.03215263915
0.806986455011792,2645.04215263915
0.82581903783301,2645.05215263915
0.837766003955691,2645.06215263915
0.843236794727472,2645.07215263915
0.844513544460052,2645.08215263915
0.842087446811557,2645.09215263915
0.836969541594611,2645.10215263915
0.829728982440715,2645.11215263915
0.821016894112595,2645.12215263915
0.80995140963019,2645.13215263915
0.797296145661277,2645.14215263915
0.782098029568554,2645.15215263915
0.764705634033529,2645.16215263915
0.745363472164376,2645.17215263915
0.725022773583768,2645.18215263915
0.704736793524832,2645.19215263915
0.684988352973538,2645.20215263915
0.666531539607572,2645.21215263915
0.649920260518025,2645.22215263915
0.635552547203597,2645.23215263915
0.623546245458561,2645.24215263915
0.614514590349581,2645.25215263915
0.608468960618635,2645.26215263915
0.605581694979637,2645.27215263915
0.605511213954707,2645.28215263915
0.606981203735082,2645.29215263915
0.609883206181725,2645.30215263915
0.612897947113388,2645.31215263915
0.615495519758405,2645.32215263915
0.617178587790249,2645.33215263915
0.617412958816874,2645.34215263915
0.616275022251944,2645.35215263915
0.613516012787682,2645.36215263915
0.609907961158668,2645.37215263915
0.60456732738133,2645.38215263915
0.598283206116107,2645.39215263915
0.59025576860294,2645.40215263915
0.580986927420679,2645.41215263915
0.571222203070113,2645.42215263915
0.560116295757398,2645.43215263915
0.548751209713258,2645.44215263915
0.536557339697473,2645.45215263915
0.524151676757796,2645.46215263915
0.51130803940069,2645.47215263915
0.498735358467624,2645.48215263915
0.486382012066888,2645.49215263915
0.474199742416341,2645.50215263915
0.462479354815994,2645.51215263915
0.450941494020819,2645.52215263915
0.440140771202659,2645.53215263915
0.429000612312462,2645.54215263915
0.41792775630869,2645.55215263915
0.406794253954412,2645.56215263915
0.396113137217695,2645.57215263915
0.384858520602561,2645.58215263915
0.373548239747586,2645.59215263915
0.362687998600894,2645.60215263915
0.351715421567722,2645.61215263915
0.340364948803075,2645.62215263915
0.329303560425479,2645.63215263915
0.317652778357093,2645.64215263915
0.306441820221841,2645.65215263915
0.29514870150291,2645.66215263915
0.283863045883768,2645.67215263915
0.273053675779686,2645.68215263915
0.262351130397598,2645.69215263915
0.252063882196143,2645.70215263915
0.241601303602668,2645.71215263915
0.231219365326739,2645.72215263915
0.220475976394171,2645.73215263915
0.209371099867693,2645.74215263915
0.197997895024579,2645.75215263915
0.187038302049179,2645.76215263915
0.176150124011029,2645.77215263915
0.164835407680942,2645.78215263915
0.153836439979302,2645.79215263915
0.142536678122699,2645.80215263915
0.131370339325506,2645.81215263915
0.120667998208211,2645.82215263915
0.110707779862561,2645.83215263915
0.102208785062781,2645.84215263915
0.0956344961330444,2645.85215263915
0.0943145835591404,2645.86215263915
0.099954839302035,2645.87215263915
0.115406555467606,2645.88215263915
0.141899364008533,2645.89215263915
0.179901056000375,2645.90215263915
0.228674336877112,2645.91215263915
0.286232964723544,2645.92215263915
0.348746778965352,2645.93215263915
0.413694725063211,2645.94215263915
0.477585124885126,2645.95215263915
0.537830605800609,2645.96215263915
0.591764751374508,2645.97215263915
0.638006363202121,2645.98215263915
0.675330468525047,2645.99215263915
0.703486889440838,2646.00215263915
0.722520440810174,2646.01215263915
0.733221243812303,2646.02215263915
0.737535589633865,2646.03215263915
0.736830819475658,2646.04215263915
0.73196640233478,2646.05215263915
0.724328890706992,2646.06215263915
0.714405262792501,2646.07215263915
0.701768741504506,2646.08215263915
0.686956562393444,2646.09215263915
0.669981332981485,2646.10215263915
0.650984961807153,2646.11215263915
0.630184380712041,2646.12215263915
0.6080217823963,2646.13215263915
0.584853833887122,2646.14215263915
0.562177544844174,2646.15215263915
0.540521163882844,2646.16215263915
0.520970135230526,2646.17215263915
0.504265871549376,2646.18215263915
0.490849137808119,2646.19215263915
0.481725068629998,2646.20215263915
0.476719929045377,2646.21215263915
0.475298328636683,2646.22215263915
0.477707366566771,2646.23215263915
0.483166742341477,2646.24215263915
0.490561134348713,2646.25215263915
0.499105857010728,2646.26215263915
0.507607002689454,2646.27215263915
0.514979293621251,2646.28215263915
0.520874074972329,2646.29215263915
0.52471163178713,2646.30215263915
0.526291151042789,2646.31215263915
0.525900455603594,2646.32215263915
0.523642465454094,2646.33215263915
0.520180246599521,2646.34215263915
0.514813896248634,2646.35215263915
0.507770821008947,2646.36215263915
0.499467925588663,2646.37215263915
0.48999076022126,2646.38215263915
0.479516866198718,2646.39215263915
0.468356345520322,2646.40215263915
0.457176235173155,2646.41215263915
0.446121901052905,2646.42215263915
0.434891947835361,2646.43215263915
0.423610748248436,2646.44215263915
0.411897670214304,2646.45215263915
0.401022517817181,2646.46215263915
0.390165923055943,2646.47215263915
0.379008998439804,2646.48215263915
0.368645427937579,2646.49215263915
0.358641971259357,2646.50215263915
0.348981677164222,2646.51215263915
0.340341398131085,2646.52215263915
0.332026581402498,2646.53215263915
0.324627651425914,2646.54215263915
0.317422102741957,2646.55215263915
0.30968212126586,2646.56215263915
0.301699760916497,2646.57215263915
0.29312177990348,2646.58215263915
0.284575448083636,2646.59215263915
0.275764831945935,2646.60215263915
0.266832611562458,2646.61215263915
0.258458622791676,2646.62215263915
0.249936157330529,2646.63215263915
0.24129149907258,2646.64215263915
0.232099472458956,2646.65215263915
0.222990809453614,2646.66215263915
0.213379381538535,2646.67215263915
0.203152749781482,2646.68215263915
0.192777527812786,2646.69215263915
0.182033330543532,2646.70215263915
0.171758810956125,2646.71215263915
0.162357665939612,2646.72215263915
0.154817952458227,2646.73215263915
0.150531371974473,2646.74215263915
0.151067870752502,2646.75215263915
0.159012059235928,2646.76215263915
0.176487006725715,2646.77215263915
0.204982180352857,2646.78215263915
0.245181058536933,2646.79215263915
0.295726711336131,2646.80215263915
0.354476541788917,2646.81215263915
0.418398534391439,2646.82215263915
0.483955939828421,2646.83215263915
0.547804256139417,2646.84215263915
0.606638747022991,2646.85215263915
0.658729595545784,2646.86215263915
0.702821112814491,2646.87215263915
0.73828368770242,2646.88215263915
0.765144561073053,2646.89215263915
0.784513903744089,2646.90215263915
0.796625011663582,2646.91215263915
0.802028047044893,2646.92215263915
0.801823662700912,2646.93215263915
0.797063060814831,2646.94215263915
0.788985902336218,2646.95215263915
0.77773064065557,2646.96215263915
0.764462180808784,2646.97215263915
0.749254493006981,2646.98215263915
0.732106826267528,2646.99215263915
0.712948465307434,2647.00215263915
0.692125495614269,2647.01215263915
0.669675208246333,2647.02215263915
0.64628665070712,2647.03215263915
0.622328945456631,2647.04215263915
0.599367995803281,2647.05215263915
0.578657892473675,2647.06215263915
0.560496433899914,2647.07215263915
0.546009151205049,2647.08215263915
0.535356806747036,2647.09215263915
0.52865545709261,2647.10215263915
0.525603306345879,2647.11215263915
0.525668360043471,2647.12215263915
0.528616916724196,2647.13215263915
0.533191660866385,2647.14215263915
0.538548454860854,2647.15215263915
0.544000498269036,2647.16215263915
0.548704572872194,2647.17215263915
0.551803953685387,2647.18215263915
0.553205438349478,2647.19215263915
0.552761447343511,2647.20215263915
0.550340254426935,2647.21215263915
0.546250025941662,2647.22215263915
0.540731789369984,2647.23215263915
0.533794024631663,2647.24215263915
0.525125916233724,2647.25215263915
0.515767335700138,2647.26215263915
0.504602958801931,2647.27215263915
0.49291197348548,2647.28215263915
0.480679991185114,2647.29215263915
0.468047263478407,2647.30215263915
0.455348641209147,2647.31215263915
0.44343727904779,2647.32215263915
0.431926329598651,2647.33215263915
0.420805870321771,2647.34215263915
0.410117238549225,2647.35215263915
0.400085852291536,2647.36215263915
0.388897708981121,2647.37215263915
0.37732054270657,2647.38215263915
0.365655929672784,2647.39215263915
0.3542390197796,2647.40215263915
0.342935977525318,2647.41215263915
0.332246177312502,2647.42215263915
0.322013284147315,2647.43215263915
0.31215494326273,2647.44215263915
0.30218321697021,2647.45215263915
0.292197541881,2647.46215263915
0.281998682205326,2647.47215263915
0.272158175615853,2647.48215263915
0.26232804692866,2647.49215263915
0.252168026558827,2647.50215263915
0.241539435668582,2647.51215263915
0.230875558503656,2647.52215263915
0.219954632022125,2647.53215263915
0.209508738420389,2647.54215263915
0.198759760250359,2647.55215263915
0.188557572187579,2647.56215263915
0.178275804931145,2647.57215263915
0.168390128677624,2647.58215263915
0.158118488707724,2647.59215263915
0.147612204341783,2647.60215263915
0.137932067568239,2647.61215263915
