PPG,time
-0.159038147671336,2129.58426516449
-0.317335539553297,2129.59426516449
-0.283349733830746,2129.60426516449
-0.307265971657634,2129.61426516449
-0.298566055071177,2129.62426516449
-0.310087594915728,2129.63426516449
-0.308917579314013,2129.64426516449
-0.315903806108845,2129.65426516449
-0.318294821297897,2129.66426516449
-0.322915263055994,2129.67426516449
-0.326255505299215,2129.68426516449
-0.329860598612915,2129.69426516449
-0.333447176408791,2129.70426516449
-0.336740093074555,2129.71426516449
-0.339838164291081,2129.72426516449
-0.342576352898929,2129.73426516449
-0.345523104639764,2129.74426516449
-0.349049193345734,2129.75426516449
-0.352642633435617,2129.76426516449
-0.356073915191842,2129.77426516449
-0.359205503158653,2129.78426516449
-0.362511846740031,2129.79426516449
-0.366335023315216,2129.80426516449
-0.370009783197699,2129.81426516449
-0.374145492893932,2129.82426516449
-0.378113107656521,2129.83426516449
-0.382723918168083,2129.84426516449
-0.387258259127533,2129.85426516449
-0.391823413981687,2129.86426516449
-0.39482590421586,2129.87426516449
-0.395492720393765,2129.88426516449
-0.392111360369999,2129.89426516449
-0.382495474722269,2129.90426516449
-0.364979934764234,2129.91426516449
-0.337162787398761,2129.92426516449
-0.298931080797804,2129.93426516449
-0.251100897219394,2129.94426516449
-0.196860468683504,2129.95426516449
-0.139912607738095,2129.96426516449
-0.0841937597082991,2129.97426516449
-0.033001539318431,2129.98426516449
0.0111126810799947,2129.99426516449
0.0463470794295839,2130.00426516449
0.0729534553748202,2130.01426516449
0.0909844845432528,2130.02426516449
0.102233099635718,2130.03426516449
0.107522901251661,2130.04426516449
0.107500585271965,2130.05426516449
0.103962416897767,2130.06426516449
0.0983019450464735,2130.07426516449
0.0913189067762683,2130.08426516449
0.084605460483085,2130.09426516449
0.0780994726737659,2130.10426516449
0.0722828769309026,2130.11426516449
0.0666426516293628,2130.12426516449
0.0606894088895787,2130.13426516449
0.0549190710953926,2130.14426516449
0.0492031914364471,2130.15426516449
0.0426920339043096,2130.16426516449
0.0354425436721131,2130.17426516449
0.0274309426534647,2130.18426516449
0.0185422742276896,2130.19426516449
0.0102556549774201,2130.20426516449
0.00289841047740455,2130.21426516449
-0.00287385440514674,2130.22426516449
-0.00629640820409835,2130.23426516449
-0.00658422788077789,2130.24426516449
-0.00353819684302397,2130.25426516449
0.00285912771570122,2130.26426516449
0.0121016031861468,2130.27426516449
0.0240400070251148,2130.28426516449
0.0368198194936804,2130.29426516449
0.050065913334836,2130.30426516449
0.0633038633818319,2130.31426516449
0.0753649838998973,2130.32426516449
0.0853162680240661,2130.33426516449
0.093213739078817,2130.34426516449
0.0988785865174035,2130.35426516449
0.102499611625288,2130.36426516449
0.10430299253731,2130.37426516449
0.104417832058207,2130.38426516449
0.102811000206005,2130.39426516449
0.10027204182541,2130.40426516449
0.0963656288525445,2130.41426516449
0.0915890525875002,2130.42426516449
0.085869337025864,2130.43426516449
0.0798133379759435,2130.44426516449
0.0735614492497123,2130.45426516449
0.0678704793571498,2130.46426516449
0.0625775237760755,2130.47426516449
0.0577746223126792,2130.48426516449
0.0529626512121621,2130.49426516449
0.0486929684131826,2130.50426516449
0.0443438289226974,2130.51426516449
0.0400235818995904,2130.52426516449
0.0360917183644461,2130.53426516449
0.0321351977945737,2130.54426516449
0.0286577217532973,2130.55426516449
0.0248386485882421,2130.56426516449
0.0213557522070566,2130.57426516449
0.0180974594075477,2130.58426516449
0.0149140352166363,2130.59426516449
0.0117095121569211,2130.60426516449
0.00815574869074445,2130.61426516449
0.00456105572256579,2130.62426516449
0.00116599503120371,2130.63426516449
-0.00248804176470051,2130.64426516449
-0.00649920219126983,2130.65426516449
-0.0102796625209264,2130.66426516449
-0.0143862998748399,2130.67426516449
-0.0184221342919538,2130.68426516449
-0.0229867791011319,2130.69426516449
-0.0273342850166422,2130.70426516449
-0.0324331760106884,2130.71426516449
-0.0372449738112786,2130.72426516449
-0.0420432173316739,2130.73426516449
-0.0471444231980617,2130.74426516449
-0.051686837790439,2130.75426516449
-0.056314416871823,2130.76426516449
-0.0606900550980403,2130.77426516449
-0.0651069676050907,2130.78426516449
-0.0696305509290365,2130.79426516449
-0.0740955542667604,2130.80426516449
-0.079390245350265,2130.81426516449
-0.0847309769212841,2130.82426516449
-0.0902961024042696,2130.83426516449
-0.095884134517611,2130.84426516449
-0.101890883823474,2130.85426516449
-0.107809669615303,2130.86426516449
-0.113243678955791,2130.87426516449
-0.118078338612235,2130.88426516449
-0.122227414972061,2130.89426516449
-0.125929286423819,2130.90426516449
-0.12937428923322,2130.91426516449
-0.132945247640927,2130.92426516449
-0.136602819490083,2130.93426516449
-0.140360654610389,2130.94426516449
-0.144045328540335,2130.95426516449
-0.147951499726261,2130.96426516449
-0.151880648644417,2130.97426516449
-0.155726971906312,2130.98426516449
-0.159793436833413,2130.99426516449
-0.164203607589358,2131.00426516449
-0.169326082992466,2131.01426516449
-0.174610070404805,2131.02426516449
-0.180679962605584,2131.03426516449
-0.186706095337548,2131.04426516449
-0.192595478267228,2131.05426516449
-0.197592290330235,2131.06426516449
-0.200728773114365,2131.07426516449
-0.199702525609975,2131.08426516449
-0.192287179220891,2131.09426516449
-0.175425094424672,2131.10426516449
-0.148063428645032,2131.11426516449
-0.108693330228669,2131.12426516449
-0.0590842413143576,2131.13426516449
-0.00289215880346929,2131.14426516449
0.0567194620595936,2131.15426516449
0.114602975870039,2131.16426516449
0.168636899648936,2131.17426516449
0.216139929604187,2131.18426516449
0.255403571758295,2131.19426516449
0.285261181617541,2131.20426516449
0.306112433814958,2131.21426516449
0.318516246662477,2131.22426516449
0.323595311495442,2131.23426516449
0.322312653837971,2131.24426516449
0.316723053375518,2131.25426516449
0.308628530049152,2131.26426516449
0.298245712323513,2131.27426516449
0.287308902636493,2131.28426516449
0.276412140443863,2131.29426516449
0.265773202674188,2131.30426516449
0.25605003113748,2131.31426516449
0.2470579723878,2131.32426516449
0.238380111578215,2131.33426516449
0.229827958284113,2131.34426516449
0.220796937318692,2131.35426516449
0.211261965524608,2131.36426516449
0.201277669124679,2131.37426516449
0.191307312265567,2131.38426516449
0.181284066393739,2131.39426516449
0.172256297935423,2131.40426516449
0.164669790439632,2131.41426516449
0.159038179803048,2131.42426516449
0.157049215649487,2131.43426516449
0.158150932359846,2131.44426516449
0.163003034780542,2131.45426516449
0.171694891136068,2131.46426516449
0.18338644091402,2131.47426516449
0.196828905181636,2131.48426516449
0.21151195557986,2131.49426516449
0.225937133443916,2131.50426516449
0.239201774408145,2131.51426516449
0.250387790203372,2131.52426516449
0.258764428898115,2131.53426516449
0.263896929389241,2131.54426516449
0.266376423904422,2131.55426516449
0.266258463975031,2131.56426516449
0.264355098839777,2131.57426516449
0.261112029511732,2131.58426516449
0.256926231252455,2131.59426516449
0.251717325033448,2131.60426516449
0.245911527824092,2131.61426516449
0.239555042398603,2131.62426516449
0.233013996994393,2131.63426516449
0.225645826912896,2131.64426516449
0.219170359318982,2131.65426516449
0.212371203741401,2131.66426516449
0.205649645949715,2131.67426516449
0.199253592371994,2131.68426516449
0.193121677482637,2131.69426516449
0.187544388353869,2131.70426516449
0.181950426757673,2131.71426516449
0.176628951382163,2131.72426516449
0.171137669014559,2131.73426516449
0.166079553015279,2131.74426516449
0.160783875777535,2131.75426516449
0.155236595869704,2131.76426516449
0.149909558247785,2131.77426516449
0.145341276904115,2131.78426516449
0.141239780985592,2131.79426516449
0.137568727664257,2131.80426516449
0.134000610752122,2131.81426516449
0.130432081106655,2131.82426516449
0.126085728973853,2131.83426516449
0.12182812523541,2131.84426516449
0.117814120745628,2131.85426516449
0.113808432430286,2131.86426516449
0.109855645773486,2131.87426516449
0.105683707948982,2131.88426516449
0.100254439926361,2131.89426516449
0.0946090568415325,2131.90426516449
0.0885639969313501,2131.91426516449
0.0831782863279697,2131.92426516449
0.0782980827359347,2131.93426516449
0.0734130724824498,2131.94426516449
0.0693714112558279,2131.95426516449
0.0650539036801834,2131.96426516449
0.0606621082111223,2131.97426516449
0.0563948811048182,2131.98426516449
0.0517215432773412,2131.99426516449
0.047061699400809,2132.00426516449
0.0429731548581857,2132.01426516449
0.0394114829516158,2132.02426516449
0.0357375093637518,2132.03426516449
0.0321518457797034,2132.04426516449
0.0285493450476898,2132.05426516449
0.0249114764482551,2132.06426516449
0.0208779331636953,2132.07426516449
0.0167859126651979,2132.08426516449
0.0128521378066476,2132.09426516449
0.00848121708149037,2132.10426516449
0.00358351156098945,2132.11426516449
-0.0018288430311875,2132.12426516449
-0.00807219139319822,2132.13426516449
-0.0148992471054111,2132.14426516449
-0.0219034163961651,2132.15426516449
-0.0289253742835202,2132.16426516449
-0.0353270296273353,2132.17426516449
-0.0405912670577579,2132.18426516449
-0.0438681025117931,2132.19426516449
-0.0438457694928672,2132.20426516449
-0.0377212830649068,2132.21426516449
-0.0233126648828815,2132.22426516449
0.00162530886647526,2132.23426516449
0.0374310357153552,2132.24426516449
0.0828358787926268,2132.25426516449
0.134594055056148,2132.26426516449
0.189552314750629,2132.27426516449
0.244716208722237,2132.28426516449
0.295877170742489,2132.29426516449
0.340593056208409,2132.30426516449
0.376532159819278,2132.31426516449
0.402919192295092,2132.32426516449
0.420289114310805,2132.33426516449
0.429116535375815,2132.34426516449
0.430181819496418,2132.35426516449
0.425381374455228,2132.36426516449
0.415984353471413,2132.37426516449
0.403860741198958,2132.38426516449
0.390677422182885,2132.39426516449
0.376921445453227,2132.40426516449
0.363408983909356,2132.41426516449
0.349840669335542,2132.42426516449
0.336718206685578,2132.43426516449
0.324405622169367,2132.44426516449
0.312674587486419,2132.45426516449
0.301072884964609,2132.46426516449
0.289040716500047,2132.47426516449
0.27630880606697,2132.48426516449
0.263051580164947,2132.49426516449
0.250090196408072,2132.50426516449
0.238097977172216,2132.51426516449
0.227864939965732,2132.52426516449
0.220102769150581,2132.53426516449
0.216100247552573,2132.54426516449
0.215358874708518,2132.55426516449
0.219049176428532,2132.56426516449
0.227109729891598,2132.57426516449
0.238112064944928,2132.58426516449
0.251692556680294,2132.59426516449
0.266859031620176,2132.60426516449
0.282622039671599,2132.61426516449
0.29768293749859,2132.62426516449
0.311133039332423,2132.63426516449
0.321412496202282,2132.64426516449
0.328535960835716,2132.65426516449
0.332438627791401,2132.66426516449
0.33313317938564,2132.67426516449
0.33102527309975,2132.68426516449
0.326857528956583,2132.69426516449
0.321437610528461,2132.70426516449
0.315181525074605,2132.71426516449
0.307770576399397,2132.72426516449
0.299663559063163,2132.73426516449
0.291550387689725,2132.74426516449
0.282983045522505,2132.75426516449
0.274805189408964,2132.76426516449
0.266334085961935,2132.77426516449
0.259379002597708,2132.78426516449
0.252013897684122,2132.79426516449
0.245366364657465,2132.80426516449
0.238931714001843,2132.81426516449
0.23327660415902,2132.82426516449
0.22783327683794,2132.83426516449
0.222810562978827,2132.84426516449
0.217966095359935,2132.85426516449
0.212981136818015,2132.86426516449
0.208244181928933,2132.87426516449
0.203318494181426,2132.88426516449
0.198535130605673,2132.89426516449
0.193836697201728,2132.90426516449
0.189418594203178,2132.91426516449
0.184539544327635,2132.92426516449
0.17944166970072,2132.93426516449
0.173793555034699,2132.94426516449
0.167827864539461,2132.95426516449
0.161953185299697,2132.96426516449
0.155526972305143,2132.97426516449
0.148931172860539,2132.98426516449
0.142180087013613,2132.99426516449
0.135576611356278,2133.00426516449
0.129472850927762,2133.01426516449
0.12374962691135,2133.02426516449
0.118467763867882,2133.03426516449
0.113483690271621,2133.04426516449
0.108757263093194,2133.05426516449
0.103063772863319,2133.06426516449
0.0972506540430459,2133.07426516449
0.0911558625494679,2133.08426516449
0.0853117825058483,2133.09426516449
0.079854643972929,2133.10426516449
0.0745908359055854,2133.11426516449
0.0687836994431829,2133.12426516449
0.0630743452619015,2133.13426516449
0.0569983601552947,2133.14426516449
0.050912383448007,2133.15426516449
0.045163818310961,2133.16426516449
0.0399145122552903,2133.17426516449
0.0344879645991262,2133.18426516449
0.0295085445739402,2133.19426516449
0.0246023996321586,2133.20426516449
0.020462188562902,2133.21426516449
0.0159388266637558,2133.22426516449
0.0108701260891173,2133.23426516449
0.00539805279942758,2133.24426516449
-0.00049693603920274,2133.25426516449
-0.00629014059150068,2133.26426516449
-0.012383094035983,2133.27426516449
-0.0183599234105332,2133.28426516449
-0.0236472322568705,2133.29426516449
-0.0286668381161515,2133.30426516449
-0.0325175846154171,2133.31426516449
-0.0347523824180171,2133.32426516449
-0.0327373147475103,2133.33426516449
-0.023489829062784,2133.34426516449
-0.00397171202965708,2133.35426516449
0.0275077337962615,2133.36426516449
0.0712457762779279,2133.37426516449
0.124479528065188,2133.38426516449
0.183621364500453,2133.39426516449
0.244784599418507,2133.40426516449
0.302720057667106,2133.41426516449
0.355321987898344,2133.42426516449
0.399273721084026,2133.43426516449
0.433617600374535,2133.44426516449
0.458835792229984,2133.45426516449
0.47462227781784,2133.46426516449
0.482163708841553,2133.47426516449
0.482585747232664,2133.48426516449
0.47729215645105,2133.49426516449
0.467395219268998,2133.50426516449
0.455321480166175,2133.51426516449
0.442325080745952,2133.52426516449
0.429350772816643,2133.53426516449
0.416893935781019,2133.54426516449
0.405378122242966,2133.55426516449
0.394621918214059,2133.56426516449
0.384010856210546,2133.57426516449
0.374035434678286,2133.58426516449
0.364079387861016,2133.59426516449
0.354323745037798,2133.60426516449
0.343973550476707,2133.61426516449
0.332726217581442,2133.62426516449
0.321465274934283,2133.63426516449
0.309984286467863,2133.64426516449
0.300277667003178,2133.65426516449
0.292527925723831,2133.66426516449
0.287053810493777,2133.67426516449
0.284609813315369,2133.68426516449
0.284900682619209,2133.69426516449
0.288513584323892,2133.70426516449
0.295628195350795,2133.71426516449
0.305766589013354,2133.72426516449
0.317904984356906,2133.73426516449
0.331462963806293,2133.74426516449
0.345034433243764,2133.75426516449
0.356994925949838,2133.76426516449
0.366668889589794,2133.77426516449
0.373836993470072,2133.78426516449
0.378851782060183,2133.79426516449
0.38043106161244,2133.80426516449
0.380097079721691,2133.81426516449
0.37785947157527,2133.82426516449
0.37334826582969,2133.83426516449
0.366959685656958,2133.84426516449
0.359724310565078,2133.85426516449
0.352216959624396,2133.86426516449
0.343397393579711,2133.87426516449
0.334664831804094,2133.88426516449
0.326565751148227,2133.89426516449
0.318170128838679,2133.90426516449
0.30940962089408,2133.91426516449
0.301397868515379,2133.92426516449
0.29371754906797,2133.93426516449
0.285431398719279,2133.94426516449
0.277740861897651,2133.95426516449
0.271195650757847,2133.96426516449
0.264739418424445,2133.97426516449
0.258673743777329,2133.98426516449
0.252372449944691,2133.99426516449
0.24670525601601,2134.00426516449
0.240107065858558,2134.01426516449
0.233844505818036,2134.02426516449
0.227717229797617,2134.03426516449
0.221523018800943,2134.04426516449
0.215372623980378,2134.05426516449
0.209732875147834,2134.06426516449
0.204808109774075,2134.07426516449
0.200000760284104,2134.08426516449
0.195362931036766,2134.09426516449
0.190470611691846,2134.10426516449
0.185255060312415,2134.11426516449
0.18004655876372,2134.12426516449
0.174404800864762,2134.13426516449
0.169300244352624,2134.14426516449
0.163955768050387,2134.15426516449
0.15842231715543,2134.16426516449
0.15269887253466,2134.17426516449
0.14637015068066,2134.18426516449
0.13933128471808,2134.19426516449
0.13259341368863,2134.20426516449
0.126280058715484,2134.21426516449
0.12002773038512,2134.22426516449
0.114079738279231,2134.23426516449
0.108943414895637,2134.24426516449
0.103460393619237,2134.25426516449
0.0975198392973012,2134.26426516449
0.0912124184578225,2134.27426516449
0.0852636586355923,2134.28426516449
0.079152463101482,2134.29426516449
0.0726533589199747,2134.30426516449
0.0669460265107838,2134.31426516449
0.0607952664105912,2134.32426516449
0.0543312186959836,2134.33426516449
0.0484895252776223,2134.34426516449
0.0429252155559046,2134.35426516449
0.0366638542827552,2134.36426516449
0.0314661697391639,2134.37426516449
0.026717159225033,2134.38426516449
0.0217378622210626,2134.39426516449
0.0161330244367777,2134.40426516449
0.0104120094881212,2134.41426516449
0.00486790730812607,2134.42426516449
-0.00104630949574989,2134.43426516449
-0.00729874632260035,2134.44426516449
-0.0130330423757687,2134.45426516449
-0.0190864233090618,2134.46426516449
-0.02554840753643,2134.47426516449
-0.0322743171175321,2134.48426516449
-0.0387859843733399,2134.49426516449
-0.0457705650943434,2134.50426516449
-0.0520209544528976,2134.51426516449
-0.057367683241193,2134.52426516449
-0.0620902115335134,2134.53426516449
-0.0646315161554377,2134.54426516449
-0.0625277792506179,2134.55426516449
-0.0527135018465442,2134.56426516449
-0.0324812867475359,2134.57426516449
-0.000436593639736308,2134.58426516449
0.0426698336847347,2134.59426516449
0.09399624930076,2134.60426516449
0.149955166013208,2134.61426516449
0.207145008128029,2134.62426516449
0.262173201793263,2134.63426516449
0.311054345180963,2134.64426516449
0.352704717885869,2134.65426516449
0.385824180218822,2134.66426516449
0.408665194926172,2134.67426516449
0.422048096048146,2134.68426516449
0.426645426061185,2134.69426516449
0.424538254459325,2134.70426516449
0.415811776578767,2134.71426516449
0.403588786916955,2134.72426516449
0.38923277125397,2134.73426516449
0.373271912658316,2134.74426516449
0.356960868456308,2134.75426516449
0.341530247751911,2134.76426516449
0.327666650586286,2134.77426516449
0.314173451295717,2134.78426516449
0.301230250732321,2134.79426516449
0.289641338494518,2134.80426516449
0.278080977510644,2134.81426516449
0.26591766181025,2134.82426516449
0.253811925309746,2134.83426516449
0.241658644513388,2134.84426516449
0.228894948314439,2134.85426516449
0.217416952767505,2134.86426516449
0.208135435062198,2134.87426516449
0.2012349302884,2134.88426516449
0.197695599775652,2134.89426516449
0.197972312394005,2134.90426516449
0.202811525252668,2134.91426516449
0.211297586983007,2134.92426516449
0.222677098912095,2134.93426516449
0.236824887051848,2134.94426516449
0.251984514440807,2134.95426516449
0.267032109000658,2134.96426516449
0.281596833291796,2134.97426516449
0.294217302044775,2134.98426516449
0.303085791650913,2134.99426516449
0.308740313698206,2135.00426516449
0.312049729619072,2135.01426516449
0.312391877476041,2135.02426516449
0.310335740081926,2135.03426516449
0.306493705410025,2135.04426516449
0.301463764044983,2135.05426516449
0.294616021239581,2135.06426516449
0.286983809277057,2135.07426516449
0.279736728952466,2135.08426516449
0.27215502992352,2135.09426516449
0.264070521473986,2135.10426516449
0.256003657934928,2135.11426516449
0.247883497167183,2135.12426516449
0.23941396749573,2135.13426516449
0.231033478235782,2135.14426516449
0.223201453228543,2135.15426516449
0.215882006381311,2135.16426516449
0.208733464198883,2135.17426516449
0.201811566522561,2135.18426516449
0.195413667251938,2135.19426516449
0.188172202585691,2135.20426516449
0.181534458599582,2135.21426516449
0.175978058031275,2135.22426516449
0.170877469325476,2135.23426516449
0.165450480534216,2135.24426516449
0.159867751738675,2135.25426516449
0.154417785328976,2135.26426516449
0.148571601576219,2135.27426516449
0.142676826665254,2135.28426516449
0.137043533317039,2135.29426516449
0.131090324355217,2135.30426516449
0.12470677063884,2135.31426516449
0.117855394599911,2135.32426516449
0.1117060478056,2135.33426516449
0.104615158418511,2135.34426516449
0.0977581023012961,2135.35426516449
0.0918625568027536,2135.36426516449
0.0856717103610099,2135.37426516449
0.0796012293139739,2135.38426516449
0.0734874142219337,2135.39426516449
0.0677109274567722,2135.40426516449
0.0610975395934069,2135.41426516449
0.0547886775924896,2135.42426516449
0.0490669273493651,2135.43426516449
0.0431141168951134,2135.44426516449
0.0375150140128355,2135.45426516449
0.0311404015385856,2135.46426516449
0.0252349747539009,2135.47426516449
0.0184351831910885,2135.48426516449
0.011791076597849,2135.49426516449
0.00556579276674842,2135.50426516449
-0.000757829113209381,2135.51426516449
-0.00661770484212634,2135.52426516449
-0.0128651311896437,2135.53426516449
-0.0183208492014973,2135.54426516449
-0.0240113062199854,2135.55426516449
-0.0295229442617994,2135.56426516449
-0.034565533201841,2135.57426516449
-0.0398461305080283,2135.58426516449
-0.0457806249923829,2135.59426516449
-0.0517264944331126,2135.60426516449
-0.0574207273958896,2135.61426516449
-0.0632618574253113,2135.62426516449
-0.0679010928892406,2135.63426516449
-0.0689615987012989,2135.64426516449
-0.0642731279028638,2135.65426516449
-0.051417755551982,2135.66426516449
-0.0285733497406675,2135.67426516449
0.00626095031583923,2135.68426516449
0.0505094854940315,2135.69426516449
0.102959228270912,2135.70426516449
0.160882002940831,2135.71426516449
0.219593182226746,2135.72426516449
0.27508026116229,2135.73426516449
0.324604394878535,2135.74426516449
0.365172522529133,2135.75426516449
0.394422876091106,2135.76426516449
0.413865334999183,2135.77426516449
0.423903286878662,2135.78426516449
0.425335538368722,2135.79426516449
0.420661803639657,2135.80426516449
0.410926474283744,2135.81426516449
0.398866440596159,2135.82426516449
0.385166638640457,2135.83426516449
0.370781140900889,2135.84426516449
0.357437233374397,2135.85426516449
0.344812711140864,2135.86426516449
0.332732271332581,2135.87426516449
0.321443424315613,2135.88426516449
0.310597999575978,2135.89426516449
0.298867658618593,2135.90426516449
0.287738161142585,2135.91426516449
0.276182892506361,2135.92426516449
0.263935385648044,2135.93426516449
0.251190000321742,2135.94426516449
0.23801521783553,2135.95426516449
0.226203751882037,2135.96426516449
0.214999750925307,2135.97426516449
0.206751468331523,2135.98426516449
0.202168271583567,2135.99426516449
0.201010363690091,2136.00426516449
0.202811405739931,2136.01426516449
0.207925461083853,2136.02426516449
0.216449010445424,2136.03426516449
0.226338187702432,2136.04426516449
0.238139999629901,2136.05426516449
0.250586021576584,2136.06426516449
0.262181319656667,2136.07426516449
0.272109393760774,2136.08426516449
0.279930225939635,2136.09426516449
0.285555568208781,2136.10426516449
0.287285094623842,2136.11426516449
0.28700997580493,2136.12426516449
0.285109744660636,2136.13426516449
0.28165407251792,2136.14426516449
0.276732131307618,2136.15426516449
0.271091787190495,2136.16426516449
0.265193443869966,2136.17426516449
0.257628747853817,2136.18426516449
0.249944783337004,2136.19426516449
0.242521809371392,2136.20426516449
0.234805114110776,2136.21426516449
0.227220896967316,2136.22426516449
0.219274495059834,2136.23426516449
0.211658786539106,2136.24426516449
0.203297510203189,2136.25426516449
0.195480914287891,2136.26426516449
0.188726272611477,2136.27426516449
0.182286565846909,2136.28426516449
0.175988152227359,2136.29426516449
0.169091207656774,2136.30426516449
0.162715079013408,2136.31426516449
0.155705077380185,2136.32426516449
0.149342701359235,2136.33426516449
0.143929813894104,2136.34426516449
0.138359853185314,2136.35426516449
0.132466277087831,2136.36426516449
0.126531559475529,2136.37426516449
0.120766732768947,2136.38426516449
0.114401887534472,2136.39426516449
0.108154651695346,2136.40426516449
0.102053440727629,2136.41426516449
0.0956941618415509,2136.42426516449
0.0892028130087312,2136.43426516449
0.0828895367844493,2136.44426516449
0.0771802948424633,2136.45426516449
0.0707193610415514,2136.46426516449
0.0639998054254925,2136.47426516449
0.0576057312208175,2136.48426516449
0.0508418154461997,2136.49426516449
0.0440428932995035,2136.50426516449
0.0372916045759359,2136.51426516449
0.0308256767238222,2136.52426516449
0.0240662802933549,2136.53426516449
0.0176190051930913,2136.54426516449
0.0116087578835803,2136.55426516449
0.00531312126548551,2136.56426516449
-0.000936497220520465,2136.57426516449
-0.0065338317425234,2136.58426516449
-0.0116794700020551,2136.59426516449
-0.017164206957962,2136.60426516449
-0.0222953080161502,2136.61426516449
-0.0267608198537522,2136.62426516449
-0.0313343816975034,2136.63426516449
-0.0359787027839441,2136.64426516449
-0.040696599365813,2136.65426516449
-0.0462796685416498,2136.66426516449
-0.052902912443206,2136.67426516449
-0.0595618953456027,2136.68426516449
-0.0663738293817366,2136.69426516449
-0.0730366230333569,2136.70426516449
-0.0797559989145346,2136.71426516449
-0.0864581719011702,2136.72426516449
-0.0926020614855004,2136.73426516449
-0.0991101783932546,2136.74426516449
-0.105474585871314,2136.75426516449
-0.111810332397009,2136.76426516449
-0.118592545747437,2136.77426516449
-0.124529973267188,2136.78426516449
-0.127300451886313,2136.79426516449
-0.126894305375345,2136.80426516449
-0.118872438245194,2136.81426516449
-0.0999899317710552,2136.82426516449
-0.0706606403846274,2136.83426516449
-0.0307797895464073,2136.84426516449
0.0162966045543088,2136.85426516449
0.0699850119384588,2136.86426516449
0.12336999750266,2136.87426516449
0.175101502141071,2136.88426516449
0.222680799767146,2136.89426516449
0.261306619263741,2136.90426516449
0.290643398455323,2136.91426516449
0.309819303676645,2136.92426516449
0.32067873940619,2136.93426516449
0.321934636251281,2136.94426516449
0.317367165669912,2136.95426516449
0.309486076298032,2136.96426516449
0.298065052878042,2136.97426516449
0.28461553073318,2136.98426516449
0.26965769481325,2136.99426516449
0.256088074783314,2137.00426516449
0.240958949626003,2137.01426516449
0.227042563757307,2137.02426516449
0.215579041397938,2137.03426516449
0.203999689327273,2137.04426516449
0.192716027805244,2137.05426516449
0.180683620225811,2137.06426516449
0.169244212295528,2137.07426516449
0.155663276987715,2137.08426516449
0.141832794316258,2137.09426516449
0.129878202390713,2137.10426516449
0.117687668785884,2137.11426516449
0.107594731108234,2137.12426516449
0.0995675827750485,2137.13426516449
0.0961690360739089,2137.14426516449
0.0955609192710991,2137.15426516449
0.0999314562619622,2137.16426516449
0.109051252647802,2137.17426516449
0.120225110322824,2137.18426516449
0.133797182367369,2137.19426516449
0.147055269892846,2137.20426516449
0.161265995042173,2137.21426516449
0.17207316812764,2137.22426516449
0.180983402576877,2137.23426516449
0.188222279430707,2137.24426516449
0.192292233915598,2137.25426516449
0.19400110179199,2137.26426516449
0.192693444831861,2137.27426516449
0.190389171747556,2137.28426516449
0.184333188546395,2137.29426516449
0.17730710165212,2137.30426516449
0.170114698448598,2137.31426516449
0.16174202871248,2137.32426516449
0.153270802036681,2137.33426516449
0.144105346653652,2137.34426516449
0.136766622564961,2137.35426516449
0.127459014080804,2137.36426516449
0.118622791349908,2137.37426516449
0.110878487644432,2137.38426516449
0.102805701861014,2137.39426516449
0.0948216725782888,2137.40426516449
0.0864646099276342,2137.41426516449
0.0802995295444604,2137.42426516449
0.0725361470104011,2137.43426516449
0.0655951208561205,2137.44426516449
0.0604935083842775,2137.45426516449
0.0550739413516772,2137.46426516449
0.0494338785450183,2137.47426516449
0.0430555467081603,2137.48426516449
0.0379762462789128,2137.49426516449
0.0317988669373678,2137.50426516449
0.0257184002103211,2137.51426516449
0.0210285434997276,2137.52426516449
0.0156819013829162,2137.53426516449
0.0103805950070718,2137.54426516449
0.00397232459395282,2137.55426516449
-0.00213999028422312,2137.56426516449
-0.00996309647661912,2137.57426516449
-0.0177979913432639,2137.58426516449
-0.0242057585648317,2137.59426516449
-0.0307937191444223,2137.60426516449
-0.037227480087294,2137.61426516449
-0.0444267486456398,2137.62426516449
-0.0503977196055306,2137.63426516449
-0.0582424067713068,2137.64426516449
-0.0663019758872519,2137.65426516449
-0.0727040761423263,2137.66426516449
-0.0804307569327827,2137.67426516449
-0.0876338642459587,2137.68426516449
-0.0953215379628268,2137.69426516449
-0.100774181934857,2137.70426516449
-0.107766658990203,2137.71426516449
-0.114261127201023,2137.72426516449
-0.119592180592839,2137.73426516449
-0.126018842397152,2137.74426516449
-0.133488944753004,2137.75426516449
-0.141786274823788,2137.76426516449
-0.149959050215675,2137.77426516449
-0.15815190463329,2137.78426516449
-0.165080980128586,2137.79426516449
-0.172863264580174,2137.80426516449
-0.180897967185803,2137.81426516449
-0.187099803226805,2137.82426516449
-0.193209030774773,2137.83426516449
-0.19769285758422,2137.84426516449
-0.199679480876182,2137.85426516449
-0.195272797887876,2137.86426516449
-0.184769129759518,2137.87426516449
-0.164128505639081,2137.88426516449
-0.131869997026739,2137.89426516449
-0.090949435195418,2137.90426516449
-0.043573402420807,2137.91426516449
0.00564158034656893,2137.92426516449
0.0553966930348078,2137.93426516449
0.0995607674116058,2137.94426516449
0.137466906433752,2137.95426516449
0.168732708786847,2137.96426516449
0.190535980628733,2137.97426516449
0.204080314791591,2137.98426516449
0.208788176430686,2137.99426516449
0.208116560546786,2138.00426516449
0.201119586489549,2138.01426516449
0.190942413091807,2138.02426516449
0.179883083270157,2138.03426516449
0.16744870827534,2138.04426516449
0.154215712504897,2138.05426516449
0.140686608205177,2138.06426516449
0.128281073738784,2138.07426516449
0.115361231672588,2138.08426516449
0.103690230753637,2138.09426516449
0.094106911138,2138.10426516449
0.0846378251352497,2138.11426516449
0.075597197193747,2138.12426516449
0.0652028123753699,2138.13426516449
0.0549714071332083,2138.14426516449
0.043075698013658,2138.15426516449
0.0304122510089635,2138.16426516449
0.0193671331589408,2138.17426516449
0.00935474012407078,2138.18426516449
0.00124332986648862,2138.19426516449
-0.00427728481092028,2138.20426516449
-0.00539203795410892,2138.21426516449
-0.00510818701085995,2138.22426516449
-0.00187365685823436,2138.23426516449
0.0050644839242818,2138.24426516449
0.0134873727025234,2138.25426516449
0.0228182269738354,2138.26426516449
0.0313573879323301,2138.27426516449
0.0407164758493588,2138.28426516449
0.0461498328416543,2138.29426516449
0.0496490566403338,2138.30426516449
0.0518154760644534,2138.31426516449
0.0512535840836697,2138.32426516449
0.0489010553976927,2138.33426516449
0.0437499070991055,2138.34426516449
0.0388465266498906,2138.35426516449
0.0315075304101358,2138.36426516449
0.0238791707027596,2138.37426516449
0.017378258382844,2138.38426516449
0.0101596533943772,2138.39426516449
0.00219246837924967,2138.40426516449
-0.00656574251011968,2138.41426516449
-0.0144197321322919,2138.42426516449
-0.0244135432503955,2138.43426516449
-0.0334816857333544,2138.44426516449
-0.0412764833220389,2138.45426516449
-0.0484129068477199,2138.46426516449
-0.0555624082935998,2138.47426516449
-0.0632425728630493,2138.48426516449
-0.0698492805177183,2138.49426516449
-0.0786361173089171,2138.50426516449
-0.0871107854063796,2138.51426516449
-0.0946032495674195,2138.52426516449
-0.102323439618092,2138.53426516449
-0.109500634941228,2138.54426516449
-0.117738327097414,2138.55426516449
-0.123928971101518,2138.56426516449
-0.131804233470176,2138.57426516449
-0.139197795360906,2138.58426516449
-0.145459096964081,2138.59426516449
-0.152508300619794,2138.60426516449
-0.159661842171373,2138.61426516449
-0.167595893657741,2138.62426516449
-0.174486128238464,2138.63426516449
-0.183549369937481,2138.64426516449
-0.191903641575786,2138.65426516449
-0.198567833685368,2138.66426516449
-0.205874122806337,2138.67426516449
-0.212950974427074,2138.68426516449
-0.221193165409128,2138.69426516449
-0.227144696571927,2138.70426516449
-0.235439559085465,2138.71426516449
-0.243387844013905,2138.72426516449
-0.249691224089471,2138.73426516449
-0.256376160218085,2138.74426516449
-0.26344069109403,2138.75426516449
-0.271243223658034,2138.76426516449
-0.278788045271246,2138.77426516449
-0.286666945163091,2138.78426516449
-0.292751870723044,2138.79426516449
-0.300334052339441,2138.80426516449
-0.307250368219581,2138.81426516449
-0.312408153044026,2138.82426516449
-0.317134880092678,2138.83426516449
-0.322153541104003,2138.84426516449
-0.327811236509436,2138.85426516449
-0.332716985118314,2138.86426516449
-0.339089318633216,2138.87426516449
-0.345649289946971,2138.88426516449
-0.351385600868504,2138.89426516449
-0.357947802858784,2138.90426516449
-0.364815788007742,2138.91426516449
-0.37238904775682,2138.92426516449
-0.378673812228011,2138.93426516449
-0.386763183876086,2138.94426516449
-0.394982522173163,2138.95426516449
-0.401938709594148,2138.96426516449
-0.409353519722409,2138.97426516449
-0.416510643600795,2138.98426516449
-0.423318466759104,2138.99426516449
-0.427116948849006,2139.00426516449
-0.42874034975665,2139.01426516449
-0.423746000711269,2139.02426516449
-0.409919486063787,2139.03426516449
-0.386358308776616,2139.04426516449
-0.352748535531661,2139.05426516449
-0.311779426254879,2139.06426516449
-0.264123831962792,2139.07426516449
-0.216567336976993,2139.08426516449
-0.171100613681539,2139.09426516449
-0.129663729660922,2139.10426516449
-0.0952176510269611,2139.11426516449
-0.068620166804943,2139.12426516449
-0.0505168211105692,2139.13426516449
-0.0389509073630763,2139.14426516449
-0.035132059315671,2139.15426516449
-0.0366486824045345,2139.16426516449
-0.0408256345781907,2139.17426516449
-0.0484326449996632,2139.18426516449
-0.057576228737864,2139.19426516449
-0.0684799338704315,2139.20426516449
-0.0783484836214365,2139.21426516449
-0.0901597718363776,2139.22426516449
-0.101505530870372,2139.23426516449
-0.111062751624663,2139.24426516449
-0.120795280821042,2139.25426516449
-0.130244098663004,2139.26426516449
-0.140093101823692,2139.27426516449
-0.148973500520619,2139.28426516449
-0.160384391902228,2139.29426516449
-0.172105027088323,2139.30426516449
-0.182132109006287,2139.31426516449
-0.192441480647081,2139.32426516449
-0.201040254440598,2139.33426516449
-0.208301228524271,2139.34426516449
-0.211801473598365,2139.35426516449
-0.213932639473183,2139.36426516449
-0.213283259431925,2139.37426516449
-0.208919735405417,2139.38426516449
-0.202100565679622,2139.39426516449
-0.193243772376921,2139.40426516449
-0.184007853193991,2139.41426516449
-0.173066947854408,2139.42426516449
-0.164227591686438,2139.43426516449
-0.156607349296196,2139.44426516449
-0.15001640489393,2139.45426516449
-0.146368877267351,2139.46426516449
-0.144764788672117,2139.47426516449
-0.146732384773131,2139.48426516449
-0.148506748676788,2139.49426516449
-0.153660238057283,2139.50426516449
-0.159554287532342,2139.51426516449
-0.164897056895682,2139.52426516449
-0.17162403541234,2139.53426516449
-0.178372091385185,2139.54426516449
-0.186028286529724,2139.55426516449
-0.192297262496667,2139.56426516449
-0.200479486013424,2139.57426516449
-0.208977332753129,2139.58426516449
-0.215778010004018,2139.59426516449
-0.222719283242133,2139.60426516449
-0.229490886072922,2139.61426516449
-0.236599254683547,2139.62426516449
-0.241559476859895,2139.63426516449
-0.248167858361845,2139.64426516449
-0.254554144391921,2139.65426516449
-0.259514654958524,2139.66426516449
-0.265001620270477,2139.67426516449
-0.269964120902774,2139.68426516449
-0.275237040482504,2139.69426516449
-0.278147334301217,2139.70426516449
-0.283455836788278,2139.71426516449
-0.288224903478468,2139.72426516449
-0.291294112850918,2139.73426516449
-0.29508196467643,2139.74426516449
-0.299059316633844,2139.75426516449
-0.303992439239769,2139.76426516449
-0.308539770064059,2139.77426516449
-0.313473179359037,2139.78426516449
-0.316586175123199,2139.79426516449
-0.321122250551594,2139.80426516449
-0.325150802065948,2139.81426516449
-0.327973701741013,2139.82426516449
-0.331995862496251,2139.83426516449
-0.336367652366908,2139.84426516449
-0.341957700584784,2139.85426516449
-0.345797087665512,2139.86426516449
-0.351610536633747,2139.87426516449
-0.357135019181964,2139.88426516449
-0.361426954885447,2139.89426516449
-0.367199326495998,2139.90426516449
-0.373252353768144,2139.91426516449
-0.380157084162543,2139.92426516449
-0.385206248498834,2139.93426516449
-0.391319414100616,2139.94426516449
-0.39741060975352,2139.95426516449
-0.401784786015803,2139.96426516449
-0.406992957320234,2139.97426516449
-0.413067108999413,2139.98426516449
-0.419060966306512,2139.99426516449
-0.422002517275818,2140.00426516449
-0.423975147454055,2140.01426516449
-0.420640920742034,2140.02426516449
-0.409172737796153,2140.03426516449
-0.389621881619078,2140.04426516449
-0.361213636843263,2140.05426516449
-0.325836129824103,2140.06426516449
-0.283833671674256,2140.07426516449
-0.241271433164594,2140.08426516449
-0.199352268005472,2140.09426516449
-0.159851891570997,2140.10426516449
-0.126341505111299,2140.11426516449
-0.0996245522425047,2140.12426516449
-0.079990591668441,2140.13426516449
-0.0655741834514809,2140.14426516449
-0.0589138650008484,2140.15426516449
-0.057601706069443,2140.16426516449
-0.0603498668165971,2140.17426516449
-0.0678966853907787,2140.18426516449
-0.0783796312436947,2140.19426516449
-0.0901720756558705,2140.20426516449
-0.0994315507002392,2140.21426516449
-0.109278919544174,2140.22426516449
-0.118443859830039,2140.23426516449
-0.125408344727683,2140.24426516449
-0.13330021781154,2140.25426516449
-0.141977113926539,2140.26426516449
-0.152924618400921,2140.27426516449
-0.163569511119105,2140.28426516449
-0.176904991259131,2140.29426516449
-0.190188100629952,2140.30426516449
-0.201328784525356,2140.31426516449
-0.211580489074821,2140.32426516449
-0.219749076174884,2140.33426516449
-0.226537870974075,2140.34426516449
-0.229035975720608,2140.35426516449
-0.229460809955472,2140.36426516449
-0.225237781412738,2140.37426516449
-0.21539143557178,2140.38426516449
-0.203373749822324,2140.39426516449
-0.190331568948398,2140.40426516449
-0.178252583374302,2140.41426516449
-0.165768245823028,2140.42426516449
-0.156509570675349,2140.43426516449
-0.149617456543778,2140.44426516449
-0.143910931988491,2140.45426516449
-0.141105965972173,2140.46426516449
-0.141000485403297,2140.47426516449
-0.143956950496532,2140.48426516449
-0.147401124694958,2140.49426516449
-0.15415141892544,2140.50426516449
-0.16252270743428,2140.51426516449
-0.170155497257398,2140.52426516449
-0.177673629687422,2140.53426516449
-0.184171297535816,2140.54426516449
-0.190411184994903,2140.55426516449
-0.194663382716447,2140.56426516449
-0.201167680977278,2140.57426516449
-0.207535966665411,2140.58426516449
-0.212581612808758,2140.59426516449
-0.21759258194175,2140.60426516449
-0.222683800714986,2140.61426516449
-0.228886781346889,2140.62426516449
-0.233285189059045,2140.63426516449
-0.241256465305244,2140.64426516449
-0.248988216802532,2140.65426516449
-0.254825248491712,2140.66426516449
-0.260064516286689,2140.67426516449
-0.262881500281966,2140.68426516449
-0.265290123510336,2140.69426516449
-0.265444471697931,2140.70426516449
-0.267891737452101,2140.71426516449
-0.271213513064148,2140.72426516449
-0.273796914497919,2140.73426516449
-0.277768712618984,2140.74426516449
-0.282132605344963,2140.75426516449
-0.287747659289054,2140.76426516449
-0.293234982622442,2140.77426516449
-0.300108197900993,2140.78426516449
-0.305900907821997,2140.79426516449
-0.313123626003451,2140.80426516449
-0.319866767883618,2140.81426516449
-0.323990338518094,2140.82426516449
-0.327281249546644,2140.83426516449
-0.328826075528388,2140.84426516449
-0.329877778896873,2140.85426516449
-0.32946817558778,2140.86426516449
-0.33176196048109,2140.87426516449
-0.335421066594281,2140.88426516449
-0.338638243091376,2140.89426516449
-0.343288694259244,2140.90426516449
-0.348586381876789,2140.91426516449
-0.355688698809416,2140.92426516449
-0.361967921744029,2140.93426516449
-0.370940397839346,2140.94426516449
-0.37990122543962,2140.95426516449
-0.385696519752061,2140.96426516449
-0.390609700841536,2140.97426516449
-0.393942567608328,2140.98426516449
-0.39621912033874,2140.99426516449
-0.39425338995867,2141.00426516449
-0.390760091915325,2141.01426516449
-0.381059110695781,2141.02426516449
-0.36195005821244,2141.03426516449
-0.333776319013164,2141.04426516449
-0.295644727543526,2141.05426516449
-0.249777122370111,2141.06426516449
-0.197860081842851,2141.07426516449
-0.147804255339546,2141.08426516449
-0.101563142954649,2141.09426516449
-0.0604677139301853,2141.10426516449
-0.0259137513419637,2141.11426516449
0.00300352542612279,2141.12426516449
0.024952871152761,2141.13426516449
0.0427316398612661,2141.14426516449
0.0520753408549668,2141.15426516449
0.0563183698602442,2141.16426516449
0.0571560819219971,2141.17426516449
0.0539351439268306,2141.18426516449
0.0488822360744636,2141.19426516449
0.0421307906604876,2141.20426516449
0.0362023050103698,2141.21426516449
0.0277173566893423,2141.22426516449
0.0194318829065526,2141.23426516449
0.0131812054982731,2141.24426516449
0.00636562504269943,2141.25426516449
1.2812140581581e-05,2141.26426516449
-0.00630261096245945,2141.27426516449
-0.00924030895143251,2141.28426516449
-0.0126352620969483,2141.29426516449
-0.0161356197636658,2141.30426516449
-0.019273781115927,2141.31426516449
-0.0238696182088792,2141.32426516449
-0.0290794273630133,2141.33426516449
-0.0345643306890518,2141.34426516449
-0.0369022626586352,2141.35426516449
-0.0398177905942163,2141.36426516449
-0.0410154822534209,2141.37426516449
-0.0381491938919776,2141.38426516449
-0.0337745094222119,2141.39426516449
-0.0266309437335203,2141.40426516449
-0.0185226464405251,2141.41426516449
-0.00773931527825815,2141.42426516449
0.00205253633279375,2141.43426516449
0.0124320292418782,2141.44426516449
0.0229562717074498,2141.45426516449
0.0308014861907598,2141.46426516449
0.0358433153116204,2141.47426516449
0.0370343058913546,2141.48426516449
0.0372466542164778,2141.49426516449
0.0336598007360521,2141.50426516449
0.0286508393483861,2141.51426516449
0.0238649023387801,2141.52426516449
0.0158756333637244,2141.53426516449
0.00640294867173774,2141.54426516449
-0.00373401808886171,2141.55426516449
-0.0109667354736739,2141.56426516449
-0.0187691504464212,2141.57426516449
-0.024338378916953,2141.58426516449
-0.0264376296121603,2141.59426516449
-0.0278207745517371,2141.60426516449
-0.0290571741888354,2141.61426516449
-0.0329113790427875,2141.62426516449
-0.0356326238954693,2141.63426516449
-0.0422288359533056,2141.64426516449
-0.0489396901084461,2141.65426516449
-0.0547700571853921,2141.66426516449
-0.0618322454867374,2141.67426516449
-0.0697185931313183,2141.68426516449
-0.0782029079247255,2141.69426516449
-0.0851992576151733,2141.70426516449
-0.0927175239156746,2141.71426516449
-0.0981750475683897,2141.72426516449
-0.100776231071211,2141.73426516449
-0.103344213871255,2141.74426516449
-0.10581712797714,2141.75426516449
-0.109326600111272,2141.76426516449
-0.113248324874397,2141.77426516449
-0.118124836832108,2141.78426516449
-0.122355447038444,2141.79426516449
-0.129521300573511,2141.80426516449
-0.136460885330116,2141.81426516449
-0.142775851558822,2141.82426516449
-0.149826316702692,2141.83426516449
-0.157758087380152,2141.84426516449
-0.167206678237948,2141.85426516449
-0.174179148584609,2141.86426516449
-0.181543041188786,2141.87426516449
-0.185522503353384,2141.88426516449
-0.186219088561805,2141.89426516449
-0.186874612741843,2141.90426516449
-0.187602966256854,2141.91426516449
-0.190526733540102,2141.92426516449
-0.193461404160368,2141.93426516449
-0.198495744430998,2141.94426516449
-0.203634117898308,2141.95426516449
-0.208155707943212,2141.96426516449
-0.214831304250564,2141.97426516449
-0.222225572141087,2141.98426516449
-0.230249826311958,2141.99426516449
-0.237306602153392,2142.00426516449
-0.245745345889138,2142.01426516449
-0.251735147607453,2142.02426516449
-0.255110546977494,2142.03426516449
-0.257092252803063,2142.04426516449
-0.25858059941197,2142.05426516449
-0.261572671050013,2142.06426516449
-0.26437378802974,2142.07426516449
-0.270107872049173,2142.08426516449
-0.276949140699915,2142.09426516449
-0.282443961238305,2142.10426516449
-0.289443076834741,2142.11426516449
-0.296254355925955,2142.12426516449
-0.302512965863934,2142.13426516449
-0.302564926033139,2142.14426516449
-0.296022679479991,2142.15426516449
-0.279144821122261,2142.16426516449
-0.248519183975321,2142.17426516449
-0.207724776450227,2142.18426516449
-0.158919928920823,2142.19426516449
-0.107110026419249,2142.20426516449
-0.0546157929509726,2142.21426516449
-0.00891756389131898,2142.22426516449
0.0293276986307484,2142.23426516449
0.0603043524710424,2142.24426516449
0.0823641719235179,2142.25426516449
0.096234045509764,2142.26426516449
0.101196534245456,2142.27426516449
0.100208910529288,2142.28426516449
0.0921230273630143,2142.29426516449
0.0814385855518441,2142.30426516449
0.071837747561399,2142.31426516449
0.0623956275522037,2142.32426516449
0.0547475941087507,2142.33426516449
0.0479737959838075,2142.34426516449
0.044441999909984,2142.35426516449
0.0384909230326274,2142.36426516449
0.0321172811507855,2142.37426516449
0.0263285800012625,2142.38426516449
0.0188956687256715,2142.39426516449
0.0108901245840044,2142.40426516449
0.00104259033094544,2142.41426516449
-0.00841564789982767,2142.42426516449
-0.0206119514803839,2142.43426516449
-0.0338733179217365,2142.44426516449
-0.0456256235133918,2142.45426516449
-0.0552948652143397,2142.46426516449
-0.0598343096892215,2142.47426516449
-0.0595532257113127,2142.48426516449
-0.0516854609676032,2142.49426516449
-0.0421988215834836,2142.50426516449
-0.0306816743275005,2142.51426516449
-0.0167321342944721,2142.52426516449
-0.00407802063241449,2142.53426516449
0.00756758278799618,2142.54426516449
0.0164893333891819,2142.55426516449
0.025024914404435,2142.56426516449
0.0281353233046019,2142.57426516449
0.0275977955073853,2142.58426516449
0.0258152723735008,2142.59426516449
0.0219083655409034,2142.60426516449
0.0186338297795525,2142.61426516449
0.0156906806894823,2142.62426516449
0.0154437991552189,2142.63426516449
0.0128102870392144,2142.64426516449
0.00994005568672511,2142.65426516449
0.00741708772787789,2142.66426516449
0.00272707019580223,2142.67426516449
-0.0021934181957136,2142.68426516449
-0.00881606852919845,2142.69426516449
-0.0143392035631345,2142.70426516449
-0.0234890481306096,2142.71426516449
-0.0338658461307587,2142.72426516449
-0.0431551232146293,2142.73426516449
-0.0524602817081158,2142.74426516449
-0.0611315380969854,2142.75426516449
-0.070338461640246,2142.76426516449
-0.0775658878688173,2142.77426516449
-0.0819053310230213,2142.78426516449
-0.0811929645893534,2142.79426516449
-0.0807416053114249,2142.80426516449
-0.080570620431537,2142.81426516449
-0.0805289934590604,2142.82426516449
-0.0833098666210442,2142.83426516449
-0.0873041154623161,2142.84426516449
-0.0933733079397681,2142.85426516449
-0.0992799575043514,2142.86426516449
-0.107372174238534,2142.87426516449
-0.117379597257497,2142.88426516449
-0.125907152817493,2142.89426516449
-0.135123406639789,2142.90426516449
-0.14385532067576,2142.91426516449
-0.152299839050857,2142.92426516449
-0.15729662271794,2142.93426516449
-0.160921346483059,2142.94426516449
-0.162637713558616,2142.95426516449
-0.1627324675759,2142.96426516449
-0.164148790443316,2142.97426516449
-0.16703512775663,2142.98426516449
-0.171673361599937,2142.99426516449
-0.176123455657382,2143.00426516449
-0.183208589431864,2143.01426516449
-0.192416479462858,2143.02426516449
-0.201208710601036,2143.03426516449
-0.209860751058851,2143.04426516449
-0.218248889450138,2143.05426516449
-0.224789089316271,2143.06426516449
-0.227504612713233,2143.07426516449
-0.230425579065036,2143.08426516449
-0.231446159728107,2143.09426516449
-0.229817063644082,2143.10426516449
-0.229965800403603,2143.11426516449
-0.231084649258571,2143.12426516449
-0.235042528826213,2143.13426516449
-0.238267983842465,2143.14426516449
-0.245236444585057,2143.15426516449
-0.252736339353812,2143.16426516449
-0.259454215724819,2143.17426516449
-0.26760194368588,2143.18426516449
-0.276230423149268,2143.19426516449
-0.283589239277307,2143.20426516449
-0.28381698789987,2143.21426516449
-0.276990538906702,2143.22426516449
-0.258740989815249,2143.23426516449
-0.227483388320659,2143.24426516449
-0.186688597450071,2143.25426516449
-0.138724510419506,2143.26426516449
-0.0883371624512249,2143.27426516449
-0.036609975769624,2143.28426516449
0.0088970488955706,2143.29426516449
0.0477830427907661,2143.30426516449
0.0799444724261378,2143.31426516449
0.101005889503149,2143.32426516449
0.113142568748708,2143.33426516449
0.117403537025398,2143.34426516449
0.11758965939691,2143.35426516449
0.112903287634289,2143.36426516449
0.106130145489232,2143.37426516449
0.100172878728986,2143.38426516449
0.0943246742377428,2143.39426516449
0.0889633561937722,2143.40426516449
0.0829434126339448,2143.41426516449
0.0785551552112026,2143.42426516449
0.0715041682625559,2143.43426516449
0.0644419945103855,2143.44426516449
0.0577465070132116,2143.45426516449
0.0492594661710779,2143.46426516449
0.0401971678228452,2143.47426516449
0.0298569325119247,2143.48426516449
0.0217069691677446,2143.49426516449
0.0108119977340874,2143.50426516449
-0.000636678125505438,2143.51426516449
-0.0092006752242783,2143.52426516449
-0.0148759340656104,2143.53426516449
-0.0160345453279656,2143.54426516449
-0.0149557266220799,2143.55426516449
-0.00934695840508793,2143.56426516449
-0.00481067663026664,2143.57426516449
0.00132464548451553,2143.58426516449
0.00941927626241022,2143.59426516449
0.0179986845684593,2143.60426516449
0.0264825043130522,2143.61426516449
0.0330662552787212,2143.62426516449
0.0386099046966557,2143.63426516449
0.0399056734623263,2143.64426516449
0.0403550806726591,2143.65426516449
0.0416162064416449,2143.66426516449
0.0420021291645315,2143.67426516449
0.0435009367254102,2143.68426516449
0.0444307109396501,2143.69426516449
0.0460488892085136,2143.70426516449
0.0438139953261149,2143.71426516449
0.0399502161284349,2143.72426516449
0.0354904009810679,2143.73426516449
0.0295000517168681,2143.74426516449
0.0230398712643677,2143.75426516449
0.0149182831218119,2143.76426516449
0.00556333028509309,2143.77426516449
-0.00531556312909804,2143.78426516449
-0.0152899739970806,2143.79426516449
-0.0269221550853456,2143.80426516449
-0.0360713183025952,2143.81426516449
-0.0415155234920964,2143.82426516449
-0.0459567751500122,2143.83426516449
-0.0486796321613135,2143.84426516449
-0.0510723322800062,2143.85426516449
-0.0518894934038835,2143.86426516449
-0.0548322519518376,2143.87426516449
-0.057975972613653,2143.88426516449
-0.0605642504293985,2143.89426516449
-0.0647770080661124,2143.90426516449
-0.0707165711367106,2143.91426516449
-0.0785366392012224,2143.92426516449
-0.0863809054775398,2143.93426516449
-0.0974253145394745,2143.94426516449
-0.108356580628692,2143.95426516449
-0.116348385933687,2143.96426516449
-0.122201512052637,2143.97426516449
-0.124172722710526,2143.98426516449
-0.124864206445796,2143.99426516449
-0.123771885375102,2144.00426516449
-0.125168369262825,2144.01426516449
-0.127737815917263,2144.02426516449
-0.130786658924607,2144.03426516449
-0.135603242851317,2144.04426516449
-0.141473978095222,2144.05426516449
-0.1489882912875,2144.06426516449
-0.156376832272253,2144.07426516449
-0.165625391978734,2144.08426516449
-0.175049851276995,2144.09426516449
-0.182643033227504,2144.10426516449
-0.189255118981498,2144.11426516449
-0.192984451898214,2144.12426516449
-0.19454883055382,2144.13426516449
-0.192673780858168,2144.14426516449
-0.193221600066816,2144.15426516449
-0.194412106255441,2144.16426516449
-0.196535909889498,2144.17426516449
-0.200362376474111,2144.18426516449
-0.204488793868623,2144.19426516449
-0.209587588891269,2144.20426516449
-0.213723632490377,2144.21426516449
-0.22069466474209,2144.22426516449
-0.228823128365042,2144.23426516449
-0.236431149069555,2144.24426516449
-0.243535691594138,2144.25426516449
-0.248957552114251,2144.26426516449
-0.253742603146712,2144.27426516449
-0.25507904282652,2144.28426516449
-0.256886119839914,2144.29426516449
-0.258903378059285,2144.30426516449
-0.259919400141598,2144.31426516449
-0.26210009700156,2144.32426516449
-0.26568151276739,2144.33426516449
-0.270648082609217,2144.34426516449
-0.274911553883586,2144.35426516449
-0.280777308255763,2144.36426516449
-0.287769696562216,2144.37426516449
-0.2953191465417,2144.38426516449
-0.304392073387849,2144.39426516449
-0.312659507726165,2144.40426516449
-0.320143262448001,2144.41426516449
-0.323659229143031,2144.42426516449
-0.32533138412842,2144.43426516449
-0.321826443673387,2144.44426516449
-0.309324523885493,2144.45426516449
-0.288401501412281,2144.46426516449
-0.258300035856219,2144.47426516449
-0.219305602547493,2144.48426516449
-0.171182583105146,2144.49426516449
-0.120990835008718,2144.50426516449
-0.0701833203853261,2144.51426516449
-0.0207562375998667,2144.52426516449
0.0219081404347223,2144.53426516449
0.0561557407934218,2144.54426516449
0.0810728645907679,2144.55426516449
0.0995060417934878,2144.56426516449
0.107067155197323,2144.57426516449
0.108915866885166,2144.58426516449
0.108425324247651,2144.59426516449
0.105194409030705,2144.60426516449
0.100577965351461,2144.61426516449
0.0934668618754013,2144.62426516449
0.0873003454105955,2144.63426516449
0.0782347535517372,2144.64426516449
0.0691453424814497,2144.65426516449
0.0618559756199732,2144.66426516449
0.0543004083436802,2144.67426516449
0.0468366294296555,2144.68426516449
0.0383799939548926,2144.69426516449
0.0312224751793773,2144.70426516449
0.0214794430217659,2144.71426516449
0.0126021164254681,2144.72426516449
0.00686620265187668,2144.73426516449
0.0015251804972589,2144.74426516449
-0.0030049901329883,2144.75426516449
-0.00742007577404333,2144.76426516449
-0.0105373810968529,2144.77426516449
-0.0125918312846284,2144.78426516449
-0.010620117940989,2144.79426516449
-0.00771004544591938,2144.80426516449
-0.00250928477085867,2144.81426516449
0.0057636755991666,2144.82426516449
0.0144818314263521,2144.83426516449
0.0255738199202358,2144.84426516449
0.0359979490878273,2144.85426516449
0.0473541487261148,2144.86426516449
0.0562254372087333,2144.87426516449
0.0637555918296815,2144.88426516449
0.0706981121654782,2144.89426516449
0.0748874419648723,2144.90426516449
0.0764382255219264,2144.91426516449
0.0749257514739589,2144.92426516449
0.0730740520875726,2144.93426516449
0.0684118491673722,2144.94426516449
0.0627557545825955,2144.95426516449
0.0575447220286739,2144.96426516449
0.0511860328130651,2144.97426516449
0.0453819614236948,2144.98426516449
0.0394413684621064,2144.99426516449
0.0348143054139316,2145.00426516449
0.0280912961805708,2145.01426516449
0.0209135592261072,2145.02426516449
0.0163161111314803,2145.03426516449
0.0122916632950384,2145.04426516449
0.00959070912949126,2145.05426516449
0.00627331042444888,2145.06426516449
0.00399707711655895,2145.07426516449
-0.000627681991938104,2145.08426516449
-0.00588658085316436,2145.09426516449
-0.00940287444424055,2145.10426516449
-0.0141415611272069,2145.11426516449
-0.018940724288171,2145.12426516449
-0.024835681238346,2145.13426516449
-0.0294609335696268,2145.14426516449
-0.0355738063790927,2145.15426516449
-0.0409972710101902,2145.16426516449
-0.0435153395224377,2145.17426516449
-0.0458992239324976,2145.18426516449
-0.0480303592011073,2145.19426516449
-0.0508793803368563,2145.20426516449
-0.0525191247732478,2145.21426516449
-0.0563157165069298,2145.22426516449
-0.0607428850530143,2145.23426516449
-0.0646479625563562,2145.24426516449
-0.0687984085421996,2145.25426516449
-0.0734165575961652,2145.26426516449
-0.0788437475871372,2145.27426516449
-0.0834222878948376,2145.28426516449
-0.0911974870033579,2145.29426516449
-0.0980769755484788,2145.30426516449
-0.101734956951842,2145.31426516449
-0.104528915372902,2145.32426516449
-0.106833194517613,2145.33426516449
-0.10927262898111,2145.34426516449
-0.110491549346108,2145.35426516449
-0.113782599478942,2145.36426516449
-0.117288167870401,2145.37426516449
-0.119923685648707,2145.38426516449
-0.12331088092843,2145.39426516449
-0.126533311158658,2145.40426516449
-0.129867296078231,2145.41426516449
-0.131278364126571,2145.42426516449
-0.134470647297463,2145.43426516449
-0.138497975465048,2145.44426516449
-0.142515887026434,2145.45426516449
-0.148318899972007,2145.46426516449
-0.152955084114404,2145.47426516449
-0.157154270991174,2145.48426516449
-0.158655478965947,2145.49426516449
-0.162702729683029,2145.50426516449
-0.167046209541184,2145.51426516449
-0.170387005445482,2145.52426516449
-0.17452172986368,2145.53426516449
-0.178409043799563,2145.54426516449
-0.182997052957917,2145.55426516449
-0.184386697629251,2145.56426516449
-0.185667998944021,2145.57426516449
-0.182964278958317,2145.58426516449
-0.172632556172084,2145.59426516449
-0.154152942034047,2145.60426516449
-0.125401791231586,2145.61426516449
-0.0878302833593621,2145.62426516449
-0.0403978618008123,2145.63426516449
0.00967357058154525,2145.64426516449
0.0610068241916136,2145.65426516449
0.111629085477661,2145.66426516449
0.155882055514358,2145.67426516449
0.192806663271993,2145.68426516449
0.22117802677561,2145.69426516449
0.242375558937831,2145.70426516449
0.253718429448774,2145.71426516449
0.258659770751421,2145.72426516449
0.258952102211189,2145.73426516449
0.255393016465812,2145.74426516449
0.24968126728366,2145.75426516449
0.241579639815881,2145.76426516449
0.232880675256786,2145.77426516449
0.223971540095515,2145.78426516449
0.217017717484223,2145.79426516449
0.209360233655617,2145.80426516449
0.202948824783629,2145.81426516449
0.19824697218752,2145.82426516449
0.192518132284188,2145.83426516449
0.185927602558371,2145.84426516449
0.178103781752123,2145.85426516449
0.17043133247251,2145.86426516449
0.160906694615418,2145.87426516449
0.151482504532407,2145.88426516449
0.143736634631205,2145.89426516449
0.13726331233783,2145.90426516449
0.133759037380611,2145.91426516449
0.133123440139181,2145.92426516449
0.137500944895685,2145.93426516449
0.144404825876386,2145.94426516449
0.154474083752388,2145.95426516449
0.168921360724442,2145.96426516449
0.18403709667578,2145.97426516449
0.199112270411646,2145.98426516449
0.211982130065908,2145.99426516449
0.22432549249978,2146.00426516449
0.232465147105398,2146.01426516449
0.238650073939043,2146.02426516449
0.2432373839507,2146.03426516449
0.244367955937554,2146.04426516449
0.243549090509625,2146.05426516449
0.240650666102198,2146.06426516449
0.238448109713831,2146.07426516449
0.233020910328225,2146.08426516449
0.227644290614382,2146.09426516449
0.223241047499339,2146.10426516449
0.21789321736826,2146.11426516449
0.212197482819142,2146.12426516449
0.206050411030385,2146.13426516449
0.200982237134926,2146.14426516449
0.194476797706596,2146.15426516449
0.188881748501738,2146.16426516449
0.185424912206113,2146.17426516449
0.181520332458957,2146.18426516449
0.178347493442922,2146.19426516449
0.174140034349268,2146.20426516449
0.171374995777311,2146.21426516449
0.167184395479127,2146.22426516449
0.162800917987023,2146.23426516449
0.15951434491274,2146.24426516449
0.155823603239602,2146.25426516449
0.152143426435952,2146.26426516449
0.14800291779315,2146.27426516449
0.145422850861893,2146.28426516449
0.141243277206628,2146.29426516449
0.136456021444359,2146.30426516449
0.133412133741572,2146.31426516449
0.129319763986592,2146.32426516449
0.124895753461645,2146.33426516449
0.11965033377648,2146.34426516449
0.116255433009978,2146.35426516449
0.111057319126533,2146.36426516449
0.106277988937738,2146.37426516449
0.102610556331076,2146.38426516449
0.098152647390186,2146.39426516449
0.0942901341193831,2146.40426516449
0.0890797478877926,2146.41426516449
0.0856999596737373,2146.42426516449
0.0801903714988024,2146.43426516449
0.0740044664156952,2146.44426516449
0.0704707145993069,2146.45426516449
0.066418389668557,2146.46426516449
0.0634753845081712,2146.47426516449
0.0595653853046792,2146.48426516449
0.0570569824493019,2146.49426516449
0.0523007320122349,2146.50426516449
0.0467883545050477,2146.51426516449
0.0427104235987163,2146.52426516449
0.0377706820774398,2146.53426516449
0.0332606715543538,2146.54426516449
0.0283922062439281,2146.55426516449
0.0259028440782843,2146.56426516449
0.021978820289092,2146.57426516449
0.0178029814637527,2146.58426516449
0.0156782739326294,2146.59426516449
0.012820345393753,2146.60426516449
0.0106030106978153,2146.61426516449
0.00714598836935088,2146.62426516449
0.00560250606671672,2146.63426516449
0.00164099727293646,2146.64426516449
-0.00274935353324704,2146.65426516449
-0.00605450906631008,2146.66426516449
-0.0112401645851343,2146.67426516449
-0.0170769537237662,2146.68426516449
-0.0241020762992141,2146.69426516449
-0.0291197467234226,2146.70426516449
-0.035770301744164,2146.71426516449
-0.0415054183701754,2146.72426516449
-0.0454585216708458,2146.73426516449
-0.0500018926576768,2146.74426516449
-0.0541447203627253,2146.75426516449
-0.0565449217738527,2146.76426516449
-0.0555729932837131,2146.77426516449
-0.0486681971910899,2146.78426516449
-0.0310595374211736,2146.79426516449
-0.00397631040000004,2146.80426516449
0.0338940786138486,2146.81426516449
0.0826065724579805,2146.82426516449
0.136977430783837,2146.83426516449
0.194431742646438,2146.84426516449
0.250167834565806,2146.85426516449
0.302990250288423,2146.86426516449
0.347907582179425,2146.87426516449
0.384539084557784,2146.88426516449
0.412577612699013,2146.89426516449
0.43101890546017,2146.90426516449
0.440761853670267,2146.91426516449
0.442929266064278,2146.92426516449
0.440646995320534,2146.93426516449
0.432888774535546,2146.94426516449
0.422336123214011,2146.95426516449
0.411880292331744,2146.96426516449
0.400882271187759,2146.97426516449
0.390117027650177,2146.98426516449
0.37905858707026,2146.99426516449
0.371291079748997,2147.00426516449
0.361969021165147,2147.01426516449
0.353643691015044,2147.02426516449
0.347138125448161,2147.03426516449
0.339774942100939,2147.04426516449
0.331656424635577,2147.05426516449
0.321852515312581,2147.06426516449
0.313405114044108,2147.07426516449
0.303064777455694,2147.08426516449
0.294298800915421,2147.09426516449
0.288714733997762,2147.10426516449
0.28503268425449,2147.11426516449
0.285000679635146,2147.12426516449
0.287407294705483,2147.13426516449
0.294919661665541,2147.14426516449
0.303394527399543,2147.15426516449
0.3145539400975,2147.16426516449
0.327574985381237,2147.17426516449
0.340904783740198,2147.18426516449
0.354470483448144,2147.19426516449
0.366688609326954,2147.20426516449
0.378578723165051,2147.21426516449
0.385994074787888,2147.22426516449
0.39082895761886,2147.23426516449
0.393555367226131,2147.24426516449
0.392453126646969,2147.25426516449
0.389265561920116,2147.26426516449
0.383865681337325,2147.27426516449
0.378965606691022,2147.28426516449
0.37185926787818,2147.29426516449
0.364414568160018,2147.30426516449
0.358652828348664,2147.31426516449
0.351936757783709,2147.32426516449
0.345573987333725,2147.33426516449
0.338654092956974,2147.34426516449
0.334265230393505,2147.35426516449
0.328106399856747,2147.36426516449
0.321729505378125,2147.37426516449
0.317000879849785,2147.38426516449
0.311191359831214,2147.39426516449
0.306089668980046,2147.40426516449
0.300019886225912,2147.41426516449
0.295300911044527,2147.42426516449
0.288278488276656,2147.43426516449
0.281797967252782,2147.44426516449
0.277275412403562,2147.45426516449
0.272647276699846,2147.46426516449
0.268759875551198,2147.47426516449
0.264164754091051,2147.48426516449
0.261353950838722,2147.49426516449
0.255898687278895,2147.50426516449
0.250385715089922,2147.51426516449
0.246127511460221,2147.52426516449
0.241183080959167,2147.53426516449
0.236662811173532,2147.54426516449
0.231266591400707,2147.55426516449
0.227845417364459,2147.56426516449
0.221912654925854,2147.57426516449
0.215893535185489,2147.58426516449
0.211026334844481,2147.59426516449
0.205526727927928,2147.60426516449
0.200194712271781,2147.61426516449
0.194387641036587,2147.62426516449
0.190677096913394,2147.63426516449
0.186007487544365,2147.64426516449
0.18140615614049,2147.65426516449
0.177978824431761,2147.66426516449
0.173393479794444,2147.67426516449
0.169813120018418,2147.68426516449
0.164819823926275,2147.69426516449
0.162000675482527,2147.70426516449
0.156685836339538,2147.71426516449
0.15140262667393,2147.72426516449
0.147619187858273,2147.73426516449
0.143153536932418,2147.74426516449
0.139061500260721,2147.75426516449
0.134878800749929,2147.76426516449
0.131004601714896,2147.77426516449
0.126802164559433,2147.78426516449
0.124444461944319,2147.79426516449
0.120489333492245,2147.80426516449
0.116315304215385,2147.81426516449
0.113255393583269,2147.82426516449
0.109046833847363,2147.83426516449
0.104247221537495,2147.84426516449
0.0986828056991093,2147.85426516449
0.0943443053733738,2147.86426516449
0.0880114609652743,2147.87426516449
0.0815302020689559,2147.88426516449
0.0762341467791488,2147.89426516449
0.0699307664434805,2147.90426516449
0.0635076910258181,2147.91426516449
0.0564151498380532,2147.92426516449
0.0511965646660739,2147.93426516449
0.046946248953486,2147.94426516449
0.0471259739282572,2147.95426516449
0.0545561040880831,2147.96426516449
0.0699260401018383,2147.97426516449
0.0958510601895573,2147.98426516449
0.131516788162495,2147.99426516449
0.17903733067374,2148.00426516449
0.231566500504942,2148.01426516449
0.287656532818604,2148.02426516449
0.345088453422092,2148.03426516449
0.398452431650422,2148.04426516449
0.444813167225297,2148.05426516449
0.481312762618323,2148.06426516449
0.509011005818336,2148.07426516449
0.524317432358937,2148.08426516449
0.531250567787294,2148.09426516449
0.532203808633763,2148.10426516449
0.527388114355484,2148.11426516449
0.518519935541825,2148.12426516449
0.505805271088504,2148.13426516449
0.4925256452283,2148.14426516449
0.477464336130898,2148.15426516449
0.462357879407133,2148.16426516449
0.449644892982434,2148.17426516449
0.437398172654898,2148.18426516449
0.426347309974746,2148.19426516449
0.414860708505328,2148.20426516449
0.405125898835034,2148.21426516449
0.393259865630739,2148.22426516449
0.38020505434668,2148.23426516449
0.367871135717789,2148.24426516449
0.354548684314664,2148.25426516449
0.34260792719481,2148.26426516449
0.33207247751263,2148.27426516449
0.326066251259239,2148.28426516449
0.322138435281028,2148.29426516449
0.322653163002277,2148.30426516449
0.328386916161873,2148.31426516449
0.337275210695574,2148.32426516449
0.350104172352085,2148.33426516449
0.36439021526831,2148.34426516449
0.381758029779571,2148.35426516449
0.39665357334826,2148.36426516449
0.410146563315303,2148.37426516449
0.423624269709366,2148.38426516449
0.433731372297196,2148.39426516449
0.441059365618026,2148.40426516449
0.444477568922103,2148.41426516449
0.447171968598839,2148.42426516449
0.444979040120015,2148.43426516449
0.440976738936546,2148.44426516449
0.436988742991796,2148.45426516449
0.43084035763858,2148.46426516449
0.424645160554912,2148.47426516449
0.416758039311206,2148.48426516449
0.410105623958527,2148.49426516449
0.400685691122642,2148.50426516449
0.390984720285276,2148.51426516449
0.382801004481506,2148.52426516449
0.374745557855657,2148.53426516449
0.367670346071145,2148.54426516449
0.361073723257767,2148.55426516449
0.356478836438751,2148.56426516449
0.349289759251221,2148.57426516449
0.342597865321827,2148.58426516449
0.338521439241185,2148.59426516449
0.33489239364989,2148.60426516449
0.332234891913245,2148.61426516449
0.329021647116166,2148.62426516449
0.326293036715727,2148.63426516449
0.321387945992799,2148.64426516449
0.316129905747716,2148.65426516449
0.311613663045258,2148.66426516449
0.305984394002409,2148.67426516449
0.301052519834359,2148.68426516449
0.294670362349966,2148.69426516449
0.290311047068909,2148.70426516449
0.283278754142535,2148.71426516449
0.276676443584754,2148.72426516449
0.271696832848084,2148.73426516449
0.266381104913257,2148.74426516449
0.261312344947564,2148.75426516449
0.255521887541723,2148.76426516449
0.249204448360701,2148.77426516449
0.242489616801787,2148.78426516449
0.237012806437001,2148.79426516449
0.230061157965513,2148.80426516449
0.223791118135358,2148.81426516449
0.218531092054902,2148.82426516449
0.213046289415576,2148.83426516449
0.206731159248869,2148.84426516449
0.198910935892764,2148.85426516449
0.193119961868285,2148.86426516449
0.186411553525363,2148.87426516449
0.181429906429297,2148.88426516449
0.178316884654606,2148.89426516449
0.174410128578036,2148.90426516449
0.17033085308648,2148.91426516449
0.165190484815958,2148.92426516449
0.16129486757937,2148.93426516449
0.155649148280226,2148.94426516449
0.150322394176959,2148.95426516449
0.14678591725141,2148.96426516449
0.142105176457064,2148.97426516449
0.137503715207422,2148.98426516449
0.132092436823791,2148.99426516449
0.127600813206256,2149.00426516449
0.121648611556106,2149.01426516449
0.116152044295449,2149.02426516449
0.112991245341337,2149.03426516449
0.109471127056624,2149.04426516449
0.106324455278697,2149.05426516449
0.101741312488808,2149.06426516449
0.0975297980685696,2149.07426516449
0.0910732618062518,2149.08426516449
0.0840273524260962,2149.09426516449
0.0783088407393748,2149.10426516449
0.0725570248907391,2149.11426516449
0.0688779988851901,2149.12426516449
0.0684698451860727,2149.13426516449
0.0755784484806274,2149.14426516449
0.0895315464065427,2149.15426516449
0.115214447095047,2149.16426516449
0.154880750391436,2149.17426516449
0.206297950870979,2149.18426516449
0.266243009551658,2149.19426516449
0.330581763449135,2149.20426516449
0.396524495429654,2149.21426516449
0.456817447197404,2149.22426516449
0.509176234636841,2149.23426516449
0.552259985927039,2149.24426516449
0.583805476560902,2149.25426516449
0.603183806261543,2149.26426516449
0.611892218390053,2149.27426516449
0.613615482476956,2149.28426516449
0.606840447352287,2149.29426516449
0.596564744131925,2149.30426516449
0.585116091431179,2149.31426516449
0.571539995878655,2149.32426516449
0.55753987343375,2149.33426516449
0.543392572982354,2149.34426516449
0.532378009207208,2149.35426516449
0.520922040109874,2149.36426516449
0.510367481637258,2149.37426516449
0.501797584151543,2149.38426516449
0.492731405415844,2149.39426516449
0.483286576045791,2149.40426516449
0.472536064444367,2149.41426516449
0.462335090587332,2149.42426516449
0.449382728334776,2149.43426516449
0.436279266296685,2149.44426516449
0.425189671142125,2149.45426516449
0.416346763559386,2149.46426516449
0.409885584475626,2149.47426516449
0.40488898191125,2149.48426516449
0.405220458128497,2149.49426516449
0.407552609435834,2149.50426516449
0.413843488532773,2149.51426516449
0.424994865797279,2149.52426516449
0.437685476339948,2149.53426516449
0.452476602230909,2149.54426516449
0.466756882300241,2149.55426516449
0.481955324198819,2149.56426516449
0.492941376157185,2149.57426516449
0.500494311383325,2149.58426516449
0.504794384286299,2149.59426516449
0.504900895684889,2149.60426516449
0.503641905297065,2149.61426516449
0.500843861562503,2149.62426516449
0.498866347763051,2149.63426516449
0.493999443520947,2149.64426516449
0.487500291779409,2149.65426516449
0.481158039160095,2149.66426516449
0.472797629969605,2149.67426516449
0.463821552045979,2149.68426516449
0.45422255904694,2149.69426516449
0.446613362552065,2149.70426516449
0.436603114273098,2149.71426516449
0.42738131952009,2149.72426516449
0.419932431724636,2149.73426516449
0.411623858852309,2149.74426516449
0.402654429740081,2149.75426516449
0.392445287160987,2149.76426516449
0.383330834621852,2149.77426516449
0.375716402159888,2149.78426516449
0.371169518773252,2149.79426516449
0.366065642556449,2149.80426516449
0.360825189761363,2149.81426516449
0.356623602319658,2149.82426516449
0.351188375379252,2149.83426516449
0.344729411798148,2149.84426516449
0.338099698996734,2149.85426516449
0.33271462307219,2149.86426516449
0.324936850786353,2149.87426516449
0.317705754176019,2149.88426516449
0.311471716876455,2149.89426516449
0.304237284497742,2149.90426516449
0.29729586989405,2149.91426516449
0.289540496984443,2149.92426516449
0.284098616185732,2149.93426516449
0.277626563880527,2149.94426516449
0.271950583575458,2149.95426516449
0.267503227059942,2149.96426516449
0.261900198388235,2149.97426516449
0.25595394722774,2149.98426516449
0.249264185556276,2149.99426516449
0.243533836556173,2150.00426516449
0.235507306991333,2150.01426516449
0.2277629135518,2150.02426516449
0.220017734986923,2150.03426516449
0.212025270431436,2150.04426516449
0.204804573607192,2150.05426516449
0.197891305844642,2150.06426516449
0.192757196245896,2150.07426516449
0.186725485883961,2150.08426516449
0.181680269468533,2150.09426516449
0.178366428053171,2150.10426516449
0.174377161180228,2150.11426516449
0.170361705597608,2150.12426516449
0.165345451217482,2150.13426516449
0.160975437888568,2150.14426516449
0.154601585105044,2150.15426516449
0.148372794606856,2150.16426516449
0.143084466368498,2150.17426516449
0.137281932564616,2150.18426516449
0.131133668055557,2150.19426516449
0.124579659295358,2150.20426516449
0.119996893888944,2150.21426516449
0.113975318537542,2150.22426516449
0.107998855110276,2150.23426516449
0.103338832873145,2150.24426516449
0.0979755432734105,2150.25426516449
0.0931538872182223,2150.26426516449
0.087166016829165,2150.27426516449
0.0832765259596886,2150.28426516449
0.0779343176822136,2150.29426516449
0.0736059141834556,2150.30426516449
0.0729684013811252,2150.31426516449
0.0764844337803973,2150.32426516449
0.0866677073155947,2150.33426516449
0.106042805280865,2150.34426516449
0.138608451195829,2150.35426516449
0.180987631018876,2150.36426516449
0.233257749535586,2150.37426516449
0.293731108614248,2150.38426516449
0.356107584885605,2150.39426516449
0.416930948954447,2150.40426516449
0.470673170495514,2150.41426516449
0.51759662016421,2150.42426516449
0.551457063045044,2150.43426516449
0.574239867717559,2150.44426516449
0.587755057079726,2150.45426516449
0.590840405156845,2150.46426516449
0.58604047697186,2150.47426516449
0.574401264341892,2150.48426516449
0.559579970012642,2150.49426516449
0.539321604358353,2150.50426516449
0.517550968135745,2150.51426516449
0.498996323492862,2150.52426516449
0.482959072372917,2150.53426516449
0.469855033610281,2150.54426516449
0.457820584375221,2150.55426516449
0.447974005821645,2150.56426516449
0.435973862759007,2150.57426516449
0.423329404379786,2150.58426516449
0.410968315571784,2150.59426516449
0.397215693065122,2150.60426516449
0.383031749100359,2150.61426516449
0.368624622927289,2150.62426516449
0.3570517554363,2150.63426516449
0.345365125266951,2150.64426516449
0.336285997434653,2150.65426516449
0.331859756532092,2150.66426516449
0.329718019586908,2150.67426516449
0.333330149517631,2150.68426516449
0.340893921772119,2150.69426516449
0.355406012017338,2150.70426516449
0.369790765986949,2150.71426516449
0.386647954370891,2150.72426516449
0.405164961306916,2150.73426516449
0.421436835352518,2150.74426516449
0.435312398830455,2150.75426516449
0.444493366118551,2150.76426516449
0.449407252462133,2150.77426516449
0.449263304090309,2150.78426516449
0.447092491513653,2150.79426516449
0.441523270016371,2150.80426516449
0.434641409074021,2150.81426516449
0.427865624564728,2150.82426516449
0.420394237403468,2150.83426516449
0.412960525521013,2150.84426516449
0.404251428016881,2150.85426516449
0.397431834803985,2150.86426516449
0.387941976700474,2150.87426516449
0.378578964783631,2150.88426516449
0.370939095148964,2150.89426516449
0.3624839889146,2150.90426516449
0.354567207195376,2150.91426516449
0.345814840173163,2150.92426516449
0.337980160494287,2150.93426516449
0.326181616322058,2150.94426516449
0.314290437765278,2150.95426516449
0.306026744449998,2150.96426516449
0.299756214923441,2150.97426516449
0.295306269370029,2150.98426516449
0.29103505882393,2150.99426516449
0.288810518498496,2151.00426516449
0.283965734015463,2151.01426516449
0.278610222597294,2151.02426516449
0.274350236444428,2151.03426516449
0.268508063428434,2151.04426516449
0.263160777771224,2151.05426516449
0.257344869062266,2151.06426516449
0.252422334787371,2151.07426516449
0.245828373305947,2151.08426516449
0.237458645196085,2151.09426516449
0.230014354727272,2151.10426516449
0.222130065376058,2151.11426516449
0.21576191898539,2151.12426516449
0.210023488864189,2151.13426516449
0.206280641043125,2151.14426516449
0.201258779045634,2151.15426516449
0.195689130204089,2151.16426516449
0.19036182762474,2151.17426516449
0.184118335952052,2151.18426516449
0.178058569961529,2151.19426516449
0.171345774064573,2151.20426516449
0.165911072812175,2151.21426516449
0.158474648023096,2151.22426516449
0.151239193058404,2151.23426516449
0.145109291674091,2151.24426516449
0.138043498364627,2151.25426516449
0.130944695606933,2151.26426516449
0.123968997537686,2151.27426516449
0.120438111815366,2151.28426516449
0.114643935138187,2151.29426516449
0.109915781380225,2151.30426516449
0.106251068819874,2151.31426516449
0.101931268598894,2151.32426516449
0.0975446070302199,2151.33426516449
0.0922412187114319,2151.34426516449
0.0888848286706734,2151.35426516449
0.0831365128788549,2151.36426516449
0.077085456273095,2151.37426516449
0.072073386160355,2151.38426516449
0.0661577272103682,2151.39426516449
0.0598412597299914,2151.40426516449
0.0522731956231052,2151.41426516449
0.0462481915898386,2151.42426516449
0.0392320287774565,2151.43426516449
0.0329630503385232,2151.44426516449
0.0283035247107029,2151.45426516449
0.0225843224484255,2151.46426516449
0.0174177723584884,2151.47426516449
0.0119143743712485,2151.48426516449
0.00948637651699044,2151.49426516449
0.00828114599172876,2151.50426516449
0.013208943645254,2151.51426516449
0.0284860023035054,2151.52426516449
0.0546595284325949,2151.53426516449
0.0935856889543954,2151.54426516449
0.143937963352373,2151.55426516449
0.205470818689607,2151.56426516449
0.269015332725323,2151.57426516449
0.333372219691853,2151.58426516449
0.394204384233405,2151.59426516449
0.446369165816701,2151.60426516449
0.488700601938162,2151.61426516449
0.518759209422196,2151.62426516449
0.539194507192461,2151.63426516449
0.547199695626047,2151.64426516449
0.546916118639792,2151.65426516449
0.54114880401877,2151.66426516449
0.529972308245971,2151.67426516449
0.515097273639039,2151.68426516449
0.496443945344352,2151.69426516449
0.478968473528302,2151.70426516449
0.46145664085803,2151.71426516449
0.447547630588767,2151.72426516449
0.438390878666206,2151.73426516449
0.430174030423037,2151.74426516449
0.42252779285587,2151.75426516449
0.413135616260198,2151.76426516449
0.403221779744781,2151.77426516449
0.392063654450188,2151.78426516449
0.380998228896445,2151.79426516449
0.367808712928157,2151.80426516449
0.354675822939263,2151.81426516449
0.34340927017936,2151.82426516449
0.332811334082954,2151.83426516449
0.323382963531927,2151.84426516449
0.315289056153101,2151.85426516449
0.312121716717991,2151.86426516449
0.311096929974589,2151.87426516449
0.314720183386643,2151.88426516449
0.323462088634019,2151.89426516449
0.33434047215963,2151.90426516449
0.34695028797758,2151.91426516449
0.359297849915354,2151.92426516449
0.372846327123176,2151.93426516449
0.38343794901861,2151.94426516449
0.3916341936267,2151.95426516449
0.398857351479657,2151.96426516449
0.40217003211473,2151.97426516449
0.402404156542182,2151.98426516449
0.398612354249166,2151.99426516449
0.393207584900582,2152.00426516449
0.383718166361651,2152.01426516449
0.374572830186661,2152.02426516449
0.367958772237826,2152.03426516449
0.361080888053672,2152.04426516449
0.353897068640625,2152.05426516449
0.345082998025389,2152.06426516449
0.337029022589957,2152.07426516449
0.326459883053675,2152.08426516449
0.316273318818236,2152.09426516449
0.307362845532261,2152.10426516449
0.298534870825092,2152.11426516449
0.289931115493304,2152.12426516449
0.28038251454841,2152.13426516449
0.27284944095687,2152.14426516449
0.264193899491053,2152.15426516449
0.255337235184435,2152.16426516449
0.247839367374586,2152.17426516449
0.240576804278117,2152.18426516449
0.234728268249443,2152.19426516449
0.228782153496056,2152.20426516449
0.224566364473429,2152.21426516449
0.217514585517295,2152.22426516449
0.209908426751014,2152.23426516449
0.203305852122733,2152.24426516449
0.196218806850456,2152.25426516449
0.189647194141512,2152.26426516449
0.182717566186133,2152.27426516449
0.177314385041071,2152.28426516449
0.169009530234852,2152.29426516449
0.160768506872368,2152.30426516449
0.154456400836885,2152.31426516449
0.148086183775553,2152.32426516449
0.142561761089037,2152.33426516449
0.13645563568695,2152.34426516449
0.131676858459235,2152.35426516449
0.124757450841088,2152.36426516449
0.117626128764916,2152.37426516449
0.112185280784474,2152.38426516449
0.106122143701171,2152.39426516449
0.100374670430643,2152.40426516449
0.0936592595021753,2152.41426516449
0.0885004099977812,2152.42426516449
0.0804348326245233,2152.43426516449
0.0714642029502584,2152.44426516449
0.0636808316072507,2152.45426516449
0.0565545916814237,2152.46426516449
0.0511011786536185,2152.47426516449
0.046455948233143,2152.48426516449
0.0433649541576842,2152.49426516449
0.038402128806887,2152.50426516449
0.0335092646314974,2152.51426516449
0.0294463863840202,2152.52426516449
0.024268150941196,2152.53426516449
0.019053036803316,2152.54426516449
0.0129365751290574,2152.55426516449
0.00829069386545536,2152.56426516449
0.00189977494903693,2152.57426516449
-0.00445277444502158,2152.58426516449
-0.0084964447556711,2152.59426516449
-0.0142572872510701,2152.60426516449
-0.0202203288999843,2152.61426516449
-0.0272854025293612,2152.62426516449
-0.0317471178014939,2152.63426516449
-0.0381970877562314,2152.64426516449
-0.0444717659889541,2152.65426516449
-0.0488804203697268,2152.66426516449
-0.0544829482261281,2152.67426516449
-0.0592922205982804,2152.68426516449
-0.0638919655396426,2152.69426516449
-0.0628063271513871,2152.70426516449
-0.0569196655570874,2152.71426516449
-0.0414035092762885,2152.72426516449
-0.0125127097799306,2152.73426516449
0.0270477419334499,2152.74426516449
0.0766445284884846,2152.75426516449
0.131850314222689,2152.76426516449
0.191175518455873,2152.77426516449
0.249508290520052,2152.78426516449
0.305420729458841,2152.79426516449
0.352792860462912,2152.80426516449
0.390840159467192,2152.81426516449
0.42004065093774,2152.82426516449
0.43866241432736,2152.83426516449
0.447390048922179,2152.84426516449
0.446497014778982,2152.85426516449
0.441128138402761,2152.86426516449
0.427600948961429,2152.87426516449
0.411057536763747,2152.88426516449
0.394803692204042,2152.89426516449
0.377239007774233,2152.90426516449
0.361290233175232,2152.91426516449
0.345494149295714,2152.92426516449
0.332802530659395,2152.93426516449
0.319778217280602,2152.94426516449
0.307865441655657,2152.95426516449
0.297909419208021,2152.96426516449
0.287248650743783,2152.97426516449
0.275375334752001,2152.98426516449
0.262170481653162,2152.99426516449
0.25003459497043,2153.00426516449
0.236582323931652,2153.01426516449
0.224449533368119,2153.02426516449
0.215981423569227,2153.03426516449
0.210035958024942,2153.04426516449
0.208552757285436,2153.05426516449
0.211125434406488,2153.06426516449
0.219632641411557,2153.07426516449
0.230761114430714,2153.08426516449
0.24478169183344,2153.09426516449
0.261082854062623,2153.10426516449
0.276636463507389,2153.11426516449
0.291448101035813,2153.12426516449
0.302865739258723,2153.13426516449
0.313517033623233,2153.14426516449
0.319032897459412,2153.15426516449
0.321296349338017,2153.16426516449
0.321763599018893,2153.17426516449
0.318189550016108,2153.18426516449
0.312642841592381,2153.19426516449
0.305422935380695,2153.20426516449
0.299806530408831,2153.21426516449
0.291220806788961,2153.22426516449
0.282726128155825,2153.23426516449
0.275840196340886,2153.24426516449
0.267676099140462,2153.25426516449
0.259758465351498,2153.26426516449
0.250763385644472,2153.27426516449
0.244192159087963,2153.28426516449
0.235196567438441,2153.29426516449
0.226328583653293,2153.30426516449
0.219552967584426,2153.31426516449
0.212510682870005,2153.32426516449
0.206170990215559,2153.33426516449
0.199326638266517,2153.34426516449
0.193237331108056,2153.35426516449
0.185513996833936,2153.36426516449
0.178952659800449,2153.37426516449
0.175139198130514,2153.38426516449
0.171112257581559,2153.39426516449
0.167036458702228,2153.40426516449
0.161866086521572,2153.41426516449
0.157152057381432,2153.42426516449
0.150282378122344,2153.43426516449
0.143608277091312,2153.44426516449
0.138121608873887,2153.45426516449
0.132416256742085,2153.46426516449
0.127636493178843,2153.47426516449
0.122299940540484,2153.48426516449
0.118834750019393,2153.49426516449
0.112281680963891,2153.50426516449
0.105358418379549,2153.51426516449
0.0992827189249543,2153.52426516449
0.0924629450859547,2153.53426516449
0.0868445955558666,2153.54426516449
0.080818474545646,2153.55426516449
0.0770747480988813,2153.56426516449
0.0705472388004846,2153.57426516449
0.0640756740495424,2153.58426516449
0.0593992127016686,2153.59426516449
0.0542455217608368,2153.60426516449
0.0497840576579363,2153.61426516449
0.0434452903319936,2153.62426516449
0.0392569915625271,2153.63426516449
0.0327610796985955,2153.64426516449
0.0275373516048349,2153.65426516449
0.0240368801625442,2153.66426516449
0.0200675118870447,2153.67426516449
0.0166231184718037,2153.68426516449
0.01255937249171,2153.69426516449
0.0102144119518625,2153.70426516449
0.00495709868763114,2153.71426516449
-0.000480367605393197,2153.72426516449
-0.0048183137673956,2153.73426516449
-0.0100744186874892,2153.74426516449
-0.0152718155567222,2153.75426516449
-0.021458816960702,2153.76426516449
-0.0276065382415329,2153.77426516449
-0.0344850338173461,2153.78426516449
-0.0397907184457972,2153.79426516449
-0.0468061346355634,2153.80426516449
-0.0516654300643228,2153.81426516449
-0.0515205883450236,2153.82426516449
-0.0472343165484335,2153.83426516449
-0.0349695238863929,2153.84426516449
-0.0130696992291317,2153.85426516449
0.0218304971723545,2153.86426516449
0.0659707133952612,2153.87426516449
0.119619195971347,2153.88426516449
0.18110868627564,2153.89426516449
0.244718462190514,2153.90426516449
0.306422834409672,2153.91426516449
0.362541970108328,2153.92426516449
0.410624917145187,2153.93426516449
0.445969548071916,2153.94426516449
0.469153138743832,2153.95426516449
0.482032077241024,2153.96426516449
0.485239889612879,2153.97426516449
0.481074691867534,2153.98426516449
0.471430568010306,2153.99426516449
0.45941982772766,2154.00426516449
0.443846627329991,2154.01426516449
0.42786443529141,2154.02426516449
0.41338912279407,2154.03426516449
0.399774313693657,2154.04426516449
0.387223542384098,2154.05426516449
0.375201760404216,2154.06426516449
0.366186154775052,2154.07426516449
0.355914932678282,2154.08426516449
0.345830805500105,2154.09426516449
0.336790308807618,2154.10426516449
0.326972044998958,2154.11426516449
0.316709842018256,2154.12426516449
0.305126893439779,2154.13426516449
0.295879317002882,2154.14426516449
0.284757523572082,2154.15426516449
0.275505396418919,2154.16426516449
0.270055980516259,2154.17426516449
0.267359821924545,2154.18426516449
0.269456185760038,2154.19426516449
0.274669734892295,2154.20426516449
0.284830327973456,2154.21426516449
0.295084494661963,2154.22426516449
0.306849330055556,2154.23426516449
0.321341426705477,2154.24426516449
0.334584301115188,2154.25426516449
0.346388599342996,2154.26426516449
0.355156243752381,2154.27426516449
0.363237214878993,2154.28426516449
0.366043884739261,2154.29426516449
0.365283535913185,2154.30426516449
0.363133948583573,2154.31426516449
0.358199031077862,2154.32426516449
0.351841197547516,2154.33426516449
0.343961553051535,2154.34426516449
0.336835457049438,2154.35426516449
0.327038517492267,2154.36426516449
0.316812126707339,2154.37426516449
0.306611969211382,2154.38426516449
0.295098310542476,2154.39426516449
0.284160460380931,2154.40426516449
0.273549681542441,2154.41426516449
0.266128327531894,2154.42426516449
0.257449854586701,2154.43426516449
0.249839127073521,2154.44426516449
0.244540983655868,2154.45426516449
0.238816849442425,2154.46426516449
0.233009699553321,2154.47426516449
0.226519398453876,2154.48426516449
0.222270591201027,2154.49426516449
0.215783060373696,2154.50426516449
0.209119632631485,2154.51426516449
0.204272917445952,2154.52426516449
0.198271266345556,2154.53426516449
0.192535067775189,2154.54426516449
0.186472485461104,2154.55426516449
0.182194145819101,2154.56426516449
0.175123459053082,2154.57426516449
0.167712528553624,2154.58426516449
0.162075489180112,2154.59426516449
0.155171918267008,2154.60426516449
0.149056746412219,2154.61426516449
0.142156582174755,2154.62426516449
0.137242736305151,2154.63426516449
0.129443754595197,2154.64426516449
0.122073767827563,2154.65426516449
0.116187398148956,2154.66426516449
0.109792866343345,2154.67426516449
0.103806674765144,2154.68426516449
0.0964172760650121,2154.69426516449
0.090347275890207,2154.70426516449
0.0830297656952688,2154.71426516449
0.0761724148827152,2154.72426516449
0.0707509558823302,2154.73426516449
0.0650397680423756,2154.74426516449
0.0584157811126342,2154.75426516449
0.0512764897508409,2154.76426516449
0.0448448760876309,2154.77426516449
0.0390295869181903,2154.78426516449
0.036256972015392,2154.79426516449
0.0312642837488098,2154.80426516449
0.0268309397123911,2154.81426516449
0.0239611571583031,2154.82426516449
0.0197825279978605,2154.83426516449
0.0154496716745136,2154.84426516449
0.0103295625738553,2154.85426516449
0.00633278244463038,2154.86426516449
0.000512401357873601,2154.87426516449
-0.00436144777761501,2154.88426516449
-0.00792980995013057,2154.89426516449
-0.0122759087847942,2154.90426516449
-0.0170945406765618,2154.91426516449
-0.0236127580522746,2154.92426516449
-0.0288545571915644,2154.93426516449
-0.0359760708056594,2154.94426516449
-0.0430041314493694,2154.95426516449
-0.0482438923798716,2154.96426516449
-0.0544558327886825,2154.97426516449
-0.0601149583504215,2154.98426516449
-0.0663339066386723,2154.99426516449
-0.0709234844628707,2155.00426516449
-0.0752577078083226,2155.01426516449
-0.0757775199932701,2155.02426516449
-0.0676267602725945,2155.03426516449
-0.050007038406567,2155.04426516449
-0.0202606416189092,2155.05426516449
0.0211395015522166,2155.06426516449
0.075302875479865,2155.07426516449
0.134531988865637,2155.08426516449
0.197159492287528,2155.09426516449
0.259402389671238,2155.10426516449
0.314859184682299,2155.11426516449
0.362073194162535,2155.12426516449
0.396990316026657,2155.13426516449
0.422747220819204,2155.14426516449
0.435084017021691,2155.15426516449
0.438319598308422,2155.16426516449
0.43485021562121,2155.17426516449
0.424336880458739,2155.18426516449
0.410069363348299,2155.19426516449
0.392205140331576,2155.20426516449
0.375423920516197,2155.21426516449
0.357135584518057,2155.22426516449
0.340478712553171,2155.23426516449
0.326749025040657,2155.24426516449
0.314087195837271,2155.25426516449
0.302764608561424,2155.26426516449
0.291709688310525,2155.27426516449
0.282239053267225,2155.28426516449
0.269857726693693,2155.29426516449
0.25678410432432,2155.30426516449
0.244913894836839,2155.31426516449
0.232088637326179,2155.32426516449
0.219757125100438,2155.33426516449
0.208491630147666,2155.34426516449
0.201289475776485,2155.35426516449
0.195995955919092,2155.36426516449
0.195557129971598,2155.37426516449
0.200946303582404,2155.38426516449
0.209846605129589,2155.39426516449
0.222511524240639,2155.40426516449
0.236190803930151,2155.41426516449
0.25327606500507,2155.42426516449
0.268502407670273,2155.43426516449
0.283590406221304,2155.44426516449
0.298540921972349,2155.45426516449
0.30912951999165,2155.46426516449
0.316489595433288,2155.47426516449
0.3177648100258,2155.48426516449
0.317741639832445,2155.49426516449
0.312200145326783,2155.50426516449
0.304303223275866,2155.51426516449
0.296872864502426,2155.52426516449
0.28852733129325,2155.53426516449
0.280654050928615,2155.54426516449
0.271508654073929,2155.55426516449
0.264863072676362,2155.56426516449
0.255996304390576,2155.57426516449
0.247205229321092,2155.58426516449
0.240415815280416,2155.59426516449
0.232368622557774,2155.60426516449
0.225412954156912,2155.61426516449
0.218035428815479,2155.62426516449
0.212765652169418,2155.63426516449
0.205346313568268,2155.64426516449
0.197836696263101,2155.65426516449
0.191313305147811,2155.66426516449
0.184606179395969,2155.67426516449
0.178748866825492,2155.68426516449
0.172862367490523,2155.69426516449
0.170228920465829,2155.70426516449
0.165938271816819,2155.71426516449
0.162398217354887,2155.72426516449
0.160131865304843,2155.73426516449
0.157113378907388,2155.74426516449
0.153513136123222,2155.75426516449
0.148374073121631,2155.76426516449
0.142879561794991,2155.77426516449
0.13637673094725,2155.78426516449
0.131988222835091,2155.79426516449
0.125144641196096,2155.80426516449
0.118895983342268,2155.81426516449
0.114259992029094,2155.82426516449
0.108406499671768,2155.83426516449
0.102771608262888,2155.84426516449
0.0969041320218285,2155.85426516449
0.0929352846186178,2155.86426516449
0.0874333774587233,2155.87426516449
0.0820518491111382,2155.88426516449
0.0777736259857694,2155.89426516449
0.0724637668766539,2155.90426516449
0.0673815308853178,2155.91426516449
0.0609484339205205,2155.92426516449
0.0559364684266158,2155.93426516449
0.0489230465638825,2155.94426516449
0.0420845199080278,2155.95426516449
0.0367766803050307,2155.96426516449
0.0321265698603067,2155.97426516449
0.0283117189722655,2155.98426516449
0.0239642361806672,2155.99426516449
0.0214672633456552,2156.00426516449
0.017516042001491,2156.01426516449
0.0133538203570143,2156.02426516449
0.0103267544306663,2156.03426516449
0.00628548024432205,2156.04426516449
0.00231873132965621,2156.05426516449
-0.00273938755681316,2156.06426516449
-0.00668400143126203,2156.07426516449
-0.0138552127513864,2156.08426516449
-0.0211840960984054,2156.09426516449
-0.0270597255673297,2156.10426516449
-0.0333706343564569,2156.11426516449
-0.0394346935567872,2156.12426516449
-0.0456089987727546,2156.13426516449
-0.0469022584448161,2156.14426516449
-0.0475441430234042,2156.15426516449
-0.041651555561458,2156.16426516449
-0.0244429589418729,2156.17426516449
0.00307168331809213,2156.18426516449
0.0435107959946965,2156.19426516449
0.0933897559681588,2156.20426516449
0.153296506278664,2156.21426516449
0.214341155426134,2156.22426516449
0.274530691970909,2156.23426516449
0.330449255124605,2156.24426516449
0.376844781531005,2156.25426516449
0.412520234258497,2156.26426516449
0.435213376051301,2156.27426516449
0.448203300538025,2156.28426516449
0.449471400382145,2156.29426516449
0.442579632715659,2156.30426516449
0.431335870900428,2156.31426516449
0.415907372290746,2156.32426516449
0.399326355591355,2156.33426516449
0.382443670576729,2156.34426516449
0.368199697508962,2156.35426516449
0.352699826834663,2156.36426516449
0.338189700495252,2156.37426516449
0.326551574466359,2156.38426516449
0.315068095627264,2156.39426516449
0.305341099432773,2156.40426516449
0.295345490739973,2156.41426516449
0.287043127258469,2156.42426516449
0.275565028983938,2156.43426516449
0.262868338178075,2156.44426516449
0.251948393358847,2156.45426516449
0.240243309013407,2156.46426516449
0.229908658167163,2156.47426516449
0.220955015978344,2156.48426516449
0.216496349621577,2156.49426516449
0.212853390054986,2156.50426516449
0.212813223251557,2156.51426516449
0.218124519278923,2156.52426516449
0.22577803802007,2156.53426516449
0.236493423278298,2156.54426516449
0.248022641238792,2156.55426516449
0.261411333052497,2156.56426516449
0.271865766090346,2156.57426516449
0.280995828025126,2156.58426516449
0.289277565575679,2156.59426516449
0.293662444263113,2156.60426516449
0.296748432927925,2156.61426516449
0.296724006198724,2156.62426516449
0.296074922920639,2156.63426516449
0.290170220624247,2156.64426516449
0.282061748226948,2156.65426516449
0.274153206943537,2156.66426516449
0.265013648259936,2156.67426516449
0.255625198984756,2156.68426516449
0.245281856348876,2156.69426516449
0.23640953624099,2156.70426516449
0.225404830620668,2156.71426516449
0.214510912457145,2156.72426516449
0.20480511864566,2156.73426516449
0.195077203574616,2156.74426516449
0.185879853734359,2156.75426516449
0.177506543764085,2156.76426516449
0.170081432593836,2156.77426516449
0.163228212797107,2156.78426516449
0.158982772250505,2156.79426516449
0.152219628872322,2156.80426516449
0.145482443227203,2156.81426516449
0.139273079979479,2156.82426516449
0.131973010307163,2156.83426516449
0.125336068473003,2156.84426516449
0.118993343181483,2156.85426516449
0.114928487142025,2156.86426516449
0.109370783926393,2156.87426516449
0.1040307071401,2156.88426516449
0.0992989542062169,2156.89426516449
0.0933614504044104,2156.90426516449
0.0861231521677404,2156.91426516449
0.0781161817052669,2156.92426516449
0.0725439326195135,2156.93426516449
0.0657461330177967,2156.94426516449
0.0590996325364423,2156.95426516449
0.0534339403647474,2156.96426516449
0.0469189335029932,2156.97426516449
0.0402580742493263,2156.98426516449
0.0328834168802843,2156.99426516449
0.0268835362952901,2157.00426516449
0.0198890094097944,2157.01426516449
0.0133275772116224,2157.02426516449
0.00849269944615547,2157.03426516449
0.00341495658743493,2157.04426516449
-0.00205330612962715,2157.05426516449
-0.00874145742468221,2157.06426516449
-0.0150313254966495,2157.07426516449
-0.0238352560662956,2157.08426516449
-0.0320422818895184,2157.09426516449
-0.0378577019298015,2157.10426516449
-0.043447394585116,2157.11426516449
-0.0481275333579904,2157.12426516449
-0.0538463112150337,2157.13426516449
-0.0576943952112133,2157.14426516449
-0.0639144077407658,2157.15426516449
-0.0701766792551113,2157.16426516449
-0.0749723242333839,2157.17426516449
-0.0817276167988513,2157.18426516449
-0.0878461680934539,2157.19426516449
-0.0945832437540389,2157.20426516449
-0.0986263692791346,2157.21426516449
-0.104928032006777,2157.22426516449
-0.110917528369753,2157.23426516449
-0.115265324566679,2157.24426516449
-0.120536204246443,2157.25426516449
-0.125924951169438,2157.26426516449
-0.133422466731538,2157.27426516449
-0.139503588827471,2157.28426516449
-0.147384541789543,2157.29426516449
-0.153693959068759,2157.30426516449
-0.15505064782725,2157.31426516449
-0.150221838314994,2157.32426516449
-0.135838110091605,2157.33426516449
-0.111575102037159,2157.34426516449
-0.0743304890284943,2157.35426516449
-0.0280710282308975,2157.36426516449
0.0258866630943076,2157.37426516449
0.0845659554599965,2157.38426516449
0.141528529648745,2157.39426516449
0.194618840291737,2157.40426516449
0.23931731830328,2157.41426516449
0.275884306048515,2157.42426516449
0.29865349883174,2157.43426516449
0.310790587906045,2157.44426516449
0.314745314214974,2157.45426516449
0.309511464152904,2157.46426516449
0.299259784288855,2157.47426516449
0.283615419142373,2157.48426516449
0.267093139403794,2157.49426516449
0.246411279441501,2157.50426516449
0.225405926574563,2157.51426516449
0.208414303231762,2157.52426516449
0.19334623821293,2157.53426516449
0.182428713216381,2157.54426516449
0.17322907743409,2157.55426516449
0.167140274124866,2157.56426516449
0.158876856415351,2157.57426516449
0.149670840563755,2157.58426516449
0.140647787276227,2157.59426516449
0.129058661622186,2157.60426516449
0.116671905189012,2157.61426516449
0.103134656516823,2157.62426516449
0.0922981913459963,2157.63426516449
0.0813169926978176,2157.64426516449
0.072279486061795,2157.65426516449
0.0670665859392721,2157.66426516449
0.0656525661702895,2157.67426516449
0.0701050538838846,2157.68426516449
0.0780490440379945,2157.69426516449
0.0907836875065198,2157.70426516449
0.103620862100258,2157.71426516449
0.117047824003475,2157.72426516449
0.131180556485426,2157.73426516449
0.142793256225866,2157.74426516449
0.15120343324577,2157.75426516449
0.155294259244932,2157.76426516449
0.15615835018898,2157.77426516449
0.153249739929492,2157.78426516449
0.149736667262726,2157.79426516449
0.141638326119053,2157.80426516449
0.13218530983014,2157.81426516449
0.122829201992588,2157.82426516449
0.112551591324251,2157.83426516449
0.103820193760923,2157.84426516449
0.0955081359478157,2157.85426516449
0.0896975636503661,2157.86426516449
0.0826170844289345,2157.87426516449
0.0751503223508244,2157.88426516449
0.0683901031731405,2157.89426516449
0.0611881157121765,2157.90426516449
0.0537505106306501,2157.91426516449
0.0449885305638972,2157.92426516449
0.0370095079861427,2157.93426516449
0.0275114195045261,2157.94426516449
0.0188481577921058,2157.95426516449
0.0125435801209084,2157.96426516449
0.00559016998732831,2157.97426516449
-0.000747086136558406,2157.98426516449
-0.00685723969324003,2157.99426516449
-0.0103281701008903,2158.00426516449
-0.0143886714053615,2158.01426516449
-0.0181093515979357,2158.02426516449
-0.0212621683178547,2158.03426516449
-0.0255138956640169,2158.04426516449
-0.0303419844474086,2158.05426516449
-0.0362458686563798,2158.06426516449
-0.0405849345531935,2158.07426516449
-0.0484603753014873,2158.08426516449
-0.0577520505719764,2158.09426516449
-0.0656234316229962,2158.10426516449
-0.0723884885230865,2158.11426516449
-0.0768721283927508,2158.12426516449
-0.0812471736379611,2158.13426516449
-0.0824761399501102,2158.14426516449
-0.0851055445376922,2158.15426516449
-0.0880792326293905,2158.16426516449
-0.0903485375887358,2158.17426516449
-0.0942283783361346,2158.18426516449
-0.0986447656355884,2158.19426516449
-0.104501076945517,2158.20426516449
-0.108235749890193,2158.21426516449
-0.113854548682647,2158.22426516449
-0.119346618663764,2158.23426516449
-0.123405109800006,2158.24426516449
-0.129120763075093,2158.25426516449
-0.134676423172992,2158.26426516449
-0.140223398328071,2158.27426516449
-0.142081391168977,2158.28426516449
-0.143894363943803,2158.29426516449
-0.1443043670357,2158.30426516449
-0.143643138065516,2158.31426516449
-0.144788961197009,2158.32426516449
-0.14725035633861,2158.33426516449
-0.151991236822625,2158.34426516449
-0.156104732795675,2158.35426516449
-0.16278870641955,2158.36426516449
-0.16977261851354,2158.37426516449
-0.175708906241459,2158.38426516449
-0.182714508708289,2158.39426516449
-0.189701245998713,2158.40426516449
-0.197326258577952,2158.41426516449
-0.201856005273496,2158.42426516449
-0.205261647379599,2158.43426516449
-0.202159492514518,2158.44426516449
-0.18914499301623,2158.45426516449
-0.167497662275047,2158.46426516449
-0.136113701458766,2158.47426516449
-0.096112892461818,2158.48426516449
-0.0463148344597628,2158.49426516449
0.00630916094549454,2158.50426516449
0.0603886613120493,2158.51426516449
0.113596564852008,2158.52426516449
0.158886801397974,2158.53426516449
0.196052914631387,2158.54426516449
0.221926129282704,2158.55426516449
0.239432202759106,2158.56426516449
0.244419509966888,2158.57426516449
0.241595951142693,2158.58426516449
0.23484339693204,2158.59426516449
0.224054660507995,2158.60426516449
0.212556575468956,2158.61426516449
0.199294428911804,2158.62426516449
0.186660726261771,2158.63426516449
0.171793536420051,2158.64426516449
0.1572608395087,2158.65426516449
0.144104368463863,2158.66426516449
0.129942650598711,2158.67426516449
0.116479798792005,2158.68426516449
0.102062437865535,2158.69426516449
0.0890571889642424,2158.70426516449
0.0755238446226539,2158.71426516449
0.062464665089501,2158.72426516449
0.0515433213166458,2158.73426516449
0.0408994187630943,2158.74426516449
0.0339012804662297,2158.75426516449
0.0298767957877974,2158.76426516449
0.029170286710234,2158.77426516449
0.0308064472558374,2158.78426516449
0.0362514040900468,2158.79426516449
0.042370652000496,2158.80426516449
0.0512884637850991,2158.81426516449
0.0633770413188736,2158.82426516449
0.0759801990235723,2158.83426516449
0.0874036599285471,2158.84426516449
0.0968722691422795,2158.85426516449
0.106061476206982,2158.86426516449
0.112156917950891,2158.87426516449
0.116567232630724,2158.88426516449
0.12003001379327,2158.89426516449
0.120990158795575,2158.90426516449
0.120331671262799,2158.91426516449
0.116944320056169,2158.92426516449
0.112465248356534,2158.93426516449
0.104675531136258,2158.94426516449
0.0952406357130011,2158.95426516449
0.0866201675514877,2158.96426516449
0.0771102060657911,2158.97426516449
0.0678330217149749,2158.98426516449
0.0574328064461481,2158.99426516449
0.0485025747498642,2159.00426516449
0.037454442236059,2159.01426516449
0.0270977557063038,2159.02426516449
0.0203459542975252,2159.03426516449
0.0146517946277223,2159.04426516449
0.0107580446658604,2159.05426516449
0.00686288091485558,2159.06426516449
0.00499436503055784,2159.07426516449
-0.000160714782901998,2159.08426516449
-0.00569256802888564,2159.09426516449
-0.00997352217905428,2159.10426516449
-0.0148160597380652,2159.11426516449
-0.0191324256244381,2159.12426516449
-0.0250109168269356,2159.13426516449
-0.0298299985224934,2159.14426516449
-0.038365006559406,2159.15426516449
-0.0481489480188,2159.16426516449
-0.0562079697652849,2159.17426516449
-0.0630153720656616,2159.18426516449
-0.0666059500833527,2159.19426516449
-0.0692721836666462,2159.20426516449
-0.0698286547938571,2159.21426516449
-0.0733628250677206,2159.22426516449
-0.0772987901813213,2159.23426516449
-0.0816224847665071,2159.24426516449
-0.0878746612492077,2159.25426516449
-0.094828924225723,2159.26426516449
-0.104150778920239,2159.27426516449
-0.113244112426708,2159.28426516449
-0.123357674158937,2159.29426516449
-0.132553864436249,2159.30426516449
-0.139647545354041,2159.31426516449
-0.146261480534178,2159.32426516449
-0.151728505335147,2159.33426516449
-0.156280942646811,2159.34426516449
-0.157313608856915,2159.35426516449
-0.158852762572136,2159.36426516449
-0.160899830910885,2159.37426516449
-0.162343431641532,2159.38426516449
-0.16591284363334,2159.39426516449
-0.170479877842911,2159.40426516449
-0.176484346988198,2159.41426516449
-0.179814059447202,2159.42426516449
-0.186832671903891,2159.43426516449
-0.195054184923755,2159.44426516449
-0.202066856355294,2159.45426516449
-0.20887365042701,2159.46426516449
-0.214987062746048,2159.47426516449
-0.220898141290751,2159.48426516449
-0.223172069387948,2159.49426516449
-0.226602212922471,2159.50426516449
-0.228781961076532,2159.51426516449
-0.230629829371681,2159.52426516449
-0.234289401697627,2159.53426516449
-0.239124768444191,2159.54426516449
-0.245849510038919,2159.55426516449
-0.250828665657083,2159.56426516449
-0.25868115326238,2159.57426516449
-0.266752649884374,2159.58426516449
-0.273152238003608,2159.59426516449
-0.280546511930673,2159.60426516449
-0.286347858372327,2159.61426516449
-0.287599635087813,2159.62426516449
-0.277950283286927,2159.63426516449
-0.258701084197053,2159.64426516449
-0.227386514783422,2159.65426516449
-0.18392859239759,2159.66426516449
-0.133342959446391,2159.67426516449
-0.0783818500808693,2159.68426516449
-0.0238409910701082,2159.69426516449
0.028778357486503,2159.70426516449
0.0732189869947149,2159.71426516449
0.109269610187692,2159.72426516449
0.13763992844919,2159.73426516449
0.154954419965952,2159.74426516449
0.161374463773674,2159.75426516449
0.15811025473439,2159.76426516449
0.149431013886333,2159.77426516449
0.13847287188368,2159.78426516449
0.129166948598409,2159.79426516449
0.118414325834739,2159.80426516449
0.107506472983127,2159.81426516449
0.0982192850214718,2159.82426516449
0.0876932150363061,2159.83426516449
0.0777026629372339,2159.84426516449
0.0674026212429576,2159.85426516449
0.059004179421964,2159.86426516449
0.0492755280526031,2159.87426516449
0.0386066105103468,2159.88426516449
0.0286702474738624,2159.89426516449
0.0159425207554102,2159.90426516449
0.0023133028284392,2159.91426516449
-0.0115685634196076,2159.92426516449
-0.0227308624094939,2159.93426516449
-0.031733530404173,2159.94426516449
-0.037081145859742,2159.95426516449
-0.0376710042553842,2159.96426516449
-0.0366562193836834,2159.97426516449
-0.0335762473263148,2159.98426516449
-0.0294125707576786,2159.99426516449
-0.0216078891612398,2160.00426516449
-0.0145444438384232,2160.01426516449
-0.00659745132386183,2160.02426516449
0.00261827650921542,2160.03426516449
0.00916305165687854,2160.04426516449
0.014344479009073,2160.05426516449
0.0167532112871988,2160.06426516449
0.0196531260661795,2160.07426516449
0.0186550947537092,2160.08426516449
0.016987299579139,2160.09426516449
0.0165940116155304,2160.10426516449
0.0141947880781521,2160.11426516449
0.0106268000155082,2160.12426516449
0.0047447253409359,2160.13426516449
-0.0013011686290401,2160.14426516449
-0.010187292938462,2160.15426516449
-0.0196931197711368,2160.16426516449
-0.0289533569102728,2160.17426516449
-0.0402744291975265,2160.18426516449
-0.0529415015684563,2160.19426516449
-0.0652159002058846,2160.20426516449
-0.0738376837521865,2160.21426516449
-0.0825781992161087,2160.22426516449
-0.0900422847747235,2160.23426516449
-0.0945053613323242,2160.24426516449
-0.0984001126931711,2160.25426516449
-0.10147471006475,2160.26426516449
-0.105529247322236,2160.27426516449
-0.108938908040707,2160.28426516449
-0.115436303778238,2160.29426516449
-0.122547527981664,2160.30426516449
-0.128266716158145,2160.31426516449
-0.134602451808182,2160.32426516449
-0.140636794740186,2160.33426516449
-0.148522144172593,2160.34426516449
-0.155899373451444,2160.35426516449
-0.16570278767218,2160.36426516449
-0.174248207900091,2160.37426516449
-0.179016689217925,2160.38426516449
-0.183510004919414,2160.39426516449
-0.186708713768856,2160.40426516449
-0.190450070593099,2160.41426516449
-0.192499148322071,2160.42426516449
-0.198016280973746,2160.43426516449
-0.204187912130818,2160.44426516449
-0.209754047262971,2160.45426516449
-0.215753853946309,2160.46426516449
-0.221301765592893,2160.47426516449
-0.228375844046924,2160.48426516449
-0.234701325099198,2160.49426516449
-0.244832974167429,2160.50426516449
-0.25520246717271,2160.51426516449
-0.26246956244207,2160.52426516449
-0.268596054341441,2160.53426516449
-0.271872054099214,2160.54426516449
-0.275222865728454,2160.55426516449
-0.276220319247998,2160.56426516449
-0.280029546563039,2160.57426516449
-0.283544485424248,2160.58426516449
-0.286002622154599,2160.59426516449
-0.289812827170606,2160.60426516449
-0.293938960334774,2160.61426516449
-0.300301019891223,2160.62426516449
-0.306187805755235,2160.63426516449
-0.314767939990499,2160.64426516449
-0.323683438653178,2160.65426516449
-0.332274210912985,2160.66426516449
-0.340920907578203,2160.67426516449
-0.34689053352664,2160.68426516449
-0.350253350125931,2160.69426516449
-0.349326378549909,2160.70426516449
-0.350679109521551,2160.71426516449
-0.352826550792134,2160.72426516449
-0.3553868475987,2160.73426516449
-0.360396021882562,2160.74426516449
-0.366873329680458,2160.75426516449
-0.374162902229349,2160.76426516449
-0.381960271485355,2160.77426516449
-0.390389895851059,2160.78426516449
-0.395848000801356,2160.79426516449
-0.398728052359104,2160.80426516449
-0.392735536987928,2160.81426516449
-0.376020865032381,2160.82426516449
-0.349131760443299,2160.83426516449
-0.310872306558063,2160.84426516449
-0.265105046105169,2160.85426516449
-0.212889520144074,2160.86426516449
-0.162331209520439,2160.87426516449
-0.115607196426939,2160.88426516449
-0.0742576605941974,2160.89426516449
-0.0421286972328644,2160.90426516449
-0.0185338560379207,2160.91426516449
-0.00484215310394779,2160.92426516449
0.00209264530031927,2160.93426516449
-0.00120926416234707,2160.94426516449
-0.0094004028106864,2160.95426516449
-0.019251448852789,2160.96426516449
-0.0296538610261425,2160.97426516449
-0.0387886546151478,2160.98426516449
-0.0482870030389532,2160.99426516449
-0.0546896869648739,2161.00426516449
-0.0622989796092163,2161.01426516449
-0.0695267749919232,2161.02426516449
-0.0754278973028146,2161.03426516449
-0.0823823001831551,2161.04426516449
-0.0895125497333069,2161.05426516449
-0.0982709798491205,2161.06426516449
-0.105984308667751,2161.07426516449
-0.116793854489989,2161.08426516449
-0.129105644742016,2161.09426516449
-0.14099525955801,2161.10426516449
-0.15329235037535,2161.11426516449
-0.162178489483458,2161.12426516449
-0.16793443591695,2161.13426516449
-0.166953626249892,2161.14426516449
-0.163514885600783,2161.15426516449
-0.156634493845704,2161.16426516449
-0.145376778452128,2161.17426516449
-0.13349714496152,2161.18426516449
-0.120476741703048,2161.19426516449
-0.108363989895115,2161.20426516449
-0.0955640511744468,2161.21426516449
-0.0863539328503105,2161.22426516449
-0.0795871970658312,2161.23426516449
-0.0746894884528854,2161.24426516449
-0.074159870376881,2161.25426516449
-0.0772091566884598,2161.26426516449
-0.0829124681826226,2161.27426516449
-0.0859709190038535,2161.28426516449
-0.0891215231536266,2161.29426516449
-0.0912822897507586,2161.30426516449
-0.0926963422757066,2161.31426516449
-0.0959191717982663,2161.32426516449
-0.100723889496331,2161.33426516449
-0.107245016292242,2161.34426516449
-0.112133594791819,2161.35426516449
-0.119924722565945,2161.36426516449
-0.127908627885648,2161.37426516449
-0.135248632902097,2161.38426516449
-0.143829863191081,2161.39426516449
-0.153390586597192,2161.40426516449
-0.164158155680373,2161.41426516449
-0.171962443538223,2161.42426516449
-0.179654961000748,2161.43426516449
-0.184177945907139,2161.44426516449
-0.184941949632888,2161.45426516449
-0.185918125117585,2161.46426516449
-0.186648839511025,2161.47426516449
-0.189560304542298,2161.48426516449
-0.19171088859995,2161.49426516449
-0.197138906917483,2161.50426516449
-0.202581364482403,2161.51426516449
-0.207028910760708,2161.52426516449
-0.212322466472657,2161.53426516449
-0.21949039270887,2161.54426516449
-0.227440199669611,2161.55426516449
-0.233086684332497,2161.56426516449
-0.239614993867958,2161.57426516449
-0.244722726065152,2161.58426516449
-0.247302975991197,2161.59426516449
-0.249195429896447,2161.60426516449
-0.251304712952839,2161.61426516449
-0.254074653504735,2161.62426516449
-0.256656593538781,2161.63426516449
-0.262146746962211,2161.64426516449
-0.268221308287755,2161.65426516449
-0.273007445794803,2161.66426516449
-0.278686623823109,2161.67426516449
-0.283861961450684,2161.68426516449
-0.290265699153603,2161.69426516449
-0.295603398909275,2161.70426516449
-0.30464089607957,2161.71426516449
-0.313090034792451,2161.72426516449
-0.317844563241231,2161.73426516449
-0.321141813352647,2161.74426516449
-0.321540604354803,2161.75426516449
-0.321817823770298,2161.76426516449
-0.321854668238676,2161.77426516449
-0.323617099814419,2161.78426516449
-0.325037277261498,2161.79426516449
-0.329659610418359,2161.80426516449
-0.334499635044595,2161.81426516449
-0.338738240613105,2161.82426516449
-0.344242021358214,2161.83426516449
-0.350659759275519,2161.84426516449
-0.359071140872483,2161.85426516449
-0.36544925966703,2161.86426516449
-0.371917011001852,2161.87426516449
-0.376191869284731,2161.88426516449
-0.377532824940797,2161.89426516449
-0.379052510944565,2161.90426516449
-0.379446200112575,2161.91426516449
-0.379095372631896,2161.92426516449
-0.373154602553781,2161.93426516449
-0.362437648110291,2161.94426516449
-0.342732187579084,2161.95426516449
-0.310753235665826,2161.96426516449
-0.27033800057358,2161.97426516449
-0.223098132321943,2161.98426516449
-0.174032354530062,2161.99426516449
-0.123898381939778,2162.00426516449
-0.0805127087510032,2162.01426516449
-0.0430995104712361,2162.02426516449
-0.0106372771581947,2162.03426516449
0.0137323785988581,2162.04426516449
0.0302663242012949,2162.05426516449
0.038822439205674,2162.06426516449
0.0425701569126833,2162.07426516449
0.0390275603528936,2162.08426516449
0.0327108144944598,2162.09426516449
0.0263202666802099,2162.10426516449
0.018039830430956,2162.11426516449
0.00902507467120503,2162.12426516449
-0.000525729362640377,2162.13426516449
-0.008420268645157,2162.14426516449
-0.0175216684141134,2162.15426516449
-0.0251684168733203,2162.16426516449
-0.0311481824333333,2162.17426516449
-0.0368965597418563,2162.18426516449
-0.0416496982536581,2162.19426516449
-0.0466562635455708,2162.20426516449
-0.0515796343681105,2162.21426516449
-0.0587432125151638,2162.22426516449
-0.0667462181796444,2162.23426516449
-0.072772807284322,2162.24426516449
-0.0781248014561138,2162.25426516449
-0.0816877261035632,2162.26426516449
-0.0842369842726907,2162.27426516449
-0.0835108212690966,2162.28426516449
-0.0835894710084345,2162.29426516449
-0.0798595838617261,2162.30426516449
-0.0711428084326895,2162.31426516449
-0.0606828042562489,2162.32426516449
-0.0473214371245697,2162.33426516449
-0.0343991425002144,2162.34426516449
-0.0199702862732411,2162.35426516449
-0.00998394648151517,2162.36426516449
-0.00278462441124891,2162.37426516449
0.00347543445322407,2162.38426516449
0.00519081646073274,2162.39426516449
0.00494438297969757,2162.40426516449
0.00169920235687165,2162.41426516449
-0.000945362750645797,2162.42426516449
-0.00692779394634012,2162.43426516449
-0.0139550529460527,2162.44426516449
-0.0207043977066658,2162.45426516449
-0.0297527348526368,2162.46426516449
-0.0371904029762125,2162.47426516449
-0.0440200167809366,2162.48426516449
-0.0478734559365355,2162.49426516449
-0.0531167863378679,2162.50426516449
-0.058069503375233,2162.51426516449
-0.0619499391759682,2162.52426516449
-0.0668645239976059,2162.53426516449
-0.0719626860637554,2162.54426516449
-0.0782231053886826,2162.55426516449
-0.0828191400126388,2162.56426516449
-0.0887525219353711,2162.57426516449
-0.0941517344526764,2162.58426516449
-0.098954865029029,2162.59426516449
-0.1047096905608,2162.60426516449
-0.110621909955793,2162.61426516449
-0.116837457307003,2162.62426516449
-0.119456346392126,2162.63426516449
-0.122847464162943,2162.64426516449
-0.125877756437778,2162.65426516449
-0.127537717942982,2162.66426516449
-0.130553413714408,2162.67426516449
-0.13458225042992,2162.68426516449
-0.140151581469479,2162.69426516449
-0.14418048355065,2162.70426516449
-0.151533798909376,2162.71426516449
-0.159143330139861,2162.72426516449
-0.164855453605465,2162.73426516449
-0.1712029951644,2162.74426516449
-0.177793178623467,2162.75426516449
-0.185704002062276,2162.76426516449
-0.192994324814658,2162.77426516449
-0.199786217980816,2162.78426516449
-0.2043422921336,2162.79426516449
-0.209918947354219,2162.80426516449
-0.215598531789866,2162.81426516449
-0.219326708173173,2162.82426516449
-0.223609339289377,2162.83426516449
-0.227647034256321,2162.84426516449
-0.232806964506547,2162.85426516449
-0.23689620231862,2162.86426516449
-0.242858849970912,2162.87426516449
-0.249307029569821,2162.88426516449
-0.254353143403784,2162.89426516449
-0.260008187955089,2162.90426516449
-0.265069970356946,2162.91426516449
-0.271033782622965,2162.92426516449
-0.275385088371815,2162.93426516449
-0.281105711945797,2162.94426516449
-0.286118548190158,2162.95426516449
-0.288785896386583,2162.96426516449
-0.292298608735691,2162.97426516449
-0.295328706362161,2162.98426516449
-0.299244722979944,2162.99426516449
-0.301427723218476,2163.00426516449
-0.30616987706603,2163.01426516449
-0.311555711944489,2163.02426516449
-0.316048439950607,2163.03426516449
-0.322788179955521,2163.04426516449
-0.329312111976791,2163.05426516449
-0.337155057845609,2163.06426516449
-0.343219812881089,2163.07426516449
-0.350954249807382,2163.08426516449
-0.357971317205031,2163.09426516449
-0.362431171755474,2163.10426516449
-0.366241943600481,2163.11426516449
-0.368818094582271,2163.12426516449
-0.369818460582625,2163.13426516449
-0.364992210001986,2163.14426516449
-0.354274452901824,2163.15426516449
-0.333870570261298,2163.16426516449
-0.301290170739056,2163.17426516449
-0.259046888425713,2163.18426516449
-0.209716041945427,2163.19426516449
-0.158319390961024,2163.20426516449
