PPG,time
0.16548937941615,3124.7758831713
0.317718078062516,3124.7858831713
0.264254777919732,3124.7958831713
0.269306599824105,3124.8058831713
0.23742288890532,3124.8158831713
0.22617180367469,3124.8258831713
0.202146485435328,3124.8358831713
0.190346364415339,3124.8458831713
0.178573006885703,3124.8558831713
0.177028763441777,3124.8658831713
0.181177693624351,3124.8758831713
0.192051377038487,3124.8858831713
0.208107006970031,3124.8958831713
0.22719050432589,3124.9058831713
0.246594786034818,3124.9158831713
0.263764055705497,3124.9258831713
0.277763298293395,3124.9358831713
0.28675206338905,3124.9458831713
0.290267912766469,3124.9558831713
0.287742972341137,3124.9658831713
0.279818446896415,3124.9758831713
0.268041042171293,3124.9858831713
0.253344917003517,3124.9958831713
0.237247086385268,3125.0058831713
0.220407162912331,3125.0158831713
0.204023330751982,3125.0258831713
0.188594668297456,3125.0358831713
0.174145371289463,3125.0458831713
0.161032671477157,3125.0558831713
0.149449135584246,3125.0658831713
0.139204139591116,3125.0758831713
0.129979948790208,3125.0858831713
0.121566036445793,3125.0958831713
0.113765088822879,3125.1058831713
0.106711368329066,3125.1158831713
0.0998743249169576,3125.1258831713
0.0929518380389762,3125.1358831713
0.0864708288446576,3125.1458831713
0.0801937492398116,3125.1558831713
0.0737667819729373,3125.1658831713
0.0669937992921814,3125.1758831713
0.0606734449327902,3125.1858831713
0.0548414427677587,3125.1958831713
0.0490688222765236,3125.2058831713
0.0429461671460608,3125.2158831713
0.0362561762058418,3125.2258831713
0.0287534408997968,3125.2358831713
0.0201986697606921,3125.2458831713
0.0106507214095441,3125.2558831713
-0.000611411577755755,3125.2658831713
-0.0122992888960384,3125.2758831713
-0.0232895948276754,3125.2858831713
-0.0287040214366111,3125.2958831713
-0.022403079331236,3125.3058831713
0.00436638453482854,3125.3158831713
0.0574874003781517,3125.3258831713
0.133566456652073,3125.3358831713
0.224541634880194,3125.3458831713
0.315979891682078,3125.3558831713
0.396403863691085,3125.3658831713
0.458263962673025,3125.3758831713
0.499757375706466,3125.3858831713
0.522625216648241,3125.3958831713
0.530397649600595,3125.4058831713
0.527793104505218,3125.4158831713
0.517282893414209,3125.4258831713
0.501982998755532,3125.4358831713
0.484055518313494,3125.4458831713
0.464598189740992,3125.4558831713
0.446343738347003,3125.4658831713
0.429902716561933,3125.4758831713
0.415168832057055,3125.4858831713
0.402763244719172,3125.4958831713
0.393315918212595,3125.5058831713
0.38656253790742,3125.5158831713
0.381381081824899,3125.5258831713
0.377283360761935,3125.5358831713
0.373673829503703,3125.5458831713
0.369306436157575,3125.5558831713
0.362981808827124,3125.5658831713
0.353604865221711,3125.5758831713
0.3411876266986,3125.5858831713
0.325822935887078,3125.5958831713
0.309316437663744,3125.6058831713
0.293463201996017,3125.6158831713
0.280774375242255,3125.6258831713
0.271970423820749,3125.6358831713
0.268354504302441,3125.6458831713
0.269631843346892,3125.6558831713
0.274596467393711,3125.6658831713
0.282374450729372,3125.6758831713
0.290981225997477,3125.6858831713
0.299465665869084,3125.6958831713
0.307134247104083,3125.7058831713
0.312431632186449,3125.7158831713
0.314914346920963,3125.7258831713
0.314780862454179,3125.7358831713
0.311179903043709,3125.7458831713
0.30520277337418,3125.7558831713
0.297035269705552,3125.7658831713
0.287400148260813,3125.7758831713
0.276878527170349,3125.7858831713
0.26564910066504,3125.7958831713
0.254206991041825,3125.8058831713
0.242759623795855,3125.8158831713
0.230542744515114,3125.8258831713
0.218706662650374,3125.8358831713
0.207149580545916,3125.8458831713
0.196453510247239,3125.8558831713
0.186989673888138,3125.8658831713
0.178271123188177,3125.8758831713
0.170270955189739,3125.8858831713
0.162387438811405,3125.8958831713
0.155114430950365,3125.9058831713
0.147463266576354,3125.9158831713
0.139561860347302,3125.9258831713
0.13113806624688,3125.9358831713
0.122429934493273,3125.9458831713
0.113806345584209,3125.9558831713
0.105735388799976,3125.9658831713
0.0980597249979879,3125.9758831713
0.0909424281599787,3125.9858831713
0.0839180371516993,3125.9958831713
0.0765528029195029,3126.0058831713
0.0681561266296912,3126.0158831713
0.0586147291360206,3126.0258831713
0.0473374207714627,3126.0358831713
0.0357034560101831,3126.0458831713
0.0229356886124844,3126.0558831713
0.0106819455112281,3126.0658831713
0.00145266302856659,3126.0758831713
-0.000627324263936002,3126.0858831713
0.0114750160152766,3126.0958831713
0.0452189479630594,3126.1058831713
0.103553165451848,3126.1158831713
0.182427069911723,3126.1258831713
0.27216977941061,3126.1358831713
0.3589345077576,3126.1458831713
0.433766088180049,3126.1558831713
0.490742695276838,3126.1658831713
0.528568819352009,3126.1758831713
0.549126245074571,3126.1858831713
0.555709069265631,3126.1958831713
0.552567312017028,3126.2058831713
0.542159819677525,3126.2158831713
0.527508247753733,3126.2258831713
0.510489544546525,3126.2358831713
0.493092441337064,3126.2458831713
0.477215061887841,3126.2558831713
0.463629097148842,3126.2658831713
0.452675333204939,3126.2758831713
0.444823510674519,3126.2858831713
0.439554041533619,3126.2958831713
0.435515301431472,3126.3058831713
0.432789620039789,3126.3158831713
0.430430816529073,3126.3258831713
0.428300452885913,3126.3358831713
0.425537851218802,3126.3458831713
0.420858411493445,3126.3558831713
0.413490631177531,3126.3658831713
0.40277327136346,3126.3758831713
0.388760554090303,3126.3858831713
0.372497591651403,3126.3958831713
0.356945564329438,3126.4058831713
0.342549174537668,3126.4158831713
0.331878077741751,3126.4258831713
0.325799181033594,3126.4358831713
0.324039913832006,3126.4458831713
0.326030731466572,3126.4558831713
0.330611674038195,3126.4658831713
0.336870560589847,3126.4758831713
0.343374065171187,3126.4858831713
0.349080537317127,3126.4958831713
0.353706190361502,3126.5058831713
0.35675771534744,3126.5158831713
0.357314572737025,3126.5258831713
0.355826804374695,3126.5358831713
0.352043321245054,3126.5458831713
0.346587278006878,3126.5558831713
0.339637853587672,3126.5658831713
0.331843061335932,3126.5758831713
0.323114183304678,3126.5858831713
0.313152913248874,3126.5958831713
0.302168950808484,3126.6058831713
0.290961378808523,3126.6158831713
0.279643915149315,3126.6258831713
0.268488980879182,3126.6358831713
0.257837862144299,3126.6458831713
0.246866841184249,3126.6558831713
0.236270390691751,3126.6658831713
0.225281952738459,3126.6758831713
0.213994434320504,3126.6858831713
0.202807176258247,3126.6958831713
0.192089092864127,3126.7058831713
0.181489179651066,3126.7158831713
0.172204725376987,3126.7258831713
0.163124895835212,3126.7358831713
0.154870862693305,3126.7458831713
0.147448823253276,3126.7558831713
0.140305241721185,3126.7658831713
0.133279805089794,3126.7758831713
0.125616593483626,3126.7858831713
0.118002377647381,3126.7958831713
0.10989375611557,3126.8058831713
0.101542001148143,3126.8158831713
0.0926456943110607,3126.8258831713
0.0830473646738002,3126.8358831713
0.0728210498832958,3126.8458831713
0.061291044569388,3126.8558831713
0.0494266517151301,3126.8658831713
0.0393744828090996,3126.8758831713
0.0349805172445551,3126.8858831713
0.0423511800528654,3126.8958831713
0.0698580046313504,3126.9058831713
0.121084793389095,3126.9158831713
0.194935148720843,3126.9258831713
0.281904192981936,3126.9358831713
0.369798255157686,3126.9458831713
0.448335741296572,3126.9558831713
0.510535428412195,3126.9658831713
0.554140245030378,3126.9758831713
0.579789102938721,3126.9858831713
0.591084375156313,3126.9958831713
0.59075295782183,3127.0058831713
0.582307170295039,3127.0158831713
0.568508841046946,3127.0258831713
0.551313430775977,3127.0358831713
0.533325849251188,3127.0458831713
0.515334470411159,3127.0558831713
0.49887114854219,3127.0658831713
0.485427053544739,3127.0758831713
0.47448677721351,3127.0858831713
0.46603722134362,3127.0958831713
0.460208965778793,3127.1058831713
0.456078719824605,3127.1158831713
0.453171839385714,3127.1258831713
0.450845646252229,3127.1358831713
0.447290497523932,3127.1458831713
0.442596519055786,3127.1558831713
0.434146977159669,3127.1658831713
0.422508317878434,3127.1758831713
0.407923020434089,3127.1858831713
0.391378721941672,3127.1958831713
0.375167373024942,3127.2058831713
0.361694877189492,3127.2158831713
0.3514844885007,3127.2258831713
0.346390601694286,3127.2358831713
0.346050977315619,3127.2458831713
0.348960009590152,3127.2558831713
0.355051489208495,3127.2658831713
0.362259881046785,3127.2758831713
0.369252064949605,3127.2858831713
0.375030579097652,3127.2958831713
0.37905740146605,3127.3058831713
0.381080593567404,3127.3158831713
0.381179433023302,3127.3258831713
0.378885904892907,3127.3358831713
0.374282676309485,3127.3458831713
0.367684030463712,3127.3558831713
0.359005319650491,3127.3658831713
0.348980599040955,3127.3758831713
0.33792355059139,3127.3858831713
0.325615356020725,3127.3958831713
0.313253184065165,3127.4058831713
0.300623128880415,3127.4158831713
0.287898465173399,3127.4258831713
0.274588593972323,3127.4358831713
0.262101980161111,3127.4458831713
0.249701309923791,3127.4558831713
0.237173100518191,3127.4658831713
0.22482474520091,3127.4758831713
0.212980023571466,3127.4858831713
0.201326705017791,3127.4958831713
0.190568507865948,3127.5058831713
0.179875195128094,3127.5158831713
0.16926562567388,3127.5258831713
0.158678320388703,3127.5358831713
0.147298579993992,3127.5458831713
0.135990938857264,3127.5558831713
0.124610966549135,3127.5658831713
0.113219412588848,3127.5758831713
0.10240410350441,3127.5858831713
0.0921913023668386,3127.5958831713
0.0832036319122863,3127.6058831713
0.074129069828513,3127.6158831713
0.0653752435939216,3127.6258831713
0.0557435869740484,3127.6358831713
0.0449217012033499,3127.6458831713
0.0334783443666325,3127.6558831713
0.019608406275282,3127.6658831713
0.00467771684547348,3127.6758831713
-0.0102247895244302,3127.6858831713
-0.0237413644557974,3127.6958831713
-0.0326921775074128,3127.7058831713
-0.0302279479180456,3127.7158831713
-0.00779707351931371,3127.7258831713
0.0426862782510614,3127.7358831713
0.121209179684477,3127.7458831713
0.219344451244061,3127.7558831713
0.323098931702103,3127.7658831713
0.417331063383463,3127.7758831713
0.492416068786921,3127.7858831713
0.544598159189863,3127.7958831713
0.574634818312748,3127.8058831713
0.587743460361244,3127.8158831713
0.587788396046754,3127.8258831713
0.578269643262923,3127.8358831713
0.562749623054019,3127.8458831713
0.543450443200854,3127.8558831713
0.521519927429832,3127.8658831713
0.499323811179672,3127.8758831713
0.477471649202627,3127.8858831713
0.457345632402122,3127.8958831713
0.439310275433873,3127.9058831713
0.422905297254989,3127.9158831713
0.409152783208753,3127.9258831713
0.397363346155562,3127.9358831713
0.387124723596422,3127.9458831713
0.377942178365538,3127.9558831713
0.368342947004021,3127.9658831713
0.356210113153103,3127.9758831713
0.341226010404555,3127.9858831713
0.322740042126719,3127.9958831713
0.301227178677425,3128.0058831713
0.279621038332468,3128.0158831713
0.260472969724476,3128.0258831713
0.246820272624125,3128.0358831713
0.240226452832455,3128.0458831713
0.240583608015174,3128.0558831713
0.247655892079269,3128.0658831713
0.259824484216132,3128.0758831713
0.275205264494883,3128.0858831713
0.291817346821903,3128.0958831713
0.308099621326566,3128.1058831713
0.321051486245149,3128.1158831713
0.329689094351067,3128.1258831713
0.333344377146098,3128.1358831713
0.332104823473536,3128.1458831713
0.326157266331493,3128.1558831713
0.316162412599759,3128.1658831713
0.303018552519743,3128.1758831713
0.288464377068555,3128.1858831713
0.272224646414177,3128.1958831713
0.254626059482746,3128.2058831713
0.237062295821877,3128.2158831713
0.219400176045606,3128.2258831713
0.202867321679525,3128.2358831713
0.187732413871643,3128.2458831713
0.174238856090856,3128.2558831713
0.162146060316593,3128.2658831713
0.15129007643078,3128.2758831713
0.141061110291411,3128.2858831713
0.131596119624065,3128.2958831713
0.12286567950561,3128.3058831713
0.113527214777882,3128.3158831713
0.104247214508803,3128.3258831713
0.0952286255052599,3128.3358831713
0.0860840091010758,3128.3458831713
0.0778136397196965,3128.3558831713
0.0697167507373321,3128.3658831713
0.0619618370109868,3128.3758831713
0.0550883715399677,3128.3858831713
0.0480535651574922,3128.3958831713
0.0402851244418225,3128.4058831713
0.031390441551939,3128.4158831713
0.0217490697309953,3128.4258831713
0.00993722923645012,3128.4358831713
-0.00310442717683742,3128.4458831713
-0.0174285996403669,3128.4558831713
-0.0314091940975659,3128.4658831713
-0.0429258370873461,3128.4758831713
-0.0471512811261751,3128.4858831713
-0.0366058440309077,3128.4958831713
-0.002467386944285,3128.5058831713
0.0598557973522464,3128.5158831713
0.146526288986652,3128.5258831713
0.246114677028,3128.5358831713
0.343586891161539,3128.5458831713
0.42776964312819,3128.5558831713
0.491193622890359,3128.5658831713
0.532654323809003,3128.5758831713
0.554604472231595,3128.5858831713
0.560351945560159,3128.5958831713
0.554713727454399,3128.6058831713
0.540830334054396,3128.6158831713
0.52149375809699,3128.6258831713
0.499975434937478,3128.6358831713
0.477269702696182,3128.6458831713
0.454768212887027,3128.6558831713
0.433274504587665,3128.6658831713
0.413497968526257,3128.6758831713
0.39528327274538,3128.6858831713
0.378441228211318,3128.6958831713
0.363667078533391,3128.7058831713
0.350736158997459,3128.7158831713
0.338236033776384,3128.7258831713
0.32530739360339,3128.7358831713
0.310593270958277,3128.7458831713
0.293515209343229,3128.7558831713
0.274311735041921,3128.7658831713
0.254047283620495,3128.7758831713
0.234263258882654,3128.7858831713
0.217649447521977,3128.7958831713
0.206771388516786,3128.8058831713
0.202840638264246,3128.8158831713
0.206483157795648,3128.8258831713
0.217263140345724,3128.8358831713
0.233544656570337,3128.8458831713
0.253121575528024,3128.8558831713
0.272831039181017,3128.8658831713
0.290813055324843,3128.8758831713
0.305288446217769,3128.8858831713
0.314382871240001,3128.8958831713
0.317395964822207,3128.9058831713
0.315235955057413,3128.9158831713
0.307236068857885,3128.9258831713
0.2957527719295,3128.9358831713
0.281019441121916,3128.9458831713
0.264351005310384,3128.9558831713
0.246751664552617,3128.9658831713
0.228532851004962,3128.9758831713
0.210910367369657,3128.9858831713
0.195232117159103,3128.9958831713
0.181034961869046,3129.0058831713
0.168880648800818,3129.0158831713
0.158271142638927,3129.0258831713
0.148838457087312,3129.0358831713
0.140841923577182,3129.0458831713
0.133082053698093,3129.0558831713
0.125729189801521,3129.0658831713
0.118002041646072,3129.0758831713
0.110063793032203,3129.0858831713
0.102259707297676,3129.0958831713
0.09420025527929,3129.1058831713
0.0859535741120447,3129.1158831713
0.0777728999305725,3129.1258831713
0.0691199096505807,3129.1358831713
0.0605353784502625,3129.1458831713
0.0528856008693698,3129.1558831713
0.0453984489883264,3129.1658831713
0.0379902523059547,3129.1758831713
0.0299339663685487,3129.1858831713
0.0210377149373752,3129.1958831713
0.011171595813176,3129.2058831713
-0.00014241323016318,3129.2158831713
-0.0123047837654868,3129.2258831713
-0.0252119505622478,3129.2358831713
-0.0395762661040968,3129.2458831713
-0.0533720029655969,3129.2558831713
-0.0641759500315984,3129.2658831713
-0.0661838208961308,3129.2758831713
-0.0508034396123668,3129.2858831713
-0.00901116592289736,3129.2958831713
0.0631807979567992,3129.3058831713
0.158055455768542,3129.3158831713
0.262856328632573,3129.3258831713
0.362076945369453,3129.3358831713
0.444481902463599,3129.3458831713
0.504853714525956,3129.3558831713
0.542895094211932,3129.3658831713
0.56233941441634,3129.3758831713
0.567315739814108,3129.3858831713
0.562703584082638,3129.3958831713
0.5511728896502,3129.4058831713
0.535142408195344,3129.4158831713
0.51690473945009,3129.4258831713
0.49819113984211,3129.4358831713
0.480101177919366,3129.4458831713
0.463852806415727,3129.4558831713
0.449823540662042,3129.4658831713
0.43776555626826,3129.4758831713
0.428145907534243,3129.4858831713
0.420917248396371,3129.4958831713
0.415763030133732,3129.5058831713
0.412188424178513,3129.5158831713
0.409064160265993,3129.5258831713
0.405108558545538,3129.5358831713
0.399356691346039,3129.5458831713
0.38945106391273,3129.5558831713
0.375934707464745,3129.5658831713
0.359089438337037,3129.5758831713
0.340811326022122,3129.5858831713
0.323829581147967,3129.5958831713
0.309900771006072,3129.6058831713
0.301515112306859,3129.6158831713
0.297940257407522,3129.6258831713
0.299104427030374,3129.6358831713
0.303510668321244,3129.6458831713
0.309852169375644,3129.6558831713
0.316752027697826,3129.6658831713
0.32267164038939,3129.6758831713
0.326975099482129,3129.6858831713
0.329595595333477,3129.6958831713
0.330306419809859,3129.7058831713
0.328447595051483,3129.7158831713
0.324547502207163,3129.7258831713
0.318385738121873,3129.7358831713
0.310173913745034,3129.7458831713
0.300287134461085,3129.7558831713
0.289536961254843,3129.7658831713
0.278066836063026,3129.7758831713
0.266129907107375,3129.7858831713
0.253231880864146,3129.7958831713
0.240623916437612,3129.8058831713
0.228014506029295,3129.8158831713
0.215908809365054,3129.8258831713
0.204358757220824,3129.8358831713
0.193383791701665,3129.8458831713
0.182461311722006,3129.8558831713
0.171723941585054,3129.8658831713
0.160808724729884,3129.8758831713
0.150343754538733,3129.8858831713
0.140249947475943,3129.8958831713
0.130064749502908,3129.9058831713
0.120479693291346,3129.9158831713
0.111332160194814,3129.9258831713
0.102166916074522,3129.9358831713
0.0923510294414942,3129.9458831713
0.0827178862958591,3129.9558831713
0.0724996407011372,3129.9658831713
0.0619935234636358,3129.9758831713
0.0513870836450061,3129.9858831713
0.0411953199338718,3129.9958831713
0.0313678761455859,3130.0058831713
0.0213941056315681,3130.0158831713
0.011769879980599,3130.0258831713
0.00171967826200768,3130.0358831713
-0.00910748671033213,3130.0458831713
-0.0204510587647686,3130.0558831713
-0.0322204362447225,3130.0658831713
-0.0446114429167987,3130.0758831713
-0.057908728792531,3130.0858831713
-0.070710391410713,3130.0958831713
-0.0811315192889757,3130.1058831713
-0.0839984401583502,3130.1158831713
-0.0714722283507891,3130.1258831713
-0.0344446450269686,3130.1358831713
0.0317045591632691,3130.1458831713
0.12207128397408,3130.1558831713
0.22493621939359,3130.1658831713
0.325731942410581,3130.1758831713
0.411723750491511,3130.1858831713
0.477511146959304,3130.1958831713
0.520970240233485,3130.2058831713
0.544927502402305,3130.2158831713
0.554102476435328,3130.2258831713
0.551912871917189,3130.2358831713
0.542309151858453,3130.2458831713
0.528440717593642,3130.2558831713
0.511941207302096,3130.2658831713
0.494799644488852,3130.2758831713
0.47831242877978,3130.2858831713
0.463575465840651,3130.2958831713
0.451181877669102,3130.3058831713
0.440448200924702,3130.3158831713
0.432389079520768,3130.3258831713
0.426064515392803,3130.3358831713
0.421733128443363,3130.3458831713
0.418999445773142,3130.3558831713
0.416844937974932,3130.3658831713
0.414583696420176,3130.3758831713
0.410680370295058,3130.3858831713
0.404332196939307,3130.3958831713
0.393732677441225,3130.4058831713
0.379968813580572,3130.4158831713
0.363891938548534,3130.4258831713
0.347402019804533,3130.4358831713
0.331861856046245,3130.4458831713
0.319234074359989,3130.4558831713
0.310026422176552,3130.4658831713
0.304758098330436,3130.4758831713
0.303422662322923,3130.4858831713
0.304835590339154,3130.4958831713
0.307906568600311,3130.5058831713
0.311871487729937,3130.5158831713
0.316142027247687,3130.5258831713
0.319254266113893,3130.5358831713
0.321031244103952,3130.5458831713
0.32135293195143,3130.5558831713
0.32020385204281,3130.5658831713
0.317801797175433,3130.5758831713
0.31339570770284,3130.5858831713
0.307407648243842,3130.5958831713
0.300213681397786,3130.6058831713
0.291342654346466,3130.6158831713
0.281588412402723,3130.6258831713
0.270736769648377,3130.6358831713
0.258832961223672,3130.6458831713
0.246279781470724,3130.6558831713
0.233351262339646,3130.6658831713
0.220417207742737,3130.6758831713
0.207718048923889,3130.6858831713
0.195639389911006,3130.6958831713
0.183942979038109,3130.7058831713
0.172922852466984,3130.7158831713
0.162039107532743,3130.7258831713
0.151274198998253,3130.7358831713
0.140393435475061,3130.7458831713
0.1293345269349,3130.7558831713
0.118196543063384,3130.7658831713
0.107189859681474,3130.7758831713
0.0960577493221422,3130.7858831713
0.0850880098995611,3130.7958831713
0.0746468919451484,3130.8058831713
0.0641740797833405,3130.8158831713
0.0536983147439821,3130.8258831713
0.0428642400305761,3130.8358831713
0.031975991085779,3130.8458831713
0.0209509595194912,3130.8558831713
0.0101949940258928,3130.8658831713
-0.000622573874000307,3130.8758831713
-0.0117927618385486,3130.8858831713
-0.0224511317551481,3130.8958831713
-0.0330038482147243,3130.9058831713
-0.0425952732208185,3130.9158831713
-0.0529622712408863,3130.9258831713
-0.0634218116865837,3130.9358831713
-0.0735155586614722,3130.9458831713
-0.0847042118688376,3130.9558831713
-0.0965651855090486,3130.9658831713
-0.108984759366544,3130.9758831713
-0.120783395378935,3130.9858831713
-0.129207985429216,3130.9958831713
-0.128012089966258,3131.0058831713
-0.108446765353513,3131.0158831713
-0.0613554511773813,3131.0258831713
0.0153922706750022,3131.0358831713
0.114456177077483,3131.0458831713
0.223117000466973,3131.0558831713
0.325026862456507,3131.0658831713
0.410166298644649,3131.0758831713
0.472380160572251,3131.0858831713
0.512053791621517,3131.0958831713
0.53266964299904,3131.1058831713
0.53832312393481,3131.1158831713
0.53340831614064,3131.1258831713
0.521605299638201,3131.1358831713
0.505330197840129,3131.1458831713
0.486588536153152,3131.1558831713
0.466137661135589,3131.1658831713
0.446294067309963,3131.1758831713
0.427907706617935,3131.1858831713
0.411647138728009,3131.1958831713
0.398183133609213,3131.2058831713
0.387551009812993,3131.2158831713
0.37978293490663,3131.2258831713
0.374205480197841,3131.2358831713
0.369743345455894,3131.2458831713
0.365638808753106,3131.2558831713
0.360227395492841,3131.2658831713
0.352138122718472,3131.2758831713
0.340551933122852,3131.2858831713
0.325706385453598,3131.2958831713
0.307365605802317,3131.3058831713
0.28780039471739,3131.3158831713
0.269499995105145,3131.3258831713
0.254354356779906,3131.3358831713
0.243867615586306,3131.3458831713
0.238505694555464,3131.3558831713
0.238339957517661,3131.3658831713
0.242275718842558,3131.3758831713
0.248596138857139,3131.3858831713
0.256683193468597,3131.3958831713
0.26456821871683,3131.4058831713
0.271582423055031,3131.4158831713
0.276702955085846,3131.4258831713
0.279751277968606,3131.4358831713
0.279858194881136,3131.4458831713
0.277332410644793,3131.4558831713
0.271903817184264,3131.4658831713
0.263880487744802,3131.4758831713
0.253681013853612,3131.4858831713
0.242214761104587,3131.4958831713
0.229498474066231,3131.5058831713
0.216016653354981,3131.5158831713
0.202192074536145,3131.5258831713
0.187863202712291,3131.5358831713
0.173746343851684,3131.5458831713
0.159695208332687,3131.5558831713
0.14610304068437,3131.5658831713
0.1332910138799,3131.5758831713
0.121225593771004,3131.5858831713
0.109847060836984,3131.5958831713
0.0990967378985535,3131.6058831713
0.0885228874139986,3131.6158831713
0.0778573806167338,3131.6258831713
0.0668235756289071,3131.6358831713
0.0558662343076477,3131.6458831713
0.0451041295545769,3131.6558831713
0.034297678920329,3131.6658831713
0.0228209273505345,3131.6758831713
0.0115470849685071,3131.6858831713
6.71314419218463e-05,3131.6958831713
-0.0112003315559814,3131.7058831713
-0.0224078154593179,3131.7158831713
-0.0337542878078508,3131.7258831713
-0.0456975781410516,3131.7358831713
-0.0577015042942704,3131.7458831713
-0.0697479440935349,3131.7558831713
-0.0823351590113693,3131.7658831713
-0.0949451856256661,3131.7758831713
-0.107528025477937,3131.7858831713
-0.12001366834631,3131.7958831713
-0.132248545161182,3131.8058831713
-0.144338410623668,3131.8158831713
-0.156275040339953,3131.8258831713
-0.168573658154786,3131.8358831713
-0.181622906199021,3131.8458831713
-0.195953687456048,3131.8558831713
-0.210933933069416,3131.8658831713
-0.224827822187278,3131.8758831713
-0.236022839162352,3131.8858831713
-0.239176252343217,3131.8958831713
-0.226706922051622,3131.9058831713
-0.187436604946086,3131.9158831713
-0.114844644596482,3131.9258831713
-0.0120404146491824,3131.9358831713
0.107056134137109,3131.9458831713
0.224466355449223,3131.9558831713
0.32517974428428,3131.9658831713
0.400675230843355,3131.9758831713
0.44905592821173,3131.9858831713
0.47384375610249,3131.9958831713
0.480817277019068,3132.0058831713
0.475041715025768,3132.0158831713
0.460320607398062,3132.0258831713
0.440406261552359,3132.0358831713
0.417466524329872,3132.0458831713
0.392510350700132,3132.0558831713
0.366577999242797,3132.0658831713
0.341236792397572,3132.0758831713
0.317503205216379,3132.0858831713
0.295344300120425,3132.0958831713
0.275195915788428,3132.1058831713
0.257743289763863,3132.1158831713
0.242083209204631,3132.1258831713
0.227592578974632,3132.1358831713
0.213317352791724,3132.1458831713
0.197309838356168,3132.1558831713
0.178947555333509,3132.1658831713
0.158200021571233,3132.1758831713
0.135153063554987,3132.1858831713
0.112168691958179,3132.1958831713
0.0920632485329419,3132.2058831713
0.0768418119360461,3132.2158831713
0.0686016609589242,3132.2258831713
0.0685016062823348,3132.2358831713
0.0767278645414965,3132.2458831713
0.0921726058942134,3132.2558831713
0.112898362273642,3132.2658831713
0.136348755099086,3132.2758831713
0.159383972771194,3132.2858831713
0.179267403843038,3132.2958831713
0.193688854354233,3132.3058831713
0.20188600161262,3132.3158831713
0.203875712717155,3132.3258831713
0.199588085408061,3132.3358831713
0.18986886542021,3132.3458831713
0.175667011880905,3132.3558831713
0.158833210756833,3132.3658831713
0.140327734168959,3132.3758831713
0.121290252683305,3132.3858831713
0.102563809072043,3132.3958831713
0.0843839938668871,3132.4058831713
0.0682178300115422,3132.4158831713
0.0532394584160346,3132.4258831713
0.0405062095545832,3132.4358831713
0.0292420276625146,3132.4458831713
0.0191004126486358,3132.4558831713
0.0101445255977984,3132.4658831713
0.00180535213042537,3132.4758831713
-0.00600775776947384,3132.4858831713
-0.0135209989847049,3132.4958831713
-0.0207870375029518,3132.5058831713
-0.0278538629180233,3132.5158831713
-0.035274432191469,3132.5258831713
-0.0426391776241647,3132.5358831713
-0.0499584024902762,3132.5458831713
-0.0574866896989406,3132.5558831713
-0.0654626785779262,3132.5658831713
-0.0731127332097566,3132.5758831713
-0.080710959477422,3132.5858831713
-0.0882013282039595,3132.5958831713
-0.0957309113147233,3132.6058831713
-0.103761717793795,3132.6158831713
-0.112223295259372,3132.6258831713
-0.12217660326097,3132.6358831713
-0.13330321122231,3132.6458831713
-0.145509285927866,3132.6558831713
-0.158445209797567,3132.6658831713
-0.173093156102405,3132.6758831713
-0.188262359577921,3132.6858831713
-0.202008840214663,3132.6958831713
-0.21179448410608,3132.7058831713
-0.210893947288509,3132.7158831713
-0.190053278435639,3132.7258831713
-0.140502684965992,3132.7358831713
-0.0603471782704548,3132.7458831713
0.0431417593385287,3132.7558831713
0.154875710332943,3132.7658831713
0.259155069151848,3132.7758831713
0.34396325390756,3132.7858831713
0.404484871003919,3132.7958831713
0.441230229804368,3132.8058831713
0.458725203054416,3132.8158831713
0.461609592864238,3132.8258831713
0.45478585339253,3132.8358831713
0.441115515427494,3132.8458831713
0.422557069397895,3132.8558831713
0.40209976965764,3132.8658831713
0.380940877733622,3132.8758831713
0.36024441221464,3132.8858831713
0.340839857789814,3132.8958831713
0.323098511301554,3132.9058831713
0.3076975427778,3132.9158831713
0.293869649155368,3132.9258831713
0.282386778982228,3132.9358831713
0.272585628772106,3132.9458831713
0.263982111575778,3132.9558831713
0.255521243912486,3132.9658831713
0.245517760875703,3132.9758831713
0.232407126378596,3132.9858831713
0.216789493296706,3132.9958831713
0.198533228879777,3133.0058831713
0.179019302906178,3133.0158831713
0.161046186264152,3133.0258831713
0.146491119801073,3133.0358831713
0.137365225093082,3133.0458831713
0.134288307285115,3133.0558831713
0.136994063517288,3133.0658831713
0.144723339166116,3133.0758831713
0.155759130211865,3133.0858831713
0.168591967570781,3133.0958831713
0.181428062243457,3133.1058831713
0.192646144659898,3133.1158831713
0.201048530198292,3133.1258831713
0.205549226675855,3133.1358831713
0.206081729753714,3133.1458831713
0.202034898582582,3133.1558831713
0.194355534627525,3133.1658831713
0.183016518152794,3133.1758831713
0.169844562206884,3133.1858831713
0.154036787331548,3133.1958831713
0.137835752710019,3133.2058831713
0.122744035856585,3133.2158831713
0.108587765976124,3133.2258831713
0.0957099427248511,3133.2358831713
0.0836085987085591,3133.2458831713
0.0728413218136959,3133.2558831713
0.0623917475886723,3133.2658831713
0.0523332859781352,3133.2758831713
0.0424640881072639,3133.2858831713
0.0330736566184878,3133.2958831713
0.0245796282018531,3133.3058831713
0.016048620743131,3133.3158831713
0.00811727373263066,3133.3258831713
0.000265187938213974,3133.3358831713
-0.00780600851842999,3133.3458831713
-0.0161279502936287,3133.3558831713
-0.0246040999881756,3133.3658831713
-0.033856541808622,3133.3758831713
-0.0437964437275655,3133.3858831713
-0.0537046730842854,3133.3958831713
-0.0648001156344102,3133.4058831713
-0.0757310342412857,3133.4158831713
-0.0871844194083274,3133.4258831713
-0.098644085273822,3133.4358831713
-0.110683010203409,3133.4458831713
-0.122797884164777,3133.4558831713
-0.135355736790305,3133.4658831713
-0.148368895741999,3133.4758831713
-0.161219229990617,3133.4858831713
-0.17418287939192,3133.4958831713
-0.186944936493722,3133.5058831713
-0.199250686763011,3133.5158831713
-0.211006297341267,3133.5258831713
-0.221985737332777,3133.5358831713
-0.23260769307555,3133.5458831713
-0.243220798386436,3133.5558831713
-0.254040504272338,3133.5658831713
-0.264784572771336,3133.5758831713
-0.275958948357774,3133.5858831713
-0.287671734922222,3133.5958831713
-0.298610573952956,3133.6058831713
-0.30706076814208,3133.6158831713
-0.308710878838237,3133.6258831713
-0.294778460330551,3133.6358831713
-0.253676754059133,3133.6458831713
-0.178339076065374,3133.6558831713
-0.0718110329211479,3133.6658831713
0.0517406594900684,3133.6758831713
0.174483143057958,3133.6858831713
0.280364626932091,3133.6958831713
0.360635696083487,3133.7058831713
0.413757670811979,3133.7158831713
0.442966898549921,3133.7258831713
0.454386997917671,3133.7358831713
0.453559767345316,3133.7458831713
0.444349794737675,3133.7558831713
0.43029704930386,3133.7658831713
0.413208391812615,3133.7758831713
0.39419250207716,3133.7858831713
0.374417851941551,3133.7958831713
0.355421242239192,3133.8058831713
0.33801454642056,3133.8158831713
0.322798595333979,3133.8258831713
0.310017011029154,3133.8358831713
0.300123215353866,3133.8458831713
0.292873067484463,3133.8558831713
0.287285345740105,3133.8658831713
0.282943134497228,3133.8758831713
0.278684115790126,3133.8858831713
0.274132356132604,3133.8958831713
0.267709312458631,3133.9058831713
0.259193207066606,3133.9158831713
0.247594771909594,3133.9258831713
0.232704221469918,3133.9358831713
0.21614930648308,3133.9458831713
0.200002053488151,3133.9558831713
0.186091908222753,3133.9658831713
0.175827245812343,3133.9758831713
0.169815795403612,3133.9858831713
0.167792804362482,3133.9958831713
0.16942646240487,3134.0058831713
0.173539398977747,3134.0158831713
0.17905393231865,3134.0258831713
0.184865714701165,3134.0358831713
0.190246539919463,3134.0458831713
0.19417422268768,3134.0558831713
0.196299158928978,3134.0658831713
0.196736582694171,3134.0758831713
0.194785474216226,3134.0858831713
0.190612186458982,3134.0958831713
0.184689383206455,3134.1058831713
0.177017991669885,3134.1158831713
0.168345804989664,3134.1258831713
0.158444285218085,3134.1358831713
0.148025764408753,3134.1458831713
0.137609633013805,3134.1558831713
0.12684384703358,3134.1658831713
0.116188721964921,3134.1758831713
0.105408861990035,3134.1858831713
0.0946028364271288,3134.1958831713
0.0837699362264159,3134.2058831713
0.073028444162825,3134.2158831713
0.0623087400386827,3134.2258831713
0.0518273628701644,3134.2358831713
0.041712647500553,3134.2458831713
0.0316334451158407,3134.2558831713
0.021273327675425,3134.2658831713
0.01140398231821,3134.2758831713
0.000777978760339425,3134.2858831713
-0.00955528963686622,3134.2958831713
-0.0199280294602431,3134.3058831713
-0.031159341096818,3134.3158831713
-0.0418280672364767,3134.3258831713
-0.0533741430636261,3134.3358831713
-0.0649138940065651,3134.3458831713
-0.0765272165024399,3134.3558831713
-0.0879025158592679,3134.3658831713
-0.0990404865855652,3134.3758831713
-0.110250488431015,3134.3858831713
-0.121723584934049,3134.3958831713
-0.133726755067478,3134.4058831713
-0.145928514406675,3134.4158831713
-0.158738196994815,3134.4258831713
-0.170364957969002,3134.4358831713
-0.181706350097916,3134.4458831713
-0.192151797882216,3134.4558831713
-0.202385861573392,3134.4658831713
-0.212395690181071,3134.4758831713
-0.222388078411453,3134.4858831713
-0.231971388368353,3134.4958831713
-0.242076766404463,3134.5058831713
-0.253060827246453,3134.5158831713
-0.264285743626759,3134.5258831713
-0.276091002724468,3134.5358831713
-0.285721759192464,3134.5458831713
-0.28813934868694,3134.5558831713
-0.274420091972308,3134.5658831713
-0.233896456134387,3134.5758831713
-0.159900273810613,3134.5858831713
-0.0569128450050627,3134.5958831713
0.0616861687737549,3134.6058831713
0.179170011458717,3134.6158831713
0.280419091886251,3134.6258831713
0.357404710006076,3134.6358831713
0.408745228268666,3134.6458831713
0.437532297915167,3134.6558831713
0.449216583646023,3134.6658831713
0.448345279731187,3134.6758831713
0.43875966940686,3134.6858831713
0.42362387668057,3134.6958831713
0.40479969953552,3134.7058831713
0.384314221455599,3134.7158831713
0.363136287144423,3134.7258831713
0.343136119752747,3134.7358831713
0.324932677518445,3134.7458831713
0.308913240667112,3134.7558831713
0.295302397187805,3134.7658831713
0.28356918059532,3134.7758831713
0.274083667681712,3134.7858831713
0.266188640133342,3134.7958831713
0.259843193429923,3134.8058831713
0.253593847035251,3134.8158831713
0.247130629241706,3134.8258831713
0.238164660003135,3134.8358831713
0.226843613318252,3134.8458831713
0.214695031249179,3134.8558831713
0.199350104378595,3134.8658831713
0.180898568568141,3134.8758831713
0.161020080495685,3134.8858831713
0.14374861195812,3134.8958831713
0.13210841679454,3134.9058831713
0.128225306101104,3134.9158831713
0.132652696010153,3134.9258831713
0.141889821664953,3134.9358831713
0.15185500955837,3134.9458831713
0.160155979247095,3134.9558831713
0.166810229637631,3134.9658831713
0.172279566350514,3134.9758831713
0.177381466139064,3134.9858831713
0.182656706087564,3134.9958831713
0.186009342351366,3135.0058831713
0.18422607266993,3135.0158831713
0.177043936755485,3135.0258831713
0.165637588034786,3135.0358831713
0.152350705943786,3135.0458831713
0.138815695039229,3135.0558831713
0.128172985178743,3135.0658831713
0.117590002938107,3135.0758831713
0.105006308599016,3135.0858831713
0.0900664873903392,3135.0958831713
0.0736618023685227,3135.1058831713
0.0583656819793748,3135.1158831713
0.0449916398837268,3135.1258831713
0.0360137298696171,3135.1358831713
0.0279852452098315,3135.1458831713
0.0186056698084757,3135.1558831713
0.00641587068833126,3135.1658831713
-0.00692489228194153,3135.1758831713
-0.0208562226067342,3135.1858831713
-0.0328688907930762,3135.1958831713
-0.0421195714527927,3135.2058831713
-0.0502620916099202,3135.2158831713
-0.05959690466831,3135.2258831713
-0.0713216609597852,3135.2358831713
-0.0847504845881642,3135.2458831713
-0.0975453216775997,3135.2558831713
-0.109208255563377,3135.2658831713
-0.117714603186633,3135.2758831713
-0.125362282739026,3135.2858831713
-0.135311174859808,3135.2958831713
-0.148052082552988,3135.3058831713
-0.162546440343522,3135.3158831713
-0.177523419192374,3135.3258831713
-0.191106815581605,3135.3358831713
-0.200698445797527,3135.3458831713
-0.209263769283447,3135.3558831713
-0.219219594325066,3135.3658831713
-0.231568901236447,3135.3758831713
-0.245760992418662,3135.3858831713
-0.260772401520378,3135.3958831713
-0.275127771231485,3135.4058831713
-0.287030242616015,3135.4158831713
-0.298788110694296,3135.4258831713
-0.31223106977752,3135.4358831713
-0.325881803099669,3135.4458831713
-0.33469018215022,3135.4558831713
-0.329969567056907,3135.4658831713
-0.299308128887157,3135.4758831713
-0.231483548663907,3135.4858831713
-0.128242202857344,3135.4958831713
-0.00459506922844119,3135.5058831713
0.120998100564556,3135.5158831713
0.232284941713164,3135.5258831713
0.318847163243748,3135.5358831713
0.378596596353291,3135.5458831713
0.414969535622586,3135.5558831713
0.431325194003844,3135.5658831713
0.431195641036135,3135.5758831713
0.418691352979551,3135.5858831713
0.398260744577169,3135.5958831713
0.372991105231286,3135.6058831713
0.346960295577753,3135.6158831713
0.3228919139645,3135.6258831713
0.29917234018022,3135.6358831713
0.274803029946678,3135.6458831713
0.249658934751784,3135.6558831713
0.224407686993297,3135.6658831713
0.201487346581159,3135.6758831713
0.182487142579514,3135.6858831713
0.169336828534814,3135.6958831713
0.157941725977156,3135.7058831713
0.145109703652437,3135.7158831713
0.128573761189817,3135.7258831713
0.107865966791353,3135.7358831713
0.0839802165401424,3135.7458831713
0.0595583691890698,3135.7558831713
0.0386152969942559,3135.7658831713
0.0219653739060955,3135.7758831713
0.00917115473715203,3135.7858831713
0.00238839315241055,3135.7958831713
0.00294884474448227,3135.8058831713
0.0109984194193161,3135.8158831713
0.0277971740565015,3135.8258831713
0.052131925057779,3135.8358831713
0.0791726411789591,3135.8458831713
0.103801503568075,3135.8558831713
0.123142962520769,3135.8658831713
0.135552862933111,3135.8758831713
0.141767356905035,3135.8858831713
0.142646806608708,3135.8958831713
0.140676692214589,3135.9058831713
0.133655892386657,3135.9158831713
0.120523757004561,3135.9258831713
0.10224494035757,3135.9358831713
0.0807712699075883,3135.9458831713
0.0587678864768393,3135.9558831713
0.0385535877529519,3135.9658831713
0.0224230061698344,3135.9758831713
0.0082128619569926,3135.9858831713
-0.00594773272159218,3135.9958831713
-0.0213615371012735,3136.0058831713
-0.0364081823102845,3136.0158831713
-0.0499840653115763,3136.0258831713
-0.0603580920052206,3136.0358831713
-0.0667018491705443,3136.0458831713
-0.0715189009750355,3136.0558831713
-0.0772563351295469,3136.0658831713
-0.0852306001366701,3136.0758831713
-0.0942160456229013,3136.0858831713
-0.103315848145666,3136.0958831713
-0.110406447379539,3136.1058831713
-0.114693704878374,3136.1158831713
-0.118470377409071,3136.1258831713
-0.124261507989861,3136.1358831713
-0.132653261332141,3136.1458831713
-0.142826461492291,3136.1558831713
-0.154149552914345,3136.1658831713
-0.164899995169329,3136.1758831713
-0.173371410990817,3136.1858831713
-0.181789154245799,3136.1958831713
-0.191439652595884,3136.2058831713
-0.203598883467302,3136.2158831713
-0.217021643614688,3136.2258831713
-0.231271380210304,3136.2358831713
-0.244809008813668,3136.2458831713
-0.256270171526465,3136.2558831713
-0.268695097213117,3136.2658831713
-0.283641650929533,3136.2758831713
-0.300957776164067,3136.2858831713
-0.316535183673052,3136.2958831713
-0.323409219574443,3136.3058831713
-0.310810537213421,3136.3158831713
-0.266384408317696,3136.3258831713
-0.186274091414194,3136.3358831713
-0.0780025164378413,3136.3458831713
0.043551350794949,3136.3558831713
0.160469326689504,3136.3658831713
0.259739934143264,3136.3758831713
0.33441989336048,3136.3858831713
0.385661007040545,3136.3958831713
0.413585561666594,3136.4058831713
0.422590044562578,3136.4158831713
0.416571815955348,3136.4258831713
0.401261285885055,3136.4358831713
0.380548377159309,3136.4458831713
0.358331897288679,3136.4558831713
0.337209534940285,3136.4658831713
0.316380584905846,3136.4758831713
0.294003574533957,3136.4858831713
0.269985024467223,3136.4958831713
0.247303578314762,3136.5058831713
0.226912584677081,3136.5158831713
0.211110184028293,3136.5258831713
0.200783073683311,3136.5358831713
0.193237217141882,3136.5458831713
0.184505045006015,3136.5558831713
0.17283306182779,3136.5658831713
0.158068304074333,3136.5758831713
0.140308643045899,3136.5858831713
0.121314114799323,3136.5958831713
0.103913813474311,3136.6058831713
0.0874344554316979,3136.6158831713
0.0716789901903894,3136.6258831713
0.0585880845773921,3136.6358831713
0.0502443978999227,3136.6458831713
0.048658692212969,3136.6558831713
0.0544428081420901,3136.6658831713
0.0683016016966135,3136.6758831713
0.0853031423873985,3136.6858831713
0.101843444724009,3136.6958831713
0.114965306820187,3136.7058831713
0.124148568154727,3136.7158831713
0.129842216666393,3136.7258831713
0.13270997322676,3136.7358831713
0.13386482677688,3136.7458831713
0.131502083759338,3136.7558831713
0.123536615618168,3136.7658831713
0.109948082870657,3136.7758831713
0.0926887363211025,3136.7858831713
0.074301104249689,3136.7958831713
0.0572289855654516,3136.8058831713
0.0427389144474495,3136.8158831713
0.028713197058519,3136.8258831713
0.0140903479287666,3136.8358831713
-0.00255406089276554,3136.8458831713
-0.0205444238711381,3136.8558831713
-0.0379132464671003,3136.8658831713
-0.0526443735987257,3136.8758831713
-0.0632324756632121,3136.8858831713
-0.0720031906323432,3136.8958831713
-0.0812693637018817,3136.9058831713
-0.0914770670980832,3136.9158831713
-0.103357515279182,3136.9258831713
-0.114482434036278,3136.9358831713
-0.124577536982478,3136.9458831713
-0.132348608990223,3136.9558831713
-0.140003238601099,3136.9658831713
-0.14933948640504,3136.9758831713
-0.161022741658953,3136.9858831713
-0.174265519439727,3136.9958831713
-0.187684423225794,3137.0058831713
-0.200986841808571,3137.0158831713
-0.212383503448915,3137.0258831713
-0.224978651656474,3137.0358831713
-0.240859791847551,3137.0458831713
-0.259723740417921,3137.0558831713
-0.280342945528644,3137.0658831713
-0.299984584782119,3137.0758831713
-0.316988306055467,3137.0858831713
-0.329024065489024,3137.0958831713
-0.33976028156844,3137.1058831713
-0.351287994715387,3137.1158831713
-0.364031582541554,3137.1258831713
-0.377968183096184,3137.1358831713
-0.392508160321295,3137.1458831713
-0.405580547267085,3137.1558831713
-0.416205825927544,3137.1658831713
-0.427732143013425,3137.1758831713
-0.441411379931766,3137.1858831713
-0.455965620583762,3137.1958831713
-0.466073950668628,3137.2058831713
-0.462187938330906,3137.2158831713
-0.428819133212538,3137.2258831713
-0.35382488235647,3137.2358831713
-0.237769177145,3137.2458831713
-0.0950865465633438,3137.2558831713
0.0521313647001446,3137.2658831713
0.183395877343149,3137.2758831713
0.284898668074141,3137.2858831713
0.354123970973852,3137.2958831713
0.394986498169679,3137.3058831713
0.412215335979262,3137.3158831713
0.411178044102623,3137.3258831713
0.398211852250143,3137.3358831713
0.377561133361307,3137.3458831713
0.353929293085329,3137.3558831713
0.330768334831966,3137.3658831713
0.309288482855965,3137.3758831713
0.288922534734805,3137.3858831713
0.268303453858016,3137.3958831713
0.24763963956994,3137.4058831713
0.22786137659218,3137.4158831713
0.211096324564349,3137.4258831713
0.198901749651356,3137.4358831713
0.191855406488048,3137.4458831713
0.187515632292575,3137.4558831713
0.183742450278084,3137.4658831713
0.178012486069705,3137.4758831713
0.169863330293014,3137.4858831713
0.15901197518104,3137.4958831713
0.145356190765366,3137.5058831713
0.130239850530773,3137.5158831713
0.113119527001378,3137.5258831713
0.0935952091453867,3137.5358831713
0.0733349271114487,3137.5458831713
0.0560028981653112,3137.5558831713
0.0434623765731027,3137.5658831713
0.0389070473469846,3137.5758831713
0.0415787164790834,3137.5858831713
0.0483194578802311,3137.5958831713
0.0564566759248156,3137.6058831713
0.0636333419567181,3137.6158831713
0.0693682837361736,3137.6258831713
0.0746430191734281,3137.6358831713
0.0799197204304828,3137.6458831713
0.0850679319394268,3137.6558831713
0.0881452626777943,3137.6658831713
0.0861024359373976,3137.6758831713
0.0782141317739897,3137.6858831713
0.065890208556648,3137.6958831713
0.0501467954185398,3137.7058831713
0.0343757931552045,3137.7158831713
0.0202910244006978,3137.7258831713
0.00680902361094619,3137.7358831713
-0.00825050712037845,3137.7458831713
-0.025449591115423,3137.7558831713
-0.0439979658218051,3137.7658831713
-0.0617830742369567,3137.7758831713
-0.07792190507164,3137.7858831713
-0.0926001716009035,3137.7958831713
-0.105735117146796,3137.8058831713
-0.117541536548068,3137.8158831713
-0.128422911959204,3137.8258831713
-0.138830170228217,3137.8358831713
-0.149285623512715,3137.8458831713
-0.156006970226803,3137.8558831713
-0.163137441083478,3137.8658831713
-0.174181707117641,3137.8758831713
-0.190633423883052,3137.8858831713
-0.210350851160792,3137.8958831713
-0.230104049128917,3137.9058831713
-0.247830206674663,3137.9158831713
-0.258317835584552,3137.9258831713
-0.265883934661624,3137.9358831713
-0.27460149595381,3137.9458831713
-0.287489335869352,3137.9558831713
-0.303550094169649,3137.9658831713
-0.320410401596284,3137.9758831713
-0.336635063278383,3137.9858831713
-0.349642071974696,3137.9958831713
-0.361777194619588,3138.0058831713
-0.375705616545067,3138.0158831713
-0.393154874896672,3138.0258831713
-0.411917158255818,3138.0358831713
-0.429411546421015,3138.0458831713
-0.444776267887762,3138.0558831713
-0.453559095183302,3138.0658831713
-0.460088142828771,3138.0758831713
-0.468634286293173,3138.0858831713
-0.480112180422661,3138.0958831713
-0.493700301869696,3138.1058831713
-0.507058150388004,3138.1158831713
-0.519688818373629,3138.1258831713
-0.527884149372015,3138.1358831713
-0.535616931643121,3138.1458831713
-0.545592841514588,3138.1558831713
-0.558134887232794,3138.1658831713
-0.567514483991265,3138.1758831713
-0.564045347284464,3138.1858831713
-0.53425349010213,3138.1958831713
-0.460421870424974,3138.2058831713
-0.340769559007854,3138.2158831713
-0.189197347721849,3138.2258831713
-0.0290664304297005,3138.2358831713
0.116193230096201,3138.2458831713
0.230776530919664,3138.2558831713
0.3100591123475,3138.2658831713
0.359317377263955,3138.2758831713
0.38278618508459,3138.2858831713
0.384493105854793,3138.2958831713
0.370186575646839,3138.3058831713
0.346547591212855,3138.3158831713
0.318902552799531,3138.3258831713
0.290887412389267,3138.3358831713
0.268065130322061,3138.3458831713
0.247217082021032,3138.3558831713
0.224775204806704,3138.3658831713
0.199955932489369,3138.3758831713
0.1758441172534,3138.3858831713
0.153729884376678,3138.3958831713
0.136152580683204,3138.4058831713
0.126742935342425,3138.4158831713
0.12078189658108,3138.4258831713
0.113831188511445,3138.4358831713
0.103271541933917,3138.4458831713
0.0888987947586172,3138.4558831713
0.0726341890225932,3138.4658831713
0.0541574426320486,3138.4758831713
0.038513957195297,3138.4858831713
0.0230594300209523,3138.4958831713
0.00483725248251298,3138.5058831713
-0.0148424156321687,3138.5158831713
-0.0328369134846727,3138.5258831713
-0.0444879025065433,3138.5358831713
-0.0485595469439685,3138.5458831713
-0.0413296211112993,3138.5558831713
-0.0281166093897529,3138.5658831713
-0.0150945245982309,3138.5758831713
-0.00462302023829659,3138.5858831713
0.00252975700607334,3138.5958831713
0.00791461590169365,3138.6058831713
0.0122380442956011,3138.6158831713
0.018156966385605,3138.6258831713
0.0219010091696652,3138.6358831713
0.0199792698710055,3138.6458831713
0.0104405893779059,3138.6558831713
-0.00361550915877727,3138.6658831713
-0.0198797611405765,3138.6758831713
-0.0363681473276485,3138.6858831713
-0.0487815542327723,3138.6958831713
-0.0604542562292101,3138.7058831713
-0.0741008493876246,3138.7158831713
-0.0908874616054485,3138.7258831713
-0.110084845568337,3138.7358831713
-0.128808482700925,3138.7458831713
-0.145595356859616,3138.7558831713
-0.156485424116803,3138.7658831713
-0.165082561291959,3138.7758831713
-0.175122602247684,3138.7858831713
-0.188016737285843,3138.7958831713
-0.202385725660726,3138.8058831713
-0.217655147009202,3138.8158831713
-0.232467581477717,3138.8258831713
-0.245308399263469,3138.8358831713
-0.256792850609207,3138.8458831713
-0.263642635510109,3138.8558831713
-0.269686788169803,3138.8658831713
-0.278232156138377,3138.8758831713
-0.29050953448579,3138.8858831713
-0.304943288214391,3138.8958831713
-0.319581235885071,3138.9058831713
-0.332611057543705,3138.9158831713
-0.34048187214643,3138.9258831713
-0.346717089900967,3138.9358831713
-0.356714255900168,3138.9458831713
-0.371000437240853,3138.9558831713
-0.38823179846694,3138.9658831713
-0.405676071070116,3138.9758831713
-0.422028788258898,3138.9858831713
-0.432981160900222,3138.9958831713
-0.442532695024332,3139.0058831713
-0.454503492247746,3139.0158831713
-0.470169576297854,3139.0258831713
-0.488290865184961,3139.0358831713
-0.506707296521737,3139.0458831713
-0.523064040839141,3139.0558831713
-0.532974406807659,3139.0658831713
-0.540211431365908,3139.0758831713
-0.549565449275335,3139.0858831713
-0.562409294478886,3139.0958831713
-0.577116614650876,3139.1058831713
-0.591931853015212,3139.1158831713
-0.604864881935815,3139.1258831713
-0.61172240724468,3139.1358831713
-0.616949614720967,3139.1458831713
-0.625727576092133,3139.1558831713
-0.638899271959579,3139.1658831713
-0.65305902782048,3139.1758831713
-0.661407129654786,3139.1858831713
-0.653510731833595,3139.1958831713
-0.612102026475301,3139.2058831713
-0.525994100193146,3139.2158831713
-0.395526548436173,3139.2258831713
-0.234718186627102,3139.2358831713
-0.066979501716491,3139.2458831713
0.0834160162801664,3139.2558831713
0.200857406516956,3139.2658831713
0.282924194757849,3139.2758831713
0.328972320184169,3139.2858831713
0.344334943806696,3139.2958831713
0.33693372240698,3139.3058831713
0.316103660126341,3139.3158831713
0.288866300118582,3139.3258831713
0.259970200485634,3139.3358831713
0.234515669587276,3139.3458831713
0.209264100874885,3139.3558831713
0.180223354925461,3139.3658831713
0.145697213018338,3139.3758831713
0.10981615068929,3139.3858831713
0.0743671216243242,3139.3958831713
0.0425469812921563,3139.4058831713
0.017325061719324,3139.4158831713
-0.00321414718103573,3139.4258831713
-0.0229668345821418,3139.4358831713
-0.0439220285415713,3139.4458831713
-0.0659402646450461,3139.4558831713
-0.0894989412378507,3139.4658831713
-0.114221782081379,3139.4758831713
-0.136038825814258,3139.4858831713
-0.157695781391151,3139.4958831713
-0.180516850379416,3139.5058831713
-0.203718668686413,3139.5158831713
-0.222283024509474,3139.5258831713
-0.23208023787198,3139.5358831713
-0.22999098775619,3139.5458831713
-0.211791451410292,3139.5558831713
-0.182673484562936,3139.5658831713
-0.149522418494174,3139.5758831713
-0.116626742622956,3139.5858831713
-0.0867338196120945,3139.5958831713
-0.0616693071112933,3139.6058831713
-0.0422607724009184,3139.6158831713
-0.0259156553297308,3139.6258831713
-0.0168129127079696,3139.6358831713
-0.0185262118037264,3139.6458831713
-0.0311866839915241,3139.6558831713
-0.0517565230511304,3139.6658831713
-0.0762200071717746,3139.6758831713
-0.100978150833829,3139.6858831713
-0.121695205859043,3139.6958831713
-0.140479310958841,3139.7058831713
-0.160293137742423,3139.7158831713
-0.182385955140553,3139.7258831713
-0.204916140873705,3139.7358831713
-0.225478095577246,3139.7458831713
-0.243006764516813,3139.7558831713
-0.252294074200643,3139.7658831713
-0.257889643288015,3139.7758831713
-0.264268057746375,3139.7858831713
-0.273303838348708,3139.7958831713
-0.284577408810791,3139.8058831713
-0.295336853596537,3139.8158831713
-0.304699600543959,3139.8258831713
-0.311148875374712,3139.8358831713
-0.314953532499317,3139.8458831713
-0.314118172602888,3139.8558831713
-0.313479186879626,3139.8658831713
-0.316488859980643,3139.8758831713
-0.323832521122334,3139.8858831713
-0.334552346983383,3139.8958831713
-0.345554287501416,3139.9058831713
-0.355576051665893,3139.9158831713
-0.361236224991541,3139.9258831713
-0.366128477731973,3139.9358831713
-0.374302467253333,3139.9458831713
-0.387305270406328,3139.9558831713
-0.403894678817523,3139.9658831713
-0.420425074102774,3139.9758831713
-0.436066695891526,3139.9858831713
-0.446569144914419,3139.9958831713
-0.455345259414675,3140.0058831713
-0.466420008694193,3140.0158831713
-0.481423270613912,3140.0258831713
-0.499030498671738,3140.0358831713
-0.517116472461104,3140.0458831713
-0.534510291436728,3140.0558831713
-0.546157093662413,3140.0658831713
-0.554969630949426,3140.0758831713
-0.560320958148884,3140.0858831713
-0.556056524794219,3140.0958831713
-0.529401933655179,3140.1058831713
-0.465234449290593,3140.1158831713
-0.356904848991664,3140.1258831713
-0.211420331659875,3140.1358831713
-0.0535370728030488,3140.1458831713
0.0888850605981414,3140.1558831713
0.199383973618061,3140.1658831713
0.271897443479017,3140.1758831713
0.310292946486,3140.1858831713
0.323710285285684,3140.1958831713
0.323892557494369,3140.2058831713
0.314628093557799,3140.2158831713
0.29607917216283,3140.2258831713
0.269794574478569,3140.2358831713
0.238228512509774,3140.2458831713
0.204779245140308,3140.2558831713
0.172097790259283,3140.2658831713
0.144857133968603,3140.2758831713
0.119775602907282,3140.2858831713
0.0946083852703104,3140.2958831713
0.0674510130684829,3140.3058831713
0.0408270763286139,3140.3158831713
0.0162745801303929,3140.3258831713
-0.00434361089674577,3140.3358831713
-0.01755616396225,3140.3458831713
-0.0291080244116621,3140.3558831713
-0.0437185756128829,3140.3658831713
-0.0650576668993045,3140.3758831713
-0.0907523173730503,3140.3858831713
-0.116956779735759,3140.3958831713
-0.139645519500546,3140.4058831713
-0.151577328605419,3140.4158831713
-0.155481111681616,3140.4258831713
-0.153413903304563,3140.4358831713
-0.147321519172605,3140.4458831713
-0.135799356695726,3140.4558831713
-0.119277664334498,3140.4658831713
-0.097876567784037,3140.4758831713
-0.0697110002014192,3140.4858831713
-0.0419754144363704,3140.4958831713
-0.0210392759132125,3140.5058831713
-0.00992834834989269,3140.5158831713
-0.00827889049193136,3140.5258831713
-0.0129321149717861,3140.5358831713
-0.0214923599331927,3140.5458831713
-0.02952016579106,3140.5558831713
-0.0389830020114205,3140.5658831713
-0.0536426092176312,3140.5758831713
-0.0731586077660063,3140.5858831713
-0.0953686984593743,3140.5958831713
-0.117337162734796,3140.6058831713
-0.136485174454644,3140.6158831713
-0.149407738169709,3140.6258831713
-0.159462988095777,3140.6358831713
-0.170421305663879,3140.6458831713
-0.183567465271087,3140.6558831713
-0.197431373841955,3140.6658831713
-0.209588331042383,3140.6758831713
-0.219529900558415,3140.6858831713
-0.223300189535856,3140.6958831713
-0.225160799523676,3140.7058831713
-0.22965778729012,3140.7158831713
-0.237796872117759,3140.7258831713
-0.247964867229209,3140.7358831713
-0.25829316665081,3140.7458831713
-0.268346935077972,3140.7558831713
-0.272678681334002,3140.7658831713
-0.27602193702964,3140.7758831713
-0.281710454533343,3140.7858831713
-0.291245891845594,3140.7958831713
-0.304151100932061,3140.8058831713
-0.317884778493004,3140.8158831713
-0.332196504633876,3140.8258831713
-0.345179918334069,3140.8358831713
-0.356815200054262,3140.8458831713
-0.364066058478241,3140.8558831713
-0.37146944121922,3140.8658831713
-0.382608243271704,3140.8758831713
-0.398394579791248,3140.8858831713
-0.416943523108904,3140.8958831713
-0.435797332610989,3140.9058831713
-0.452228713423585,3140.9158831713
-0.462371801431231,3140.9258831713
-0.470223338397895,3140.9358831713
-0.479475533772941,3140.9458831713
-0.491783898824236,3140.9558831713
-0.505577619489031,3140.9658831713
-0.518721325689938,3140.9758831713
-0.53010523715316,3140.9858831713
-0.536351917066909,3140.9958831713
-0.541620639857199,3141.0058831713
-0.549802941541869,3141.0158831713
-0.560913343049098,3141.0258831713
-0.570517307843514,3141.0358831713
-0.570289790520223,3141.0458831713
-0.54693892395506,3141.0558831713
-0.482709356652416,3141.0658831713
-0.373730502322588,3141.0758831713
-0.231432537627932,3141.0858831713
-0.0758197276617841,3141.0958831713
0.0691241236298328,3141.1058831713
0.186768858096422,3141.1158831713
0.270744182603301,3141.1258831713
0.325105535593594,3141.1358831713
0.353054430682575,3141.1458831713
0.358102604520435,3141.1558831713
0.34654464503843,3141.1658831713
0.324968189414911,3141.1758831713
0.299343069115371,3141.1858831713
0.273817843107756,3141.1958831713
0.253320050437314,3141.2058831713
0.23505196430188,3141.2158831713
0.215160474901634,3141.2258831713
0.193196921517872,3141.2358831713
0.170340527491506,3141.2458831713
0.149273059893879,3141.2558831713
0.132411488310642,3141.2658831713
0.123255923921862,3141.2758831713
0.119021404926844,3141.2858831713
0.114830224161423,3141.2958831713
0.108315828190722,3141.3058831713
0.0996331862012954,3141.3158831713
0.0893725047097078,3141.3258831713
0.0784001156530372,3141.3358831713
0.0698468178826395,3141.3458831713
0.0598281262543949,3141.3558831713
0.0458457706041201,3141.3658831713
0.0277023428097196,3141.3758831713
0.00912161727750828,3141.3858831713
-0.00569241655086032,3141.3958831713
-0.0143476484916963,3141.4058831713
-0.0128262443107647,3141.4158831713
-0.00608062617830811,3141.4258831713
0.00189599461384473,3141.4358831713
0.00806137084889727,3141.4458831713
0.0128022644753876,3141.4558831713
0.0178515764370439,3141.4658831713
0.0234996648174838,3141.4758831713
0.0328072400864021,3141.4858831713
0.0411657843905005,3141.4958831713
0.0446814693056949,3141.5058831713
0.04132469997439,3141.5158831713
0.0329860711088224,3141.5258831713
0.0225982759038857,3141.5358831713
0.0114751031129424,3141.5458831713
0.00428785424124389,3141.5558831713
-0.00210356171231067,3141.5658831713
-0.0114255163989111,3141.5758831713
-0.024442053054646,3141.5858831713
-0.0394738846287595,3141.5958831713
-0.054789109641412,3141.6058831713
-0.0687542565008602,3141.6158831713
-0.0765827325199172,3141.6258831713
-0.0829018716816079,3141.6358831713
-0.0904639040677466,3141.6458831713
-0.100892482143563,3141.6558831713
-0.113175820617999,3141.6658831713
-0.125637665831706,3141.6758831713
-0.136561756345442,3141.6858831713
-0.14228996689837,3141.6958831713
-0.146498099756215,3141.7058831713
-0.153592194743508,3141.7158831713
-0.164162146528787,3141.7258831713
-0.176924088771034,3141.7358831713
-0.190595306653526,3141.7458831713
-0.203080256135846,3141.7558831713
-0.210688148858009,3141.7658831713
-0.21651958696849,3141.7758831713
-0.22493381125572,3141.7858831713
-0.236843714578387,3141.7958831713
-0.251730073472611,3141.8058831713
-0.267591445318748,3141.8158831713
-0.282779416346645,3141.8258831713
-0.29654046948721,3141.8358831713
-0.308750657923182,3141.8458831713
-0.316785140317332,3141.8558831713
-0.324064154178162,3141.8658831713
-0.334381342531805,3141.8758831713
-0.349300125065891,3141.8858831713
-0.366385888795254,3141.8958831713
-0.38328035663061,3141.9058831713
-0.398978867141735,3141.9158831713
-0.40936745296661,3141.9258831713
-0.418557898585103,3141.9358831713
-0.429289373522104,3141.9458831713
-0.442738753333287,3141.9558831713
-0.457252316827433,3141.9658831713
-0.470943263842566,3141.9758831713
-0.482499525135353,3141.9858831713
-0.488328724891955,3141.9958831713
-0.492600327171174,3142.0058831713
-0.499772698813774,3142.0158831713
-0.511248294778425,3142.0258831713
-0.525046011884997,3142.0358831713
-0.537804170490666,3142.0458831713
-0.543583038897251,3142.0558831713
-0.52892319149278,3142.0658831713
-0.484432276356152,3142.0758831713
-0.401938467401911,3142.0858831713
-0.282063510155684,3142.0958831713
-0.136581521859123,3142.1058831713
0.0132527328361002,3142.1158831713
0.146640859643726,3142.1258831713
0.253923693948992,3142.1358831713
0.326727747041376,3142.1458831713
0.365504014344707,3142.1558831713
0.376335846772401,3142.1658831713
0.368018831646369,3142.1758831713
0.34979089438949,3142.1858831713
0.327203415910337,3142.1958831713
0.306557643785716,3142.2058831713
0.28588333556685,3142.2158831713
0.263088897585381,3142.2258831713
0.23775607102555,3142.2358831713
0.211081587801458,3142.2458831713
0.185818072070939,3142.2558831713
0.163614105467413,3142.2658831713
0.14905976096656,3142.2758831713
0.138609181206087,3142.2858831713
0.127443828697244,3142.2958831713
0.114094392134022,3142.3058831713
0.0998497046493444,3142.3158831713
0.0851610856567864,3142.3258831713
0.0715895950288443,3142.3358831713
0.0604578578297585,3142.3458831713
0.0483732219656913,3142.3558831713
0.0332391487076284,3142.3658831713
0.0142467247002373,3142.3758831713
-0.00615426248629382,3142.3858831713
-0.0239678804705605,3142.3958831713
-0.0364574459207274,3142.4058831713
-0.0367908665746201,3142.4158831713
-0.0287470022626812,3142.4258831713
-0.0164390016734207,3142.4358831713
-0.00297118776483039,3142.4458831713
0.0105867924010171,3142.4558831713
0.0252533364034591,3142.4658831713
0.040449632051431,3142.4758831713
0.0587214798810089,3142.4858831713
0.0746052871493385,3142.4958831713
0.08346178785193,3142.5058831713
0.0839374221718838,3142.5158831713
0.0772249981874576,3142.5258831713
0.0660715984851073,3142.5358831713
0.0537998225242178,3142.5458831713
0.0448872860723239,3142.5558831713
0.0362688442416136,3142.5658831713
0.0242748007822811,3142.5758831713
0.00808904037260032,3142.5858831713
-0.0102284793025622,3142.5958831713
-0.0288968441598297,3142.6058831713
-0.0452644077990652,3142.6158831713
-0.055465899415247,3142.6258831713
-0.0628373840368142,3142.6358831713
-0.0706184738298939,3142.6458831713
-0.0807134979345975,3142.6558831713
-0.0919676358350489,3142.6658831713
-0.102972723929286,3142.6758831713
-0.112528301176846,3142.6858831713
-0.11636123962227,3142.6958831713
-0.118981172722761,3142.7058831713
-0.123316906796451,3142.7158831713
-0.131972510989041,3142.7258831713
-0.143233649404974,3142.7358831713
-0.154675928100966,3142.7458831713
-0.165401839832868,3142.7558831713
-0.171650954389852,3142.7658831713
-0.176735089232087,3142.7758831713
-0.183943655772013,3142.7858831713
-0.194133571388059,3142.7958831713
-0.20666635744194,3142.8058831713
-0.220377920922139,3142.8158831713
-0.234141303073363,3142.8258831713
-0.246568813650033,3142.8358831713
-0.257309508511927,3142.8458831713
-0.262693625545077,3142.8558831713
-0.267224937226954,3142.8658831713
-0.274716288462314,3142.8758831713
-0.287215462313242,3142.8858831713
-0.302880196126257,3142.8958831713
-0.319456535098065,3142.9058831713
-0.335113245333994,3142.9158831713
-0.345918152656892,3142.9258831713
-0.355411199393847,3142.9358831713
-0.365979010276759,3142.9458831713
-0.376583905875163,3142.9558831713
-0.38015229361316,3142.9658831713
-0.365258233279944,3142.9758831713
-0.321038282051728,3142.9858831713
-0.236829623106987,3142.9958831713
-0.120819987737413,3143.0058831713
0.00851412316876814,3143.0158831713
0.130625528874181,3143.0258831713
0.231559800291765,3143.0358831713
0.304179059489999,3143.0458831713
0.348572607844636,3143.0558831713
0.373190106292499,3143.0658831713
0.381091975553466,3143.0758831713
0.374124274160522,3143.0858831713
0.355659332977339,3143.0958831713
0.330481501457184,3143.1058831713
0.301864533256802,3143.1158831713
0.273888740798304,3143.1258831713
0.25102367940102,3143.1358831713
0.230089920561433,3143.1458831713
0.207411215212044,3143.1558831713
0.181746186140271,3143.1658831713
0.155100785156543,3143.1758831713
0.130221599582915,3143.1858831713
0.109233838627934,3143.1958831713
0.0953672636218994,3143.2058831713
0.084448862035705,3143.2158831713
0.0713287368584625,3143.2258831713
0.0530002274079648,3143.2358831713
0.0302989300883282,3143.2458831713
0.00610975166487383,3143.2558831713
-0.016277601422154,3143.2658831713
-0.030739227228102,3143.2758831713
-0.0386278163525452,3143.2858831713
-0.0416495876933381,3143.2958831713
-0.0404890289444274,3143.3058831713
-0.0332639643824851,3143.3158831713
-0.0191776076303555,3143.3258831713
0.00259953552535535,3143.3358831713
0.0325892009715267,3143.3458831713
0.0638508931735701,3143.3558831713
0.0904127753602825,3143.3658831713
0.107403288515345,3143.3758831713
0.115491037997301,3143.3858831713
0.116330945650974,3143.3958831713
0.112334562340372,3143.4058831713
0.108521815433502,3143.4158831713
0.102445032650593,3143.4258831713
0.0917682581342882,3143.4358831713
0.075657689135846,3143.4458831713
0.0559135555959017,3143.4558831713
0.0353651295065969,3143.4658831713
0.0164286607595226,3143.4758831713
0.00384068493010693,3143.4858831713
-0.00576531349962993,3143.4958831713
-0.0158911471521281,3143.5058831713
-0.0278723231180414,3143.5158831713
-0.0404263536832171,3143.5258831713
-0.0522010458880938,3143.5358831713
-0.0616569112148885,3143.5458831713
-0.0653705747256712,3143.5558831713
-0.0677057808894738,3143.5658831713
-0.0715037564803003,3143.5758831713
-0.0783928434444989,3143.5858831713
-0.0870466064729924,3143.5958831713
-0.096124505437653,3143.6058831713
-0.104243630804455,3143.6158831713
-0.107219860631637,3143.6258831713
-0.108838351250095,3143.6358831713
-0.112642645639113,3143.6458831713
-0.120705932786335,3143.6558831713
-0.131236524720821,3143.6658831713
-0.142684040321659,3143.6758831713
-0.153602507506332,3143.6858831713
-0.159915726273053,3143.6958831713
-0.164765707855899,3143.7058831713
-0.172440948004859,3143.7158831713
-0.184100582676234,3143.7258831713
-0.198010612586092,3143.7358831713
-0.212051147735996,3143.7458831713
-0.224384644913004,3143.7558831713
-0.231662859138808,3143.7658831713
-0.236565343702356,3143.7758831713
-0.244160779611621,3143.7858831713
-0.256518547307384,3143.7958831713
-0.272255565975811,3143.8058831713
-0.28935083022943,3143.8158831713
-0.303768920653895,3143.8258831713
-0.310449396511918,3143.8358831713
-0.301886133093088,3143.8458831713
-0.263828553938047,3143.8558831713
-0.191660864045198,3143.8658831713
-0.0906140360126236,3143.8758831713
0.0262913700507126,3143.8858831713
0.142556156208774,3143.8958831713
0.244215362001372,3143.9058831713
0.322982631230478,3143.9158831713
0.380065019690118,3143.9258831713
0.414391924204232,3143.9358831713
0.427313752774399,3143.9458831713
0.423849001582723,3143.9558831713
0.409410286289615,3143.9658831713
0.390142483458681,3143.9758831713
0.368953880503949,3143.9858831713
0.351863057835345,3143.9958831713
0.336630503519465,3144.0058831713
0.319247372110732,3144.0158831713
0.300415377316129,3144.0258831713
0.281778820497969,3144.0358831713
0.265530972023521,3144.0458831713
0.253335273302055,3144.0558831713
0.248515830151293,3144.0658831713
0.247978562932813,3144.0758831713
0.246123394134851,3144.0858831713
0.241177954924199,3144.0958831713
0.233586261250889,3144.1058831713
0.224184967377994,3144.1158831713
0.213925676739192,3144.1258831713
0.205659545790137,3144.1358831713
0.196235636024016,3144.1458831713
0.183221251307544,3144.1558831713
0.16675865356696,3144.1658831713
0.149883999037098,3144.1758831713
0.136507061457629,3144.1858831713
0.128859459615159,3144.1958831713
0.130444124637123,3144.2058831713
0.137329872552352,3144.2158831713
0.145196215995304,3144.2258831713
0.151256872952139,3144.2358831713
0.156257399987235,3144.2458831713
0.161130716601023,3144.2558831713
0.165931653988411,3144.2658831713
0.174197450294094,3144.2758831713
0.182089345214199,3144.2858831713
0.184909859359288,3144.2958831713
0.181380172036105,3144.3058831713
0.173718729809961,3144.3158831713
0.163147100574067,3144.3258831713
0.152036763654653,3144.3358831713
0.145549000813821,3144.3458831713
0.139753700097854,3144.3558831713
0.131436275826986,3144.3658831713
0.119560774964999,3144.3758831713
0.105294864716323,3144.3858831713
0.0909092574884486,3144.3958831713
0.0780241384733779,3144.4058831713
0.0704491850077262,3144.4158831713
0.0652895733790984,3144.4258831713
0.0584849823204922,3144.4358831713
0.047996629349179,3144.4458831713
0.0360403931351027,3144.4558831713
0.0241859789421264,3144.4658831713
0.0132314216246808,3144.4758831713
0.00856504529404906,3144.4858831713
0.00539891472375955,3144.4958831713
-0.000175867811036293,3144.5058831713
-0.00995600181329111,3144.5158831713
-0.0229819523876477,3144.5258831713
-0.0365144014916931,3144.5358831713
-0.0485548630498091,3144.5458831713
-0.0545220947618557,3144.5558831713
-0.0583840976611879,3144.5658831713
-0.0647904017408994,3144.5758831713
-0.0754717349533381,3144.5858831713
-0.0884372017003608,3144.5958831713
-0.102188840617023,3144.6058831713
-0.114899212611201,3144.6158831713
-0.121705571304627,3144.6258831713
-0.127467334729105,3144.6358831713
-0.13580942046339,3144.6458831713
-0.147922741121405,3144.6558831713
-0.162059305728815,3144.6658831713
-0.176159239535602,3144.6758831713
-0.187868692833619,3144.6858831713
-0.19265519277565,3144.6958831713
-0.195120281847293,3144.7058831713
-0.200085364614943,3144.7158831713
-0.209160829426538,3144.7258831713
-0.22113178073958,3144.7358831713
-0.234173262968367,3144.7458831713
-0.24645283714399,3144.7558831713
-0.255132029046756,3144.7658831713
-0.261733159689728,3144.7758831713
-0.266520458085334,3144.7858831713
-0.26481781440008,3144.7958831713
-0.2459135328138,3144.8058831713
-0.198355656081948,3144.8158831713
-0.118917599846871,3144.8258831713
-0.0124822242402133,3144.8358831713
0.103132013623759,3144.8458831713
0.216165466911737,3144.8558831713
0.310048927006749,3144.8658831713
0.375549787394219,3144.8758831713
0.413172137386226,3144.8858831713
0.42833762560357,3144.8958831713
0.428782628321082,3144.9058831713
0.420811625485678,3144.9158831713
0.411977766108726,3144.9258831713
0.401220963829465,3144.9358831713
0.386238701345114,3144.9458831713
0.366332474910937,3144.9558831713
0.344335288128142,3144.9658831713
0.322986912155913,3144.9758831713
0.305081639238058,3144.9858831713
0.295073225339958,3144.9958831713
0.288914284059467,3145.0058831713
0.28265111303279,3145.0158831713
0.275007068530888,3145.0258831713
0.266007868915577,3145.0358831713
0.258184079005999,3145.0458831713
0.252000022396293,3145.0558831713
0.250441607425596,3145.0658831713
0.248978680885864,3145.0758831713
0.243039425252332,3145.0858831713
0.230592925795583,3145.0958831713
0.213598361668542,3145.1058831713
0.195314627695648,3145.1158831713
0.179172446405189,3145.1258831713
0.171032988443589,3145.1358831713
0.16835174115678,3145.1458831713
0.167489738290994,3145.1558831713
0.166413820430226,3145.1658831713
0.165906109667894,3145.1758831713
0.167164522337309,3145.1858831713
0.170849890599675,3145.1958831713
0.180455716375156,3145.2058831713
0.19145983611759,3145.2158831713
0.199061914824241,3145.2258831713
0.201297705517806,3145.2358831713
0.199179607473244,3145.2458831713
0.195051422135899,3145.2558831713
0.190350237728484,3145.2658831713
0.188879242312603,3145.2758831713
0.187075217809626,3145.2858831713
0.181314395714742,3145.2958831713
0.171418852842766,3145.3058831713
0.159111596974829,3145.3158831713
0.145914611627721,3145.3258831713
0.134274591494749,3145.3358831713
0.127190451280403,3145.3458831713
0.121745556097861,3145.3558831713
0.114109995899505,3145.3658831713
0.103821877610507,3145.3758831713
0.0913214821572369,3145.3858831713
0.0789684330168262,3145.3958831713
0.0677621250966462,3145.4058831713
0.0619516369858269,3145.4158831713
0.0579627625644302,3145.4258831713
0.0516530370147376,3145.4358831713
0.0416986271692709,3145.4458831713
0.0294006603490886,3145.4558831713
0.0171047657259091,3145.4658831713
0.00612256853375565,3145.4758831713
-0.000477258869589069,3145.4858831713
-0.00604781474358392,3145.4958831713
-0.0133517717546447,3145.5058831713
-0.0236257001804493,3145.5158831713
-0.0364716868132385,3145.5258831713
-0.0488686060069559,3145.5358831713
-0.0608179856249764,3145.5458831713
-0.0685320674289306,3145.5558831713
-0.0757932942140547,3145.5658831713
-0.084970279081333,3145.5758831713
-0.0967620423200263,3145.5858831713
-0.1099834081044,3145.5958831713
-0.122867671964068,3145.6058831713
-0.134654909981563,3145.6158831713
-0.141491496886018,3145.6258831713
-0.147287630884696,3145.6358831713
-0.156195739109314,3145.6458831713
-0.169007446124731,3145.6558831713
-0.183688547354229,3145.6658831713
-0.198576184519481,3145.6758831713
-0.211826969553524,3145.6858831713
-0.219478036146615,3145.6958831713
-0.225575870969871,3145.7058831713
-0.233417887903381,3145.7158831713
-0.244648509988796,3145.7258831713
-0.257839692617019,3145.7358831713
-0.271725554962723,3145.7458831713
-0.284909005437719,3145.7558831713
-0.293242631715101,3145.7658831713
-0.298408700031176,3145.7758831713
-0.301446047408876,3145.7858831713
-0.296985059948236,3145.7958831713
-0.273680351321233,3145.8058831713
-0.21963181470085,3145.8158831713
-0.130232349639686,3145.8258831713
-0.0128591409273337,3145.8358831713
0.114816935564853,3145.8458831713
0.237994442228207,3145.8558831713
0.338816693010024,3145.8658831713
0.408790305510333,3145.8758831713
0.447992219376066,3145.8858831713
0.462829651375997,3145.8958831713
0.462122164153003,3145.9058831713
0.45239136889734,3145.9158831713
0.441440739769509,3145.9258831713
0.428012723150189,3145.9358831713
0.409395808426597,3145.9458831713
0.385750861671621,3145.9558831713
0.359764181495381,3145.9658831713
0.33511872532451,3145.9758831713
0.313446789433359,3145.9858831713
0.298772887030912,3145.9958831713
0.288469127971113,3146.0058831713
0.278541508162539,3146.0158831713
0.267054330389004,3146.0258831713
0.255802766075477,3146.0358831713
0.245042951299232,3146.0458831713
0.236280762414652,3146.0558831713
0.232012836676725,3146.0658831713
0.227328707869606,3146.0758831713
0.217501196530123,3146.0858831713
0.201165136521064,3146.0958831713
0.180648341821466,3146.1058831713
0.159888280255252,3146.1158831713
0.142341425790013,3146.1258831713
0.133865815064041,3146.1358831713
0.131768582965269,3146.1458831713
0.133658659361647,3146.1558831713
0.137329254311443,3146.1658831713
0.143215404351599,3146.1758831713
0.152183737959205,3146.1858831713
0.163624633589927,3146.1958831713
0.179846618030033,3146.2058831713
0.195419229877784,3146.2158831713
0.206204894952211,3146.2258831713
0.209680050418694,3146.2358831713
0.207768279932672,3146.2458831713
0.202107893749547,3146.2558831713
0.194442783249468,3146.2658831713
0.18994585163921,3146.2758831713
0.184821129256459,3146.2858831713
0.17511590662612,3146.2958831713
0.160503563948414,3146.3058831713
0.143189238008111,3146.3158831713
0.125522202829193,3146.3258831713
0.109962823584569,3146.3358831713
0.100698511845682,3146.3458831713
0.0942668530899936,3146.3558831713
0.0859407719475155,3146.3658831713
0.0739691014223694,3146.3758831713
0.0594233468305704,3146.3858831713
0.0451310855824682,3146.3958831713
0.0331853875568483,3146.4058831713
0.0264935546534774,3146.4158831713
0.022119046840398,3146.4258831713
0.015461180498872,3146.4358831713
0.00553347910305869,3146.4458831713
-0.00743910480162694,3146.4558831713
-0.0209655372377837,3146.4658831713
-0.0330919631943681,3146.4758831713
-0.0391804316474418,3146.4858831713
-0.0437159931964083,3146.4958831713
-0.0509817957826467,3146.5058831713
-0.0627846967125222,3146.5158831713
-0.0775930916758652,3146.5258831713
-0.093273388412764,3146.5358831713
-0.107823241112627,3146.5458831713
-0.117163613524992,3146.5558831713
-0.124406143398134,3146.5658831713
-0.133976572718661,3146.5758831713
-0.147269546117064,3146.5858831713
-0.163322508269623,3146.5958831713
-0.179930603290035,3146.6058831713
-0.194422255965665,3146.6158831713
-0.202717123746801,3146.6258831713
-0.208610975911535,3146.6358831713
-0.217005048951589,3146.6458831713
-0.229591276067514,3146.6558831713
-0.245718856665207,3146.6658831713
-0.262411832465797,3146.6758831713
-0.278302460661765,3146.6858831713
-0.288890717897415,3146.6958831713
-0.297301077753559,3146.7058831713
-0.305290747417719,3146.7158831713
-0.309429351986495,3146.7258831713
-0.300744844497259,3146.7358831713
-0.265741355870516,3146.7458831713
-0.194255138532502,3146.7558831713
-0.0847836395141796,3146.7658831713
0.0468548580904858,3146.7758831713
0.17822154540779,3146.7858831713
0.291391812677358,3146.7958831713
0.374795228035032,3146.8058831713
0.427136064539535,3146.8158831713
0.452892066981686,3146.8258831713
0.458994392327003,3146.8358831713
0.45313078891323,3146.8458831713
0.443004330295874,3146.8558831713
0.428332982017,3146.8658831713
0.40755898649337,3146.8758831713
0.381228784778753,3146.8858831713
0.351789217565977,3146.8958831713
0.3220180412186,3146.9058831713
0.294134197356573,3146.9158831713
0.272602511802452,3146.9258831713
0.254629292487332,3146.9358831713
0.235683194592007,3146.9458831713
0.215902661539013,3146.9558831713
0.195545451053929,3146.9658831713
0.175932003914764,3146.9758831713
0.157584004672814,3146.9858831713
0.14299813835742,3146.9958831713
0.128263907257049,3147.0058831713
0.10921007061686,3147.0158831713
0.085993740219148,3147.0258831713
0.0614645232367483,3147.0358831713
0.0404918357220436,3147.0458831713
0.0278022554006415,3147.0558831713
0.028366348486327,3147.0658831713
0.039190905808935,3147.0758831713
0.0560741417938303,3147.0858831713
0.0765231677651746,3147.0958831713
0.099692713305508,3147.1058831713
0.123938559524213,3147.1158831713
0.147593296999959,3147.1258831713
0.171654536879217,3147.1358831713
0.191008864282738,3147.1458831713
0.201352829083064,3147.1558831713
0.201593538446005,3147.1658831713
0.19354846077957,3147.1758831713
0.180373040717086,3147.1858831713
0.165507918728099,3147.1958831713
0.153332892293737,3147.2058831713
0.141382865851286,3147.2158831713
0.125959314579454,3147.2258831713
0.106501062997088,3147.2358831713
0.0857830278663594,3147.2458831713
0.0658833496784767,3147.2558831713
0.0488692402691134,3147.2658831713
0.0388533758302772,3147.2758831713
0.0320424080236091,3147.2858831713
0.0246645577362295,3147.2958831713
0.0147151390345619,3147.3058831713
0.00327475497214637,3147.3158831713
-0.007646989696355,3147.3258831713
-0.0168825096353355,3147.3358831713
-0.0202297847387882,3147.3458831713
-0.0214439405618581,3147.3558831713
-0.0250308085261248,3147.3658831713
-0.0330923562554089,3147.3758831713
-0.0436277528879616,3147.3858831713
-0.0545706146603708,3147.3958831713
-0.0643956613215138,3147.4058831713
-0.0690838489368414,3147.4158831713
-0.0722986966180076,3147.4258831713
-0.0783091618804658,3147.4358831713
-0.0885475949121253,3147.4458831713
-0.101774180457275,3147.4558831713
-0.115468174163009,3147.4658831713
-0.128305335025688,3147.4758831713
-0.136305335049722,3147.4858831713
-0.142210296912309,3147.4958831713
-0.149976275581,3147.5058831713
-0.160977667097571,3147.5158831713
-0.173884198300427,3147.5258831713
-0.18748962888101,3147.5358831713
-0.20050786384602,3147.5458831713
-0.209496393532557,3147.5558831713
-0.217811948358093,3147.5658831713
-0.228994719245279,3147.5758831713
-0.243014435417797,3147.5858831713
-0.254966686834707,3147.5958831713
-0.256329312349627,3147.6058831713
-0.236057893588405,3147.6158831713
-0.180130043003032,3147.6258831713
-0.0884023910543456,3147.6358831713
0.0275062821825699,3147.6458831713
0.149734151297989,3147.6558831713
0.262386482191904,3147.6658831713
0.352841501544626,3147.6758831713
0.417659668907103,3147.6858831713
0.460115701178533,3147.6958831713
0.482549096388361,3147.7058831713
0.487725809354952,3147.7158831713
0.479929673231258,3147.7258831713
0.463952184213553,3147.7358831713
0.44367269774162,3147.7458831713
0.422819397095787,3147.7558831713
0.40611256636058,3147.7658831713
0.391137092916312,3147.7758831713
0.374550008874831,3147.7858831713
0.355411245888889,3147.7958831713
0.335718148486279,3147.8058831713
0.317838356748303,3147.8158831713
0.303028558284846,3147.8258831713
0.292015389327886,3147.8358831713
0.285221188429931,3147.8458831713
0.285076637628172,3147.8558831713
0.286705777883342,3147.8658831713
0.284265754140245,3147.8758831713
0.275172457830571,3147.8858831713
0.260579897650303,3147.8958831713
0.242594801218668,3147.9058831713
0.224262162279907,3147.9158831713
0.210853827200289,3147.9258831713
0.200617364283872,3147.9358831713
0.191455112032735,3147.9458831713
0.182759982127319,3147.9558831713
0.176601394395206,3147.9658831713
0.174769526298448,3147.9758831713
0.177879088338363,3147.9858831713
0.187736982634442,3147.9958831713
0.200658466085998,3148.0058831713
0.211340015777828,3148.0158831713
0.217921422365824,3148.0258831713
0.220612732575766,3148.0358831713
0.220614407427407,3148.0458831713
0.218758154633124,3148.0558831713
0.219845403547328,3148.0658831713
0.219331177537329,3148.0758831713
0.214163703071476,3148.0858831713
0.20369861853274,3148.0958831713
0.189452742783502,3148.1058831713
0.174196225453581,3148.1158831713
0.160145469788745,3148.1258831713
0.150386558701663,3148.1358831713
0.142797385850344,3148.1458831713
0.13301493224072,3148.1558831713
0.120506305333944,3148.1658831713
0.106362104742265,3148.1758831713
0.0922920309611642,3148.1858831713
0.0800859689180008,3148.1958831713
0.07311690605301,3148.2058831713
0.067503087782665,3148.2158831713
0.0599846798675939,3148.2258831713
0.0488746646687824,3148.2358831713
0.0356895999349391,3148.2458831713
0.0222743726866168,3148.2558831713
0.0097337536232953,3148.2658831713
0.00232285354501292,3148.2758831713
-0.00384482361285446,3148.2858831713
-0.0117693605633717,3148.2958831713
-0.0230192329059824,3148.3058831713
-0.0367091528570467,3148.3158831713
-0.0502936404807303,3148.3258831713
-0.0630583054849299,3148.3358831713
-0.0709432132985604,3148.3458831713
-0.0778543330615333,3148.3558831713
-0.0861946858886667,3148.3658831713
-0.097903121394071,3148.3758831713
-0.1118527532385,3148.3858831713
-0.12654870587266,3148.3958831713
-0.139820101944606,3148.4058831713
-0.148262858203371,3148.4158831713
-0.155126649756852,3148.4258831713
-0.163576965674446,3148.4358831713
-0.175338871691591,3148.4458831713
-0.188399234616528,3148.4558831713
-0.20198814581768,3148.4658831713
-0.213243421775297,3148.4758831713
-0.219112451716518,3148.4858831713
-0.223566484203764,3148.4958831713
-0.230129208028311,3148.5058831713
-0.241987437290353,3148.5158831713
-0.255849874667094,3148.5258831713
-0.269081232245585,3148.5358831713
-0.274782243171843,3148.5458831713
-0.2621128756208,3148.5558831713
-0.222958325554289,3148.5658831713
-0.152925009162605,3148.5758831713
-0.0530369165010978,3148.5858831713
0.0658010539364293,3148.5958831713
0.186986324781289,3148.6058831713
0.296049809232277,3148.6158831713
0.385837503473315,3148.6258831713
0.449319080972713,3148.6358831713
0.485180990249832,3148.6458831713
0.498146030676959,3148.6558831713
0.494570300332982,3148.6658831713
0.481325359722312,3148.6758831713
0.464374752432042,3148.6858831713
0.449196270401075,3148.6958831713
0.434195790753059,3148.7058831713
0.417153857134475,3148.7158831713
0.39710293812483,3148.7258831713
0.376020994756948,3148.7358831713
0.356746399543181,3148.7458831713
0.341551761013213,3148.7558831713
0.334039001920892,3148.7658831713
0.330206036466241,3148.7758831713
0.325763966755665,3148.7858831713
0.319835988719212,3148.7958831713
0.311775372466832,3148.8058831713
0.303154572697374,3148.8158831713
0.294008324028814,3148.8258831713
0.284550944371072,3148.8358831713
0.274739911129488,3148.8458831713
0.267259735386646,3148.8558831713
0.258838504563964,3148.8658831713
0.245691034127044,3148.8758831713
0.229096410212757,3148.8858831713
0.212905352808732,3148.8958831713
0.200060057603948,3148.9058831713
0.193137750637601,3148.9158831713
0.196064457551339,3148.9258831713
0.203812687503807,3148.9358831713
0.211157967743814,3148.9458831713
0.21658707040695,3148.9558831713
0.219839613130618,3148.9658831713
0.222501797083962,3148.9758831713
0.225741336162863,3148.9858831713
0.233502531514874,3148.9958831713
0.240958860621695,3149.0058831713
0.243352504001803,3149.0158831713
0.23957254955328,3149.0258831713
0.230593614370201,3149.0358831713
0.220040122421872,3149.0458831713
0.208800606041794,3149.0558831713
0.201862254917486,3149.0658831713
0.196169318140493,3149.0758831713
0.187647410036491,3149.0858831713
0.175350018745227,3149.0958831713
0.160278470557287,3149.1058831713
0.14486685419812,3149.1158831713
0.130989604431334,3149.1258831713
0.123465105284787,3149.1358831713
0.117510539294238,3149.1458831713
0.109905647871054,3149.1558831713
0.0980256270846411,3149.1658831713
0.0830638993315902,3149.1758831713
0.0680695935951539,3149.1858831713
0.0543721213849537,3149.1958831713
0.046544684320331,3149.2058831713
0.0408986078539058,3149.2158831713
0.0328080581249426,3149.2258831713
0.020821694974176,3149.2358831713
0.00681894166226521,3149.2458831713
-0.00745685192676835,3149.2558831713
-0.0203909299263602,3149.2658831713
-0.0275521171829586,3149.2758831713
-0.0327134623214989,3149.2858831713
-0.0403821792959171,3149.2958831713
-0.0515100798720994,3149.3058831713
-0.0653831965971541,3149.3158831713
-0.0795229426178304,3149.3258831713
-0.0928816077461636,3149.3358831713
-0.100174616224165,3149.3458831713
-0.106141603918657,3149.3558831713
-0.114991160323534,3149.3658831713
-0.12768874291305,3149.3758831713
-0.14337030935417,3149.3858831713
-0.159320631119443,3149.3958831713
-0.173566031104747,3149.4058831713
-0.181373254142351,3149.4158831713
-0.186783027075123,3149.4258831713
-0.193660320943954,3149.4358831713
-0.203715703059458,3149.4458831713
-0.215976006199857,3149.4558831713
-0.228169925733671,3149.4658831713
-0.238364051909901,3149.4758831713
-0.244016417280553,3149.4858831713
-0.248807352150747,3149.4958831713
-0.256350653001562,3149.5058831713
-0.268217693109386,3149.5158831713
-0.280527157563873,3149.5258831713
-0.288466263244987,3149.5358831713
-0.283408654091012,3149.5458831713
-0.250841128738552,3149.5558831713
-0.183861807997704,3149.5658831713
-0.0843502659518043,3149.5758831713
0.0375054791019232,3149.5858831713
0.165059108319842,3149.5958831713
0.282769617187744,3149.6058831713
0.378477560454696,3149.6158831713
0.450257656566909,3149.6258831713
0.496672551449645,3149.6358831713
0.518815635053944,3149.6458831713
0.521883131313374,3149.6558831713
0.512060279576194,3149.6658831713
0.495528034483315,3149.6758831713
0.475594679617955,3149.6858831713
0.45789638241247,3149.6958831713
0.439990534496933,3149.7058831713
0.420145803079351,3149.7158831713
0.397803845739203,3149.7258831713
0.374876505582177,3149.7358831713
0.354072855573866,3149.7458831713
0.337438897023102,3149.7558831713
0.328897954505777,3149.7658831713
0.323917113458232,3149.7758831713
0.318481516049382,3149.7858831713
0.309773591465422,3149.7958831713
0.298638295412123,3149.8058831713
0.286414197833759,3149.8158831713
0.273938454161517,3149.8258831713
0.261161538432325,3149.8358831713
0.248093040891212,3149.8458831713
0.238171511162445,3149.8558831713
0.227989175087136,3149.8658831713
0.216117957954022,3149.8758831713
0.202601025458961,3149.8858831713
0.190570847792994,3149.8958831713
0.183211708916056,3149.9058831713
0.182243638195363,3149.9158831713
0.189999826782145,3149.9258831713
0.202123016212493,3149.9358831713
0.213823664089839,3149.9458831713
0.222060431021656,3149.9558831713
0.227854048486477,3149.9658831713
0.231745516027113,3149.9758831713
0.234444985522922,3149.9858831713
0.240177876193629,3149.9958831713
0.243932579551725,3150.0058831713
0.242604756844466,3150.0158831713
0.235240150567318,3150.0258831713
0.222972084906517,3150.0358831713
0.208499651399721,3150.0458831713
0.194261850238826,3150.0558831713
0.185099946829826,3150.0658831713
0.177502300703421,3150.0758831713
0.167691216967418,3150.0858831713
0.154181314682409,3150.0958831713
0.138902405927818,3150.1058831713
0.122913714218772,3150.1158831713
0.109163459976221,3150.1258831713
0.10155318894485,3150.1358831713
0.0957618491447711,3150.1458831713
0.0883427328125175,3150.1558831713
0.0769870136202346,3150.1658831713
0.0627298610448311,3150.1758831713
0.0483337117075385,3150.1858831713
0.0354019327949242,3150.1958831713
0.0273964999574934,3150.2058831713
0.0210270550523854,3150.2158831713
0.0127122482033555,3150.2258831713
0.00134240467127898,3150.2358831713
-0.0125497384223079,3150.2458831713
-0.0265364201436546,3150.2558831713
-0.0396973666005813,3150.2658831713
-0.0478442049849173,3150.2758831713
-0.0553616301167282,3150.2858831713
-0.0651239210584232,3150.2958831713
-0.0775065180689176,3150.3058831713
-0.0918753263558451,3150.3158831713
-0.10663658676899,3150.3258831713
-0.119661142521123,3150.3358831713
-0.12877775596675,3150.3458831713
-0.136411881388875,3150.3558831713
-0.146355881955442,3150.3658831713
-0.159447568839396,3150.3758831713
-0.174681410145783,3150.3858831713
-0.189665874435153,3150.3958831713
-0.202742567049139,3150.4058831713
-0.210192609819617,3150.4158831713
-0.215182844873051,3150.4258831713
-0.222414058309992,3150.4358831713
-0.234175543792284,3150.4458831713
-0.249137581949367,3150.4558831713
-0.264704353627013,3150.4658831713
-0.279221419248625,3150.4758831713
-0.288326038549384,3150.4858831713
-0.294957749936183,3150.4958831713
-0.301186668095297,3150.5058831713
-0.303110826195779,3150.5158831713
-0.29085846074118,3150.5258831713
-0.250153911534164,3150.5358831713
-0.171321560746447,3150.5458831713
-0.0527232446266163,3150.5558831713
0.086874161915284,3150.5658831713
0.223422533048849,3150.5758831713
0.338765724776848,3150.5858831713
0.423089745123892,3150.5958831713
0.476851384800052,3150.6058831713
0.504778129684809,3150.6158831713
0.517085374768921,3150.6258831713
0.517012561486964,3150.6358831713
0.505306095324595,3150.6458831713
0.484841278031886,3150.6558831713
0.458349759312027,3150.6658831713
0.42967624701054,3150.6758831713
0.401626263306047,3150.6858831713
0.378639052535559,3150.6958831713
0.358218994425465,3150.7058831713
0.336988403542702,3150.7158831713
0.314555251650895,3150.7258831713
0.29178676294662,3150.7358831713
0.271218889149303,3150.7458831713
0.254187371168464,3150.7558831713
0.243788202138297,3150.7658831713
0.235150571229583,3150.7758831713
0.223417743714391,3150.7858831713
0.20688645627102,3150.7958831713
0.185649304378253,3150.8058831713
0.161649370574143,3150.8158831713
0.137552399663184,3150.8258831713
0.116709852291423,3150.8358831713
0.101977691684419,3150.8458831713
0.0980881808459166,3150.8558831713
0.10237099312468,3150.8658831713
0.111616378476344,3150.8758831713
0.122663813047066,3150.8858831713
0.136086440347717,3150.8958831713
0.152614873586134,3150.9058831713
0.171740958400789,3150.9158831713
0.194205662718722,3150.9258831713
0.214853500107858,3150.9358831713
0.229041224500329,3150.9458831713
0.235359937833917,3150.9558831713
0.233580151416905,3150.9658831713
0.226258642842791,3150.9758831713
0.215219542664255,3150.9858831713
0.205578934481201,3150.9958831713
0.19437064676285,3151.0058831713
0.17988378427147,3151.0158831713
0.160602776946963,3151.0258831713
0.139494198768353,3151.0358831713
0.11924476212505,3151.0458831713
0.10160557472002,3151.0558831713
0.0906812108881389,3151.0658831713
0.0828438504845736,3151.0758831713
0.0744676687529957,3151.0858831713
0.0642722826604274,3151.0958831713
0.0528031463702481,3151.1058831713
0.0416834475423064,3151.1158831713
0.03275409714084,3151.1258831713
0.0299174844130483,3151.1358831713
0.0288146394178756,3151.1458831713
0.0255116834169049,3151.1558831713
0.0173070068495113,3151.1658831713
0.00623121748446803,3151.1758831713
-0.00583035884301866,3151.1858831713
-0.0169834502659914,3151.1958831713
-0.0227258599963149,3151.2058831713
-0.0266454317920889,3151.2158831713
-0.0327077470574992,3151.2258831713
-0.0422342482626524,3151.2358831713
-0.0545905310227167,3151.2458831713
-0.0678882614907121,3151.2558831713
-0.0804483498294653,3151.2658831713
-0.0883054278071044,3151.2758831713
-0.0939792711313742,3151.2858831713
-0.102255277208591,3151.2958831713
-0.114528796236064,3151.3058831713
-0.129189079407127,3151.3158831713
-0.143827167315461,3151.3258831713
-0.157161560213769,3151.3358831713
-0.165322867938186,3151.3458831713
-0.171648451192958,3151.3558831713
-0.180542197836815,3151.3658831713
-0.193695366956291,3151.3758831713
-0.209238632136593,3151.3858831713
-0.225067089463958,3151.3958831713
-0.236389419895118,3151.4058831713
-0.235131033629993,3151.4158831713
-0.215711220409455,3151.4258831713
-0.171260846756773,3151.4358831713
-0.0965710058900857,3151.4458831713
0.00739184643358496,3151.4558831713
0.127976381625293,3151.4658831713
0.249187810812914,3151.4758831713
0.357639565794196,3151.4858831713
0.441841820139486,3151.4958831713
0.496903627878058,3151.5058831713
0.52573250107956,3151.5158831713
0.534575020436763,3151.5258831713
0.529887452825686,3151.5358831713
0.518538959424108,3151.5458831713
0.506151864706457,3151.5558831713
0.49070431127062,3151.5658831713
0.470701419845819,3151.5758831713
0.446196049458047,3151.5858831713
0.419264213905959,3151.5958831713
0.393224124090695,3151.6058831713
0.370344986177951,3151.6158831713
0.354574343339913,3151.6258831713
0.343018807368099,3151.6358831713
0.332773597625428,3151.6458831713
0.321089889333342,3151.6558831713
0.308739561109333,3151.6658831713
0.296251864509696,3151.6758831713
0.284020762426869,3151.6858831713
0.275183628835203,3151.6958831713
0.265201837037244,3151.7058831713
0.25026756661894,3151.7158831713
0.229799604205796,3151.7258831713
0.207734140637713,3151.7358831713
0.188226452054696,3151.7458831713
0.175448132433816,3151.7558831713
0.174059982020469,3151.7658831713
0.180329020029545,3151.7758831713
0.189937471134457,3151.7858831713
0.199881986253674,3151.7958831713
0.209863077513232,3151.8058831713
0.219579342720685,3151.8158831713
0.229804338009601,3151.8258831713
0.238943627965411,3151.8358831713
0.247029767700345,3151.8458831713
0.255834661578958,3151.8558831713
0.260806139005354,3151.8658831713
0.259177436635949,3151.8758831713
0.249449214176238,3151.8858831713
0.233895911590928,3151.8958831713
0.216366517787441,3151.9058831713
0.199264192513483,3151.9158831713
0.187053262180981,3151.9258831713
0.176639320001271,3151.9358831713
0.164420387133264,3151.9458831713
0.149117112060815,3151.9558831713
0.132623571503968,3151.9658831713
0.117161985193691,3151.9758831713
0.10440428154967,3151.9858831713
0.0977228156611324,3151.9958831713
0.093720618052385,3152.0058831713
0.0877043126037575,3152.0158831713
0.0783621670959598,3152.0258831713
0.0664188809021825,3152.0358831713
0.0538394255098844,3152.0458831713
0.0427677698692265,3152.0558831713
0.0366049399489934,3152.0658831713
0.031631780554263,3152.0758831713
0.0243210875691936,3152.0858831713
0.01313689080652,3152.0958831713
-0.000192408006992259,3152.1058831713
-0.013559165491483,3152.1158831713
-0.0251881382759924,3152.1258831713
-0.0319293016217865,3152.1358831713
-0.0374756857435111,3152.1458831713
-0.0460876368916432,3152.1558831713
-0.0589405454375963,3152.1658831713
-0.0740111009031407,3152.1758831713
-0.0895739987224445,3152.1858831713
-0.103197391996843,3152.1958831713
-0.111958958865913,3152.2058831713
-0.118921338889111,3152.2158831713
-0.12821997318607,3152.2258831713
-0.141140604825366,3152.2358831713
-0.156411811027489,3152.2458831713
-0.171772716747634,3152.2558831713
-0.185361342854467,3152.2658831713
-0.193541202415255,3152.2758831713
-0.199539487811269,3152.2858831713
-0.20627775627657,3152.2958831713
-0.216443998552557,3152.3058831713
-0.228558618723561,3152.3158831713
-0.241388088384802,3152.3258831713
-0.253645008293594,3152.3358831713
-0.260538384075589,3152.3458831713
-0.265259712594974,3152.3558831713
-0.269453931894725,3152.3658831713
-0.268050188293316,3152.3758831713
-0.248727498767212,3152.3858831713
-0.197213427749903,3152.3958831713
-0.107458444669716,3152.4058831713
0.0177749270326504,3152.4158831713
0.157568779193097,3152.4258831713
0.288663692752743,3152.4358831713
0.394878251011779,3152.4458831713
0.470150225403596,3152.4558831713
0.516164798674359,3152.4658831713
0.539761559173567,3152.4758831713
0.551377493263806,3152.4858831713
0.553070956219264,3152.4958831713
0.544139581623534,3152.5058831713
0.526586805540751,3152.5158831713
0.503186910185521,3152.5258831713
0.477880586299478,3152.5358831713
0.45430369380037,3152.5458831713
0.437051883463002,3152.5558831713
0.423539873920709,3152.5658831713
0.410696074233914,3152.5758831713
0.395872799571248,3152.5858831713
0.38088019239043,3152.5958831713
0.367596553555993,3152.6058831713
0.35724843918254,3152.6158831713
0.353457460178509,3152.6258831713
0.35232388885883,3152.6358831713
0.349124301453599,3152.6458831713
0.341741393580303,3152.6558831713
0.330027136490585,3152.6658831713
0.315767616347857,3152.6758831713
0.299542066277829,3152.6858831713
0.287213911996909,3152.6958831713
0.276246387883187,3152.7058831713
0.264651070335536,3152.7158831713
0.252925429306789,3152.7258831713
0.243018507415919,3152.7358831713
0.237296702202319,3152.7458831713
0.236594708111291,3152.7558831713
0.243469526824096,3152.7658831713
0.254281046442898,3152.7758831713
0.26313875124515,3152.7858831713
0.268860291365679,3152.7958831713
0.271400210519613,3152.8058831713
0.271684654101367,3152.8158831713
0.270761709596447,3152.8258831713
0.269231160008873,3152.8358831713
0.266311889817507,3152.8458831713
0.266038350982031,3152.8558831713
0.264366248330203,3152.8658831713
0.25879340438164,3152.8758831713
0.247798474434713,3152.8858831713
0.233334807365517,3152.8958831713
0.21806484637086,3152.9058831713
0.204228278200041,3152.9158831713
0.195304380672386,3152.9258831713
0.187836834388194,3152.9358831713
0.178749351105954,3152.9458831713
0.16730442344899,3152.9558831713
0.153780084002395,3152.9658831713
0.140125810481284,3152.9758831713
0.127887675684624,3152.9858831713
0.121180537989432,3152.9958831713
0.115837043825952,3153.0058831713
0.10860323377479,3153.0158831713
0.0975790516443537,3153.0258831713
0.0843504873191045,3153.0358831713
0.0711756863436306,3153.0458831713
0.0587181948681773,3153.0558831713
0.0510753671907301,3153.0658831713
0.0448515675476145,3153.0758831713
0.036267489382634,3153.0858831713
0.024010778263542,3153.0958831713
0.00935344941515671,3153.1058831713
-0.00555373728115129,3153.1158831713
-0.0193496283798104,3153.1258831713
-0.0276207338799405,3153.1358831713
-0.0346103123822078,3153.1458831713
-0.0436696483618791,3153.1558831713
-0.0562303414095309,3153.1658831713
-0.071557716311869,3153.1758831713
-0.0873056721173349,3153.1858831713
-0.101621810598932,3153.1958831713
-0.110779440453897,3153.2058831713
-0.118690328395383,3153.2158831713
-0.128046392487107,3153.2258831713
-0.140221961320314,3153.2358831713
-0.153889725843065,3153.2458831713
-0.166829879681012,3153.2558831713
-0.178480748033449,3153.2658831713
-0.185575656429762,3153.2758831713
-0.19212810253537,3153.2858831713
-0.20197069010103,3153.2958831713
-0.216236260061101,3153.3058831713
-0.231749113443838,3153.3158831713
-0.244427976019593,3153.3258831713
-0.245343615466752,3153.3358831713
-0.221845436436964,3153.3458831713
-0.166274374547056,3153.3558831713
-0.0760092783871299,3153.3658831713
0.0408796297442861,3153.3758831713
0.169508315823193,3153.3858831713
0.292829869785329,3153.3958831713
0.397418700767466,3153.4058831713
0.479736344163174,3153.4158831713
0.534943864140599,3153.4258831713
0.563925269847993,3153.4358831713
0.571425323274477,3153.4458831713
0.564560148338918,3153.4558831713
0.549186519334909,3153.4658831713
0.529879879808467,3153.4758831713
0.51243286686539,3153.4858831713
0.494302090411406,3153.4958831713
0.474017738287479,3153.5058831713
0.450965575918269,3153.5158831713
0.427491548033186,3153.5258831713
0.405451345915766,3153.5358831713
0.387609074539368,3153.5458831713
0.377087547846126,3153.5558831713
0.37015137726241,3153.5658831713
0.362386349385907,3153.5758831713
0.352700144799448,3153.5858831713
0.340869250748323,3153.5958831713
0.328645628999016,3153.6058831713
0.316352521614422,3153.6158831713
0.307211463516572,3153.6258831713
0.296955532162233,3153.6358831713
0.282592981500461,3153.6458831713
0.263717244063167,3153.6558831713
0.244078487158129,3153.6658831713
0.226863890714776,3153.6758831713
0.216607784864176,3153.6858831713
0.217549670359538,3153.6958831713
0.225385449659078,3153.7058831713
0.235374595192294,3153.7158831713
0.24437575927275,3153.7258831713
0.252794896731659,3153.7358831713
0.260571706522232,3153.7458831713
0.268694785873196,3153.7558831713
0.279185786295064,3153.7658831713
0.288423888123222,3153.7758831713
0.291904405336665,3153.7858831713
0.288349711390329,3153.7958831713
0.279126190947352,3153.8058831713
0.266801711332803,3153.8158831713
0.253530486536248,3153.8258831713
0.240411451017774,3153.8358831713
0.227675898640886,3153.8458831713
0.219102654732892,3153.8558831713
0.210782212966821,3153.8658831713
0.200130402682465,3153.8758831713
0.186299022243766,3153.8858831713
0.170288839045682,3153.8958831713
0.154231209814241,3153.9058831713
0.139470993693892,3153.9158831713
0.130736528087713,3153.9258831713
0.124860048008454,3153.9358831713
0.116652582859002,3153.9458831713
0.105423942688442,3153.9558831713
0.0915999647833825,3153.9658831713
0.077455958534031,3153.9758831713
0.0652409706595224,3153.9858831713
0.0570108393502746,3153.9958831713
0.0504485581068504,3154.0058831713
0.0423510631917717,3154.0158831713
0.0306268775954307,3154.0258831713
0.0175613288793881,3154.0358831713
0.00361880535116309,3154.0458831713
-0.00838615066956311,3154.0558831713
-0.0157581938426791,3154.0658831713
-0.0219755122862906,3154.0758831713
-0.0302618475351494,3154.0858831713
-0.0429102596932831,3154.0958831713
-0.0577340162730836,3154.1058831713
-0.0731140278863019,3154.1158831713
-0.0875373477057256,3154.1258831713
-0.0968770262151289,3154.1358831713
-0.104997469852557,3154.1458831713
-0.114553344807431,3154.1558831713
-0.12668339655463,3154.1658831713
-0.141205885693507,3154.1758831713
-0.156626950957383,3154.1858831713
-0.171673065790616,3154.1958831713
-0.182853096362389,3154.2058831713
-0.192375473698252,3154.2158831713
-0.202819621130032,3154.2258831713
-0.210937034983367,3154.2358831713
-0.206944940250577,3154.2458831713
-0.179116206217648,3154.2558831713
-0.116463869156098,3154.2658831713
-0.0156363757386857,3154.2758831713
0.109110549494324,3154.2858831713
0.237530278809162,3154.2958831713
0.351091522884186,3154.3058831713
0.438619239139822,3154.3158831713
0.497685767330396,3154.3258831713
0.532093939235403,3154.3358831713
0.550752571948038,3154.3458831713
0.556198319047126,3154.3558831713
0.54890437650957,3154.3658831713
0.530487482482174,3154.3758831713
0.504865201798661,3154.3858831713
0.476516550889171,3154.3958831713
0.448073127248269,3154.4058831713
0.424021500780851,3154.4158831713
0.402307652662957,3154.4258831713
0.380051323616003,3154.4358831713
0.356866971592273,3154.4458831713
0.333664551244065,3154.4558831713
0.312768885538143,3154.4658831713
0.295855060877479,3154.4758831713
0.285462516160839,3154.4858831713
0.277399483657479,3154.4958831713
0.266181661019478,3154.5058831713
0.249240899219793,3154.5158831713
0.22679205335669,3154.5258831713
0.202863263742462,3154.5358831713
0.180595667729311,3154.5458831713
0.166656518183033,3154.5558831713
0.159562513071126,3154.5658831713
0.157027078216031,3154.5758831713
0.157198029281898,3154.5858831713
0.162088763731254,3154.5958831713
0.173097871132688,3154.6058831713
0.189728145894789,3154.6158831713
0.214465199831254,3154.6258831713
0.240998131710264,3154.6358831713
0.262807641620687,3154.6458831713
0.276586018829704,3154.6558831713
0.282215000412976,3154.6658831713
0.281821508006389,3154.6758831713
0.277466827872108,3154.6858831713
0.273300408460595,3154.6958831713
0.266632699903741,3154.7058831713
0.254547514569318,3154.7158831713
0.236649144799309,3154.7258831713
0.215178810639956,3154.7358831713
0.192854146506576,3154.7458831713
0.173134907952431,3154.7558831713
0.159654778609065,3154.7658831713
0.149670039301263,3154.7758831713
0.139254433043614,3154.7858831713
0.126378126402615,3154.7958831713
0.112536283592053,3154.8058831713
0.0996189946241839,3154.8158831713
0.0878834192491958,3154.8258831713
0.0790912071308902,3154.8358831713
0.072159679884685,3154.8458831713
0.0706846416242422,3154.8558831713
0.0699438718496008,3154.8658831713
0.0664955621165839,3154.8758831713
0.0588407881557771,3154.8858831713
0.0477163728107466,3154.8958831713
0.0359538064161492,3154.9058831713
0.0253537433149265,3154.9158831713
0.0196428869518963,3154.9258831713
0.0161344466791798,3154.9358831713
0.00974783021565835,3154.9458831713
-0.000643791326359483,3154.9558831713
-0.013709713634752,3154.9658831713
-0.0274457756516541,3154.9758831713
-0.0389154359856632,3154.9858831713
-0.0450591344323632,3154.9958831713
-0.0494015020033339,3155.0058831713
-0.0565585381088083,3155.0158831713
-0.0687092390750442,3155.0258831713
-0.0845251919356101,3155.0358831713
-0.101987455449375,3155.0458831713
-0.118859238386854,3155.0558831713
-0.130691184927964,3155.0658831713
-0.138350761564773,3155.0758831713
-0.140657230356489,3155.0858831713
-0.131428660331123,3155.0958831713
-0.0986917651520666,3155.1058831713
-0.0342250060108992,3155.1158831713
0.0617380048616608,3155.1258831713
0.179508686313472,3155.1358831713
0.300240745620538,3155.1458831713
0.405352480100629,3155.1558831713
0.484503898942406,3155.1658831713
0.537118387466331,3155.1758831713
0.566693838956415,3155.1858831713
0.579240038550909,3155.1958831713
0.58405692427781,3155.2058831713
0.581195696944467,3155.2158831713
0.569395117535663,3155.2258831713
0.550018900576292,3155.2358831713
0.526142380720285,3155.2458831713
0.501606346428909,3155.2558831713
0.479340181136206,3155.2658831713
0.463469177794686,3155.2758831713
0.451839653632092,3155.2858831713
0.440405675564059,3155.2958831713
0.428234139286803,3155.3058831713
0.416145332490903,3155.3158831713
0.405465995381912,3155.3258831713
0.3979457956705,3155.3358831713
0.396400185977563,3155.3458831713
0.395078418247349,3155.3558831713
0.389365693683067,3155.3658831713
0.377105798978547,3155.3758831713
0.358983450878094,3155.3858831713
0.338477973892432,3155.3958831713
0.31932683205914,3155.4058831713
0.306377249395813,3155.4158831713
0.298534086784302,3155.4258831713
0.29374256739462,3155.4358831713
0.290256177531489,3155.4458831713
0.288907426417395,3155.4558831713
0.290658675166593,3155.4658831713
0.296349272722335,3155.4758831713
0.307841153509839,3155.4858831713
0.320976047094504,3155.4958831713
0.330374268137564,3155.5058831713
0.334411779158058,3155.5158831713
0.333764471460401,3155.5258831713
0.329972523063975,3155.5358831713
0.324988173179512,3155.5458831713
0.321962778954024,3155.5558831713
0.318195979732111,3155.5658831713
0.310291703006647,3155.5758831713
0.297776352877775,3155.5858831713
0.281983050990984,3155.5958831713
0.265479428818156,3155.6058831713
0.250580048016557,3155.6158831713
0.240717515905658,3155.6258831713
0.232858808820223,3155.6358831713
0.223124766891943,3155.6458831713
0.210163635762737,3155.6558831713
0.195416092793882,3155.6658831713
0.180577182662742,3155.6758831713
0.167622831954398,3155.6858831713
0.160080386584156,3155.6958831713
0.154081618798791,3155.7058831713
0.146602744732256,3155.7158831713
0.135683667179246,3155.7258831713
0.122360895616738,3155.7358831713
0.109087337947929,3155.7458831713
0.0972772684337314,3155.7558831713
0.0899254188020035,3155.7658831713
0.0838844031311289,3155.7758831713
0.0752821137076255,3155.7858831713
0.0627900639630233,3155.7958831713
0.0482940667468323,3155.8058831713
0.0332061176760197,3155.8158831713
0.0190999506209809,3155.8258831713
0.00708695258714797,3155.8358831713
-0.00280597461746984,3155.8458831713
-0.00790683635703196,3155.8558831713
-0.0124550452599467,3155.8658831713
-0.0203125934378743,3155.8758831713
-0.0328048440443747,3155.8858831713
-0.0486803276042684,3155.8958831713
-0.0641968339533584,3155.9058831713
-0.0772834334212429,3155.9158831713
-0.0846223164526211,3155.9258831713
-0.0889996202339105,3155.9358831713
-0.0955524768774522,3155.9458831713
-0.106421152161565,3155.9558831713
-0.120095445195547,3155.9658831713
-0.134225952476723,3155.9758831713
-0.147307626365168,3155.9858831713
-0.15617326046668,3155.9958831713
-0.163161834228696,3156.0058831713
-0.171075182628173,3156.0158831713
-0.179872554893276,3156.0258831713
-0.183231237579129,3156.0358831713
-0.171722240510007,3156.0458831713
-0.132454860940281,3156.0558831713
-0.0552419280745424,3156.0658831713
0.0533217004441712,3156.0758831713
0.177432704168666,3156.0858831713
0.298097145782018,3156.0958831713
0.401694754748593,3156.1058831713
0.481425508640868,3156.1158831713
0.536169418232765,3156.1258831713
0.573201972538768,3156.1358831713
0.593193984997682,3156.1458831713
0.597841375153214,3156.1558831713
0.589053455965511,3156.1658831713
0.571576950921622,3156.1758831713
0.549859360041386,3156.1858831713
0.527572895104757,3156.1958831713
0.510448194246576,3156.2058831713
0.496509392847322,3156.2158831713
0.481960516852181,3156.2258831713
0.465170032180012,3156.2358831713
0.448470508117921,3156.2458831713
0.433574981692159,3156.2558831713
0.422927219791725,3156.2658831713
0.418794609938407,3156.2758831713
0.417881489772971,3156.2858831713
0.415586076622602,3156.2958831713
0.410383993558672,3156.3058831713
0.401626800943007,3156.3158831713
0.390583130840737,3156.3258831713
0.37760004114866,3156.3358831713
0.367583329714011,3156.3458831713
0.357216770931874,3156.3558831713
0.343848684131374,3156.3658831713
0.328081695907436,3156.3758831713
0.312058537279366,3156.3858831713
0.300294458239689,3156.3958831713
0.294045490464008,3156.4058831713
0.296553754845957,3156.4158831713
0.303099081474162,3156.4258831713
0.309868384663679,3156.4358831713
0.314491163024873,3156.4458831713
0.317739746965416,3156.4558831713
0.31988122974546,3156.4658831713
0.322117556071827,3156.4758831713
0.327237681121974,3156.4858831713
0.332201215302472,3156.4958831713
0.332746337995144,3156.5058831713
0.327058605891512,3156.5158831713
0.317122778731692,3156.5258831713
0.305693467266109,3156.5358831713
0.29428230800733,3156.5458831713
0.287261817905364,3156.5558831713
0.281447097242031,3156.5658831713
0.272752729384583,3156.5758831713
0.259988120638136,3156.5858831713
0.244389372621082,3156.5958831713
0.228355847611857,3156.6058831713
0.21486407291877,3156.6158831713
0.206933395341806,3156.6258831713
0.201530339976608,3156.6358831713
0.193729396584967,3156.6458831713
0.181604982881037,3156.6558831713
0.166949665717086,3156.6658831713
0.151495941126063,3156.6758831713
0.138321843011424,3156.6858831713
0.13066497073658,3156.6958831713
0.124177770463951,3156.7058831713
0.115026357720422,3156.7158831713
0.103067900152322,3156.7258831713
0.0881834449785696,3156.7358831713
0.0728194185094148,3156.7458831713
0.0590330386462007,3156.7558831713
0.0498142019284145,3156.7658831713
0.0419557119196338,3156.7758831713
0.031995854141064,3156.7858831713
0.0195924971603413,3156.7958831713
0.00542269271730994,3156.8058831713
-0.00923758779088753,3156.8158831713
-0.0233151771756767,3156.8258831713
-0.0361353805387253,3156.8358831713
-0.0470572336350051,3156.8458831713
-0.053206113147167,3156.8558831713
-0.0582830110383825,3156.8658831713
-0.0665319788793804,3156.8758831713
-0.0790133716739835,3156.8858831713
-0.0940525270473677,3156.8958831713
-0.108840340491808,3156.9058831713
-0.121113648957553,3156.9158831713
-0.12836532865361,3156.9258831713
-0.133228377568365,3156.9358831713
-0.139716433064187,3156.9458831713
-0.149316050884349,3156.9558831713
-0.161550779307197,3156.9658831713
-0.174928491756852,3156.9758831713
-0.187022722899742,3156.9858831713
-0.192900548866313,3156.9958831713
-0.193494555366072,3157.0058831713
-0.184619692078285,3157.0158831713
-0.158371430314457,3157.0258831713
-0.102762964202425,3157.0358831713
-0.0140757125201933,3157.0458831713
0.0998920881619849,3157.0558831713
0.225864995016277,3157.0658831713
0.344000071113043,3157.0758831713
0.440251967512392,3157.0858831713
0.509169610628927,3157.0958831713
0.551581262529474,3157.1058831713
0.572797334578475,3157.1158831713
0.579925481291504,3157.1258831713
0.58061580647297,3157.1358831713
0.575143996441502,3157.1458831713
0.561339726622854,3157.1558831713
0.539993291092215,3157.1658831713
0.515262842584482,3157.1758831713
0.490063850459372,3157.1858831713
0.468002439553399,3157.1958831713
0.453284776784253,3157.2058831713
0.443018557546751,3157.2158831713
0.432941432346377,3157.2258831713
0.421208784763444,3157.2358831713
0.408300372110241,3157.2458831713
0.397070500115919,3157.2558831713
0.387926065775579,3157.2658831713
0.383982349083331,3157.2758831713
0.381284205051494,3157.2858831713
0.374153479260003,3157.2958831713
0.360760741232631,3157.3058831713
0.342621142661269,3157.3158831713
0.322306592051904,3157.3258831713
0.30263047193109,3157.3358831713
0.289590769433672,3157.3458831713
0.281388679608979,3157.3558831713
0.275762544977553,3157.3658831713
0.27246925094001,3157.3758831713
0.270771345059436,3157.3858831713
0.272034026888867,3157.3958831713
0.276710653576461,3157.4058831713
0.288083636686498,3157.4158831713
0.3002702589528,3157.4258831713
0.308907738134068,3157.4358831713
0.311972213937209,3157.4458831713
0.310349931292951,3157.4558831713
0.306144660400439,3157.4658831713
0.300796114566265,3157.4758831713
0.298351890251387,3157.4858831713
0.295261886990382,3157.4958831713
0.288362970939197,3157.5058831713
0.276494294600527,3157.5158831713
0.261412981041133,3157.5258831713
0.245619742630388,3157.5358831713
0.230477461087246,3157.5458831713
0.220342804174179,3157.5558831713
0.211433340559929,3157.5658831713
0.201007794253397,3157.5758831713
0.187220679675849,3157.5858831713
0.171729396896815,3157.5958831713
0.155550016667518,3157.6058831713
0.141076551483976,3157.6158831713
0.131575910157553,3157.6258831713
0.12358577720207,3157.6358831713
0.1133627977633,3157.6458831713
0.0998562991836706,3157.6558831713
0.0842886512096147,3157.6658831713
0.0683079257452174,3157.6758831713
0.05391678756611,3157.6858831713
0.0447008864447304,3157.6958831713
0.0368269482042537,3157.7058831713
0.0270711497967831,3157.7158831713
0.0135190721433876,3157.7258831713
-0.00177777991545344,3157.7358831713
-0.0173603130883158,3157.7458831713
-0.0315995023229745,3157.7558831713
-0.040732194513116,3157.7658831713
-0.0488684027249052,3157.7758831713
-0.0586948149326488,3157.7858831713
-0.0726440171264749,3157.7958831713
-0.0893787655050347,3157.8058831713
-0.106801677694645,3157.8158831713
-0.123396409037784,3157.8258831713
-0.137833618740496,3157.8358831713
-0.149971061879459,3157.8458831713
-0.156813809084152,3157.8558831713
-0.1619347046789,3157.8658831713
-0.17028404373708,3157.8758831713
-0.183762772458906,3157.8858831713
-0.199743118888511,3157.8958831713
-0.216194732732291,3157.9058831713
-0.230289150285607,3157.9158831713
-0.238680430597883,3157.9258831713
-0.244644142790785,3157.9358831713
-0.252162614628818,3157.9458831713
-0.262824539629402,3157.9558831713
-0.275613452624652,3157.9658831713
-0.28937482616843,3157.9758831713
-0.302550366305479,3157.9858831713
-0.31165517211606,3157.9958831713
-0.319744111058795,3158.0058831713
-0.329314174890379,3158.0158831713
-0.339235572333338,3158.0258831713
-0.342740556922432,3158.0358831713
-0.328022444000212,3158.0458831713
-0.280873444705132,3158.0558831713
-0.190415333429521,3158.0658831713
-0.0632608198495077,3158.0758831713
0.0816325361232499,3158.0858831713
0.221395115316177,3158.0958831713
0.339703302637531,3158.1058831713
0.428049276231369,3158.1158831713
0.486470976813862,3158.1258831713
0.522859700956095,3158.1358831713
0.53988120172705,3158.1458831713
0.53955919210911,3158.1558831713
0.525291647367557,3158.1658831713
0.501191793493568,3158.1758831713
0.472710101803905,3158.1858831713
0.443318249720763,3158.1958831713
0.418236292965966,3158.2058831713
0.395122903151556,3158.2158831713
0.369981892321173,3158.2258831713
0.342747078510043,3158.2358831713
0.314908055667598,3158.2458831713
0.288902768351962,3158.2558831713
0.267905947078508,3158.2658831713
0.2545792612086,3158.2758831713
0.245271362890369,3158.2858831713
0.234590760879777,3158.2958831713
0.219773015540234,3158.3058831713
0.200995022044139,3158.3158831713
0.179481576520568,3158.3258831713
0.156667391931159,3158.3358831713
0.138042129075091,3158.3458831713
0.121729753104801,3158.3558831713
0.107396219298143,3158.3658831713
0.0956695871109641,3158.3758831713
0.0886952994262832,3158.3858831713
0.0887288321234219,3158.3958831713
0.0973599135088797,3158.4058831713
0.116555863858053,3158.4158831713
0.141507023726893,3158.4258831713
0.165615004034411,3158.4358831713
0.185570538425414,3158.4458831713
0.200260502708088,3158.4558831713
0.209352818072808,3158.4658831713
0.214550164504241,3158.4758831713
0.218330477250244,3158.4858831713
0.218384939133649,3158.4958831713
0.211302229180901,3158.5058831713
0.196160091589302,3158.5158831713
0.175962521060899,3158.5258831713
0.153437776860271,3158.5358831713
0.132372629381258,3158.5458831713
0.117351136545859,3158.5558831713
0.10529898484856,3158.5658831713
0.0918958043382164,3158.5758831713
0.0764941632206745,3158.5858831713
0.0597501821058804,3158.5958831713
0.043419231010012,3158.6058831713
0.029935424089873,3158.6158831713
0.0221680733605224,3158.6258831713
0.0176984400604425,3158.6358831713
0.0118893700806558,3158.6458831713
0.00302027394027382,3158.6558831713
-0.00771969822028214,3158.6658831713
-0.0187018318046153,3158.6758831713
-0.0282875099372156,3158.6858831713
-0.0321947049432679,3158.6958831713
-0.0343774480530163,3158.7058831713
-0.0395106331551479,3158.7158831713
-0.0494048507827524,3158.7258831713
-0.0627541138409039,3158.7358831713
-0.0769019017482626,3158.7458831713
-0.0900581072369546,3158.7558831713
-0.0981375224729587,3158.7658831713
-0.104911127338988,3158.7758831713
-0.114341110077343,3158.7858831713
-0.127154472886793,3158.7958831713
-0.142877295134406,3158.8058831713
-0.15911567171643,3158.8158831713
-0.174590093779848,3158.8258831713
-0.188086877904088,3158.8358831713
-0.198668360882629,3158.8458831713
-0.203914663574625,3158.8558831713
-0.207815519911042,3158.8658831713
-0.214715701938396,3158.8758831713
-0.225958795280453,3158.8858831713
-0.241548269373069,3158.8958831713
-0.257982368693284,3158.9058831713
-0.27364432263141,3158.9158831713
-0.285277080781551,3158.9258831713
-0.294160458166482,3158.9358831713
-0.299350219996293,3158.9458831713
-0.29452378815184,3158.9558831713
-0.267429346754248,3158.9658831713
-0.206666250450243,3158.9758831713
-0.108883629067482,3158.9858831713
0.0193622798825768,3158.9958831713
0.157138730250563,3159.0058831713
0.281973406214256,3159.0158831713
0.379922743185292,3159.0258831713
0.447107514723857,3159.0358831713
0.486711915483572,3159.0458831713
0.505595186006937,3159.0558831713
0.513513324325306,3159.0658831713
0.511953121918006,3159.0758831713
0.500896926020855,3159.0858831713
0.480838352009068,3159.0958831713
0.454713957816735,3159.1058831713
0.426565564717947,3159.1158831713
0.400462099035683,3159.1258831713
0.380516064040792,3159.1358831713
0.363985584001362,3159.1458831713
0.347271449417101,3159.1558831713
0.328494183757711,3159.1658831713
0.309950611773459,3159.1758831713
0.293002165242477,3159.1858831713
0.28003109501619,3159.1958831713
0.273138211012364,3159.2058831713
0.26731774198984,3159.2158831713
0.258847706787586,3159.2258831713
0.243948257724189,3159.2358831713
0.224085623821906,3159.2458831713
0.201665404689972,3159.2558831713
0.180383235261652,3159.2658831713
0.166040053949183,3159.2758831713
0.156683146579115,3159.2858831713
0.150383920616082,3159.2958831713
0.146009463964589,3159.3058831713
0.145083419468054,3159.3158831713
0.148582009554404,3159.3258831713
0.156666738455474,3159.3358831713
0.171272552814841,3159.3458831713
0.187511110997462,3159.3558831713
0.200866606800108,3159.3658831713
0.208431263324141,3159.3758831713
0.210652119440216,3159.3858831713
0.20925540541261,3159.3958831713
0.205005770073004,3159.4058831713
0.201427485451875,3159.4158831713
0.196270937945007,3159.4258831713
0.18648836388212,3159.4358831713
0.17102205854726,3159.4458831713
0.153090255075655,3159.4558831713
0.134624227806342,3159.4658831713
0.118012280640244,3159.4758831713
0.107757413237277,3159.4858831713
0.0994005268709106,3159.4958831713
0.089520675654432,3159.5058831713
0.0774441980755106,3159.5158831713
0.0630498927772365,3159.5258831713
0.048986047683887,3159.5358831713
