PPG,time
-0.146194522128827,2311.76155372952
-0.295196661162966,2311.77155372952
-0.26849601007444,2311.78155372952
-0.294505213789545,2311.79155372952
-0.290508075234264,2311.80155372952
-0.305282314908452,2311.81155372952
-0.308611330667192,2311.82155372952
-0.320643959074678,2311.83155372952
-0.328988623422069,2311.84155372952
-0.339852536499482,2311.85155372952
-0.348732439228423,2311.86155372952
-0.355115159335186,2311.87155372952
-0.355672736572311,2311.88155372952
-0.343485942616989,2311.89155372952
-0.308147015028328,2311.90155372952
-0.238849705186913,2311.91155372952
-0.131850942632558,2311.92155372952
0.00574553297945418,2311.93155372952
0.15560852741068,2311.94155372952
0.297380579588741,2311.95155372952
0.413707484507406,2311.96155372952
0.496375775596228,2311.97155372952
0.54547529098549,2311.98155372952
0.565993553880962,2311.99155372952
0.565417146388211,2312.00155372952
0.550935596909208,2312.01155372952
0.527614168444515,2312.02155372952
0.499261544755783,2312.03155372952
0.467970563790503,2312.04155372952
0.436075306494629,2312.05155372952
0.403128606864908,2312.06155372952
0.369039678830179,2312.07155372952
0.336603736391072,2312.08155372952
0.309059092545514,2312.09155372952
0.288401815219947,2312.10155372952
0.273558569250857,2312.11155372952
0.262438871782281,2312.12155372952
0.251604911029387,2312.13155372952
0.23853634535729,2312.14155372952
0.222356678333373,2312.15155372952
0.202402084121759,2312.16155372952
0.17961531769034,2312.17155372952
0.156811398027775,2312.18155372952
0.135922104404216,2312.19155372952
0.119720333122395,2312.20155372952
0.110401505384839,2312.21155372952
0.108177635800556,2312.22155372952
0.113145623724633,2312.23155372952
0.124060547251516,2312.24155372952
0.139466905739174,2312.25155372952
0.157409765730821,2312.26155372952
0.174306513088058,2312.27155372952
0.18863063090179,2312.28155372952
0.198640911489701,2312.29155372952
0.204397175732115,2312.30155372952
0.204947672904713,2312.31155372952
0.200750960985186,2312.32155372952
0.190188135715288,2312.33155372952
0.174594095746254,2312.34155372952
0.157614562915696,2312.35155372952
0.141222875804315,2312.36155372952
0.125732452559199,2312.37155372952
0.110226104812108,2312.38155372952
0.0938921272581893,2312.39155372952
0.0760818524159264,2312.40155372952
0.0573194226619013,2312.41155372952
0.0389106676380579,2312.42155372952
0.0202118843627281,2312.43155372952
0.00213452317790072,2312.44155372952
-0.0154755687595464,2312.45155372952
-0.0327378400548559,2312.46155372952
-0.0495867392493319,2312.47155372952
-0.0656189191184887,2312.48155372952
-0.0800561970373483,2312.49155372952
-0.0932910792540657,2312.50155372952
-0.105448014277839,2312.51155372952
-0.117062458499841,2312.52155372952
-0.128251089519445,2312.53155372952
-0.13846397927019,2312.54155372952
-0.148425117665441,2312.55155372952
-0.158713495078526,2312.56155372952
-0.170442109564103,2312.57155372952
-0.18210788382808,2312.58155372952
-0.191995205361148,2312.59155372952
-0.199991396369936,2312.60155372952
-0.206488495390174,2312.61155372952
-0.21260392146474,2312.62155372952
-0.219191288612813,2312.63155372952
-0.226594202257494,2312.64155372952
-0.234310374021913,2312.65155372952
-0.243036394193962,2312.66155372952
-0.251458284674858,2312.67155372952
-0.25995264080315,2312.68155372952
-0.268412324532153,2312.69155372952
-0.276472290850882,2312.70155372952
-0.284095750986566,2312.71155372952
-0.29129145728232,2312.72155372952
-0.298141525826112,2312.73155372952
-0.305456984028716,2312.74155372952
-0.312216235760918,2312.75155372952
-0.319321259085776,2312.76155372952
-0.32708699630851,2312.77155372952
-0.335464657185961,2312.78155372952
-0.344494932018432,2312.79155372952
-0.354178149715855,2312.80155372952
-0.363252563291925,2312.81155372952
-0.368990176279543,2312.82155372952
-0.366393043625646,2312.83155372952
-0.34762621453009,2312.84155372952
-0.301381792488983,2312.85155372952
-0.219236433797538,2312.86155372952
-0.100534284014767,2312.87155372952
0.0434541805938657,2312.88155372952
0.192243897227844,2312.89155372952
0.325857973754291,2312.90155372952
0.429502488700993,2312.91155372952
0.498609779308902,2312.92155372952
0.534698010145798,2312.93155372952
0.544759153759434,2312.94155372952
0.535922532636377,2312.95155372952
0.514028060895307,2312.96155372952
0.483071796531645,2312.97155372952
0.447152368817862,2312.98155372952
0.409861104967536,2312.99155372952
0.372829038205737,2313.00155372952
0.337267095125377,2313.01155372952
0.304436491096173,2313.02155372952
0.275902169023437,2313.03155372952
0.251948658329429,2313.04155372952
0.231061214807626,2313.05155372952
0.213033879425551,2313.06155372952
0.196722171918567,2313.07155372952
0.180176481461216,2313.08155372952
0.162231006168861,2313.09155372952
0.143017708158103,2313.10155372952
0.122445040951321,2313.11155372952
0.101381289664068,2313.12155372952
0.0817667838465105,2313.13155372952
0.0660640713996857,2313.14155372952
0.0564710675592906,2313.15155372952
0.0542409497644661,2313.16155372952
0.0594949312108317,2313.17155372952
0.0722744977979385,2313.18155372952
0.0907580322235536,2313.19155372952
0.113479642808883,2313.20155372952
0.136857718703794,2313.21155372952
0.158066425275239,2313.22155372952
0.173234790635025,2313.23155372952
0.182154350671706,2313.24155372952
0.185222347154248,2313.25155372952
0.183591474212632,2313.26155372952
0.177668620537197,2313.27155372952
0.167922187332506,2313.28155372952
0.154395331776587,2313.29155372952
0.13864808166918,2313.30155372952
0.12064216108559,2313.31155372952
0.101774462291795,2313.32155372952
0.0822107936183764,2313.33155372952
0.0629222482231096,2313.34155372952
0.0442579309825238,2313.35155372952
0.0263265200701332,2313.36155372952
0.00905869727480823,2313.37155372952
-0.00697952148624577,2313.38155372952
-0.0226747503740796,2313.39155372952
-0.0375400702276831,2313.40155372952
-0.0522690655806562,2313.41155372952
-0.0664213465441176,2313.42155372952
-0.0793754516820765,2313.43155372952
-0.0914913799817857,2313.44155372952
-0.102557913455082,2313.45155372952
-0.113019472528417,2313.46155372952
-0.123753945192017,2313.47155372952
-0.134078815824029,2313.48155372952
-0.14368393371364,2313.49155372952
-0.15253134664698,2313.50155372952
-0.160239831853034,2313.51155372952
-0.168320228717036,2313.52155372952
-0.176483728924814,2313.53155372952
-0.1847612641082,2313.54155372952
-0.193079812493628,2313.55155372952
-0.201891763214107,2313.56155372952
-0.211663528231987,2313.57155372952
-0.221334228081913,2313.58155372952
-0.231923379739929,2313.59155372952
-0.243465861513112,2313.60155372952
-0.254533529387544,2313.61155372952
-0.265139613339553,2313.62155372952
-0.275399354751513,2313.63155372952
-0.284909399235994,2313.64155372952
-0.293764058471247,2313.65155372952
-0.302694759461292,2313.66155372952
-0.311908281935618,2313.67155372952
-0.321394766912208,2313.68155372952
-0.332236921934854,2313.69155372952
-0.344498950682751,2313.70155372952
-0.358503433366139,2313.71155372952
-0.373515706606113,2313.72155372952
-0.388653289526188,2313.73155372952
-0.400382752343615,2313.74155372952
-0.400825749532506,2313.75155372952
-0.381282249936203,2313.76155372952
-0.331101985609824,2313.77155372952
-0.243049758741588,2313.78155372952
-0.12021642042254,2313.79155372952
0.0240189293882738,2313.80155372952
0.169026473891016,2313.81155372952
0.29447189236801,2313.82155372952
0.388304716033593,2313.83155372952
0.446659568933492,2313.84155372952
0.473382039260054,2313.85155372952
0.475090569718117,2313.86155372952
0.459245565959451,2313.87155372952
0.432583886481016,2313.88155372952
0.399552531439388,2313.89155372952
0.363411381770144,2313.90155372952
0.325388988426746,2313.91155372952
0.287696957236555,2313.92155372952
0.25138230859201,2313.93155372952
0.217186989717501,2313.94155372952
0.186547270283183,2313.95155372952
0.159721317622522,2313.96155372952
0.136855089300477,2313.97155372952
0.116538307477934,2313.98155372952
0.0982605608339929,2313.99155372952
0.0802393568869268,2314.00155372952
0.0618339345719776,2314.01155372952
0.0426873181820808,2314.02155372952
0.0229576941170173,2314.03155372952
0.00517074518305467,2314.04155372952
-0.00922993076239924,2314.05155372952
-0.0181774920794962,2314.06155372952
-0.020641926284345,2314.07155372952
-0.0158640740007765,2314.08155372952
-0.00481520861048424,2314.09155372952
0.0116236598685479,2314.10155372952
0.0315607217031262,2314.11155372952
0.0527280413230788,2314.12155372952
0.072694078808116,2314.13155372952
0.0895484938027724,2314.14155372952
0.102545739282549,2314.15155372952
0.110912889519069,2314.16155372952
0.114617815997687,2314.17155372952
0.11401892388182,2314.18155372952
0.108807522793558,2314.19155372952
0.0995109293000692,2314.20155372952
0.087036131823089,2314.21155372952
0.072425301119137,2314.22155372952
0.0559614770782272,2314.23155372952
0.0390692284278557,2314.24155372952
0.0219117706539026,2314.25155372952
0.00481059302774811,2314.26155372952
-0.0117635040504626,2314.27155372952
-0.0277717839406866,2314.28155372952
-0.0425490919874223,2314.29155372952
-0.0559157061492383,2314.30155372952
-0.0675025177836862,2314.31155372952
-0.075692356933059,2314.32155372952
-0.0796410920272643,2314.33155372952
-0.077818714210353,2314.34155372952
-0.0695868346302582,2314.35155372952
-0.0570019888596203,2314.36155372952
-0.040695851826464,2314.37155372952
-0.0220581908763065,2314.38155372952
-0.00208881162234306,2314.39155372952
0.0185646765911934,2314.40155372952
0.0389277705700896,2314.41155372952
0.0587254581963396,2314.42155372952
0.0777878298630882,2314.43155372952
0.0952319682925655,2314.44155372952
0.110834958090632,2314.45155372952
0.124568835981431,2314.46155372952
0.13647912279851,2314.47155372952
0.146031004915976,2314.48155372952
0.153513163061766,2314.49155372952
0.158233496211269,2314.50155372952
0.160604863568302,2314.51155372952
0.161125150815625,2314.52155372952
0.159457380036219,2314.53155372952
0.158017448643162,2314.54155372952
0.155694264924725,2314.55155372952
0.153335794368579,2314.56155372952
0.150274271541994,2314.57155372952
0.146019474903865,2314.58155372952
0.140107959695342,2314.59155372952
0.131005958016196,2314.60155372952
0.118894995746553,2314.61155372952
0.10457508715516,2314.62155372952
0.0887336297375204,2314.63155372952
0.0742577922017999,2314.64155372952
0.0640797472307957,2314.65155372952
0.0621194273574012,2314.66155372952
0.0743089663038685,2314.67155372952
0.108489701737607,2314.68155372952
0.174565536224532,2314.69155372952
0.276902073864026,2314.70155372952
0.410362819548649,2314.71155372952
0.559317015517336,2314.72155372952
0.702885314588894,2314.73155372952
0.823492654769975,2314.74155372952
0.911121987558003,2314.75155372952
0.964789515136045,2314.76155372952
0.988635714642873,2314.77155372952
0.990218801894281,2314.78155372952
0.976259552213271,2314.79155372952
0.951814829823647,2314.80155372952
0.921133557205873,2314.81155372952
0.886342879563581,2314.82155372952
0.849955604367139,2314.83155372952
0.813226971621274,2314.84155372952
0.777542838637331,2314.85155372952
0.743872848424425,2314.86155372952
0.713678088083591,2314.87155372952
0.688427938743029,2314.88155372952
0.668884782467255,2314.89155372952
0.653322170589102,2314.90155372952
0.639676289416968,2314.91155372952
0.625375827300247,2314.92155372952
0.608225051845818,2314.93155372952
0.587163895256349,2314.94155372952
0.563449824013403,2314.95155372952
0.538867758181149,2314.96155372952
0.515659711542271,2314.97155372952
0.496562793182793,2314.98155372952
0.482629870976074,2314.99155372952
0.474966547345266,2315.00155372952
0.474129913947923,2315.01155372952
0.478295326964172,2315.02155372952
0.487878905180058,2315.03155372952
0.500669172817116,2315.04155372952
0.514418821294522,2315.05155372952
0.526661922106937,2315.06155372952
0.535028190187817,2315.07155372952
0.538561496268297,2315.08155372952
0.536007522615065,2315.09155372952
0.528202612809951,2315.10155372952
0.515599647145135,2315.11155372952
0.499009602368571,2315.12155372952
0.478705814950103,2315.13155372952
0.456946980127083,2315.14155372952
0.434569761208164,2315.15155372952
0.412425535505343,2315.16155372952
0.390876066025746,2315.17155372952
0.369418892099217,2315.18155372952
0.348328020634858,2315.19155372952
0.327256970120409,2315.20155372952
0.306577881522544,2315.21155372952
0.286121588771432,2315.22155372952
0.266305158684227,2315.23155372952
0.248084507680159,2315.24155372952
0.230486650819776,2315.25155372952
0.213653992416229,2315.26155372952
0.197262413412357,2315.27155372952
0.182116158223876,2315.28155372952
0.166873311977895,2315.29155372952
0.152377162115503,2315.30155372952
0.138748267827512,2315.31155372952
0.126377849920159,2315.32155372952
0.115321699368818,2315.33155372952
0.106005169368514,2315.34155372952
0.096967222317173,2315.35155372952
0.0883114031559416,2315.36155372952
0.0803344693186038,2315.37155372952
0.0717210038319832,2315.38155372952
0.0629699521588078,2315.39155372952
0.0542970617864519,2315.40155372952
0.0454732507932474,2315.41155372952
0.0361693366476288,2315.42155372952
0.0273186825598398,2315.43155372952
0.0185526012760074,2315.44155372952
0.0102414060869911,2315.45155372952
0.00188860240439392,2315.46155372952
-0.00572172489318111,2315.47155372952
-0.012949176509263,2315.48155372952
-0.0197471432339908,2315.49155372952
-0.0267754159378136,2315.50155372952
-0.0335638913796747,2315.51155372952
-0.0407460364958242,2315.52155372952
-0.0493483706423828,2315.53155372952
-0.0578898861753986,2315.54155372952
-0.0646448534432611,2315.55155372952
-0.0703296821362747,2315.56155372952
-0.074945015893103,2315.57155372952
-0.0786979829923133,2315.58155372952
-0.0783697025443023,2315.59155372952
-0.0680021191522425,2315.60155372952
-0.0383344450437032,2315.61155372952
0.0216389519323935,2315.62155372952
0.117935136503501,2315.63155372952
0.247886737057454,2315.64155372952
0.39665393295248,2315.65155372952
0.54251344717229,2315.66155372952
0.66813303920806,2315.67155372952
0.762112986146626,2315.68155372952
0.822409529328746,2315.69155372952
0.853158605291077,2315.70155372952
0.862019012218169,2315.71155372952
0.855263985802836,2315.72155372952
0.83803258492359,2315.73155372952
0.814043842383017,2315.74155372952
0.785340148932443,2315.75155372952
0.753222381410686,2315.76155372952
0.720434851833922,2315.77155372952
0.689117607140177,2315.78155372952
0.660397976883372,2315.79155372952
0.635554799436931,2315.80155372952
0.614507007288085,2315.81155372952
0.597023576720266,2315.82155372952
0.582465578033829,2315.83155372952
0.569095032706097,2315.84155372952
0.55538810300615,2315.85155372952
0.539166521741141,2315.86155372952
0.519300495592735,2315.87155372952
0.495978975483152,2315.88155372952
0.470767998388151,2315.89155372952
0.446766256698189,2315.90155372952
0.42664581744669,2315.91155372952
0.411473132358585,2315.92155372952
0.402797265146492,2315.93155372952
0.401591325065214,2315.94155372952
0.407022581428298,2315.95155372952
0.418216785214989,2315.96155372952
0.43395648047246,2315.97155372952
0.451203436705808,2315.98155372952
0.467995311202466,2315.99155372952
0.482136108379996,2316.00155372952
0.49210009512775,2316.01155372952
0.496264821367669,2316.02155372952
0.495253387580636,2316.03155372952
0.490281418706185,2316.04155372952
0.481476969826811,2316.05155372952
0.469975872063528,2316.06155372952
0.456244866935814,2316.07155372952
0.440279941746965,2316.08155372952
0.422328234405193,2316.09155372952
0.403214683845729,2316.10155372952
0.383669032334546,2316.11155372952
0.363963122311461,2316.12155372952
0.344559013662732,2316.13155372952
0.325825739238962,2316.14155372952
0.307870288887494,2316.15155372952
0.290703876028342,2316.16155372952
0.274181562093736,2316.17155372952
0.258027439662527,2316.18155372952
0.242371301685215,2316.19155372952
0.226963000037067,2316.20155372952
0.212307017886097,2316.21155372952
0.198733711973473,2316.22155372952
0.186779869332944,2316.23155372952
0.176338736750679,2316.24155372952
0.167294809091971,2316.25155372952
0.158842087563658,2316.26155372952
0.15059124242378,2316.27155372952
0.142251720737987,2316.28155372952
0.134171967398676,2316.29155372952
0.126873161474767,2316.30155372952
0.121112806350904,2316.31155372952
0.116756342698263,2316.32155372952
0.113449633988693,2316.33155372952
0.110716060298303,2316.34155372952
0.108867340422245,2316.35155372952
0.106266714057816,2316.36155372952
0.102678604495106,2316.37155372952
0.0980686775423893,2316.38155372952
0.0922111370297427,2316.39155372952
0.0854817543381281,2316.40155372952
0.0781934726455957,2316.41155372952
0.0689143237056331,2316.42155372952
0.0586658297640722,2316.43155372952
0.0492451349864838,2316.44155372952
0.0399246404100848,2316.45155372952
0.0310004520447115,2316.46155372952
0.0223889792819675,2316.47155372952
0.0132656828862273,2316.48155372952
0.00416724715485188,2316.49155372952
-0.00506015185569712,2316.50155372952
-0.0137660031102077,2316.51155372952
-0.02210415267287,2316.52155372952
-0.0272097469834964,2316.53155372952
-0.025417819660305,2316.54155372952
-0.00903702034538672,2316.55155372952
0.0317645833421982,2316.56155372952
0.106272344230579,2316.57155372952
0.216880447135933,2316.58155372952
0.354331349761351,2316.59155372952
0.499468604391662,2316.60155372952
0.631487468341424,2316.61155372952
0.735485932149017,2316.62155372952
0.804873278699289,2316.63155372952
0.84210465050555,2316.64155372952
0.851880547549275,2316.65155372952
0.842690606924913,2316.66155372952
0.821189157185255,2316.67155372952
0.791695392858647,2316.68155372952
0.75686904105997,2316.69155372952
0.720791942783977,2316.70155372952
0.685003372931481,2316.71155372952
0.650297143251648,2316.72155372952
0.617792878583116,2316.73155372952
0.588003934383715,2316.74155372952
0.561354320520072,2316.75155372952
0.537830136936642,2316.76155372952
0.516931682108624,2316.77155372952
0.498268690106418,2316.78155372952
0.480933180445715,2316.79155372952
0.463393331430663,2316.80155372952
0.44570791609656,2316.81155372952
0.426968174821799,2316.82155372952
0.408455831922993,2316.83155372952
0.393247694296413,2316.84155372952
0.381894326454733,2316.85155372952
0.376921227283319,2316.86155372952
0.379316816681152,2316.87155372952
0.389738153451553,2316.88155372952
0.407046950111861,2316.89155372952
0.429260124222907,2316.90155372952
0.452772932248139,2316.91155372952
0.474537115351278,2316.92155372952
0.492317818221518,2316.93155372952
0.50530353359479,2316.94155372952
0.512633707775677,2316.95155372952
0.514565456274034,2316.96155372952
0.510843898681167,2316.97155372952
0.501848177209631,2316.98155372952
0.489131262580924,2316.99155372952
0.473102034687882,2317.00155372952
0.455436220951816,2317.01155372952
0.436228376751682,2317.02155372952
0.416401411908718,2317.03155372952
0.396741641656373,2317.04155372952
0.377140926374766,2317.05155372952
0.357578315325839,2317.06155372952
0.33810959571202,2317.07155372952
0.318981387562567,2317.08155372952
0.300290384297522,2317.09155372952
0.282550255225682,2317.10155372952
0.266451849556071,2317.11155372952
0.252099032788344,2317.12155372952
0.238605831784898,2317.13155372952
0.226420288835781,2317.14155372952
0.214651372611759,2317.15155372952
0.20293995879558,2317.16155372952
0.191393208476033,2317.17155372952
0.179146908568206,2317.18155372952
0.166041866846535,2317.19155372952
0.152841617948895,2317.20155372952
0.140057269045437,2317.21155372952
0.128961682566939,2317.22155372952
0.119158539559343,2317.23155372952
0.110334142998091,2317.24155372952
0.102439586457079,2317.25155372952
0.0940116821273681,2317.26155372952
0.0863850619913539,2317.27155372952
0.0787199881446547,2317.28155372952
0.0709754705633609,2317.29155372952
0.0631985506564268,2317.30155372952
0.054536549451929,2317.31155372952
0.0457083946899359,2317.32155372952
0.0370756177142913,2317.33155372952
0.0285566568367407,2317.34155372952
0.020121258990801,2317.35155372952
0.0122709009345516,2317.36155372952
0.00365607016050867,2317.37155372952
-0.00556176756638685,2317.38155372952
-0.0146721998244918,2317.39155372952
-0.0237676816771987,2317.40155372952
-0.0319538409418754,2317.41155372952
-0.0395602483680831,2317.42155372952
-0.0440832018991188,2317.43155372952
-0.0404153816495296,2317.44155372952
-0.0203728382075267,2317.45155372952
0.026284524381219,2317.46155372952
0.107037403024039,2317.47155372952
0.220727818083434,2317.48155372952
0.355514643287911,2317.49155372952
0.49164545716299,2317.50155372952
0.611471631700465,2317.51155372952
0.702297854020758,2317.52155372952
0.761542815274315,2317.53155372952
0.792251870110913,2317.54155372952
0.79958111756092,2317.55155372952
0.791931924513848,2317.56155372952
0.773897543479796,2317.57155372952
0.749324299984931,2317.58155372952
0.721230172894217,2317.59155372952
0.691546811524551,2317.60155372952
0.661675697996258,2317.61155372952
0.632632728536995,2317.62155372952
0.604433184541165,2317.63155372952
0.578003127312978,2317.64155372952
0.554277618978706,2317.65155372952
0.534155393799003,2317.66155372952
0.51783738954435,2317.67155372952
0.504378447786627,2317.68155372952
0.491759803194051,2317.69155372952
0.477930415066279,2317.70155372952
0.461745109668577,2317.71155372952
0.442356596543827,2317.72155372952
0.4216066889898,2317.73155372952
0.400989073980438,2317.74155372952
0.3829498928754,2317.75155372952
0.369268035164254,2317.76155372952
0.361875876968263,2317.77155372952
0.361226852598177,2317.78155372952
0.367503212936207,2317.79155372952
0.379524954491495,2317.80155372952
0.3951298442316,2317.81155372952
0.411890672625821,2317.82155372952
0.428099169295327,2317.83155372952
0.441348599429193,2317.84155372952
0.450688801754772,2317.85155372952
0.45551883826328,2317.86155372952
0.455802940100212,2317.87155372952
0.451594512425234,2317.88155372952
0.443247462021938,2317.89155372952
0.431357275987922,2317.90155372952
0.416363410818807,2317.91155372952
0.39976900443923,2317.92155372952
0.382333068528373,2317.93155372952
0.363892348581837,2317.94155372952
0.345298184786985,2317.95155372952
0.326526482592234,2317.96155372952
0.307782229207743,2317.97155372952
0.289155339163166,2317.98155372952
0.271218176125626,2317.99155372952
0.253495899035365,2318.00155372952
0.235990004456792,2318.01155372952
0.218793123692347,2318.02155372952
0.202116156897569,2318.03155372952
0.186789845012499,2318.04155372952
0.172791675582037,2318.05155372952
0.159210937139453,2318.06155372952
0.14649841866702,2318.07155372952
0.134196938502623,2318.08155372952
0.122041756533901,2318.09155372952
0.110066624804752,2318.10155372952
0.0976394255182407,2318.11155372952
0.0851413676976155,2318.12155372952
0.072595699920639,2318.13155372952
0.0593479415666318,2318.14155372952
0.0465393553475411,2318.15155372952
0.0335937301243947,2318.16155372952
0.0207062073865294,2318.17155372952
0.00868266318786458,2318.18155372952
-0.00282618771553254,2318.19155372952
-0.0133555008565238,2318.20155372952
-0.0228211782799485,2318.21155372952
-0.031484935175167,2318.22155372952
-0.0392220128233958,2318.23155372952
-0.046609269416677,2318.24155372952
-0.0537408041496047,2318.25155372952
-0.0611626783146973,2318.26155372952
-0.0680125192323164,2318.27155372952
-0.0753045403112812,2318.28155372952
-0.0826794653007775,2318.29155372952
-0.0901382191894311,2318.30155372952
-0.0980692595916796,2318.31155372952
-0.106070448061593,2318.32155372952
-0.114355663392605,2318.33155372952
-0.122616684398874,2318.34155372952
-0.130800504949367,2318.35155372952
-0.136808655678755,2318.36155372952
-0.136341233039432,2318.37155372952
-0.122304349204614,2318.38155372952
-0.0833525213307807,2318.39155372952
-0.0101425919304649,2318.40155372952
0.0986688124331903,2318.41155372952
0.234108360001737,2318.42155372952
0.376633605821108,2318.43155372952
0.506290516282038,2318.44155372952
0.608905644933069,2318.45155372952
0.6783965023432,2318.46155372952
0.716985179346606,2318.47155372952
0.730310035661825,2318.48155372952
0.724997692982675,2318.49155372952
0.708128557224164,2318.50155372952
0.683317935514832,2318.51155372952
0.654614698150923,2318.52155372952
0.623969484212198,2318.53155372952
0.592489592785079,2318.54155372952
0.561647271098687,2318.55155372952
0.532389846466805,2318.56155372952
0.504495569113485,2318.57155372952
0.47944992999662,2318.58155372952
0.457186207646463,2318.59155372952
0.438604309330407,2318.60155372952
0.422183538086437,2318.61155372952
0.407453821913106,2318.62155372952
0.392533107935825,2318.63155372952
0.375188407413736,2318.64155372952
0.355704706982514,2318.65155372952
0.333906992657357,2318.66155372952
0.311928230439273,2318.67155372952
0.292061487199306,2318.68155372952
0.276361962221857,2318.69155372952
0.266106776289633,2318.70155372952
0.262313091384628,2318.71155372952
0.26527868223727,2318.72155372952
0.274917193518188,2318.73155372952
0.288081916524643,2318.74155372952
0.303693403636816,2318.75155372952
0.318951392494631,2318.76155372952
0.332381731923731,2318.77155372952
0.342146294915634,2318.78155372952
0.347798535778336,2318.79155372952
0.349639492637715,2318.80155372952
0.347367145617599,2318.81155372952
0.341118114403822,2318.82155372952
0.331325716389939,2318.83155372952
0.318334325346426,2318.84155372952
0.302810276852887,2318.85155372952
0.286082617840428,2318.86155372952
0.268195331613537,2318.87155372952
0.250042256513936,2318.88155372952
0.231644578918406,2318.89155372952
0.213010760722365,2318.90155372952
0.194222353632617,2318.91155372952
0.176202222595244,2318.92155372952
0.158526988180743,2318.93155372952
0.141271337466953,2318.94155372952
0.124766131041216,2318.95155372952
0.109047521431074,2318.96155372952
0.0941162305954665,2318.97155372952
0.0803214505595044,2318.98155372952
0.0673052913040534,2318.99155372952
0.0546291220708452,2319.00155372952
0.0423259006088073,2319.01155372952
0.0300292264857162,2319.02155372952
0.0184911294875499,2319.03155372952
0.00708532104585438,2319.04155372952
-0.00387329526081411,2319.05155372952
-0.014370856422902,2319.06155372952
-0.0237164602821608,2319.07155372952
-0.0328444075234509,2319.08155372952
-0.0417335636302774,2319.09155372952
-0.0499907843982139,2319.10155372952
-0.0586419872322946,2319.11155372952
-0.0669239359011042,2319.12155372952
-0.0752252418343518,2319.13155372952
-0.0838073957849247,2319.14155372952
-0.0915832331325918,2319.15155372952
-0.100195826150998,2319.16155372952
-0.109375887679064,2319.17155372952
-0.118689594050481,2319.18155372952
-0.127467646956942,2319.19155372952
-0.135957744576944,2319.20155372952
-0.143732820263757,2319.21155372952
-0.150613537786836,2319.22155372952
-0.157304692374301,2319.23155372952
-0.163837470113979,2319.24155372952
-0.17072795851636,2319.25155372952
-0.177945090066235,2319.26155372952
-0.185833680088609,2319.27155372952
-0.193939697092353,2319.28155372952
-0.201941337606516,2319.29155372952
-0.208431801503633,2319.30155372952
-0.211019222886387,2319.31155372952
-0.203418097295416,2319.32155372952
-0.176924071730181,2319.33155372952
-0.121175956216953,2319.34155372952
-0.0295304558716955,2319.35155372952
0.0942010940071476,2319.36155372952
0.235997890662634,2319.37155372952
0.374561111708162,2319.38155372952
0.491808594723165,2319.39155372952
0.577971084675036,2319.40155372952
0.630855763119315,2319.41155372952
0.655524738986592,2319.42155372952
0.658094180848453,2319.43155372952
0.64551492732626,2319.44155372952
0.62286283393702,2319.45155372952
0.593528405350514,2319.46155372952
0.560509546006991,2319.47155372952
0.525358073677862,2319.48155372952
0.489587569326326,2319.49155372952
0.455119939040816,2319.50155372952
0.422871080923615,2319.51155372952
0.393755922187799,2319.52155372952
0.368434720550899,2319.53155372952
0.346666598018574,2319.54155372952
0.328099526649044,2319.55155372952
0.311231288356411,2319.56155372952
0.294454424010335,2319.57155372952
0.276263899847687,2319.58155372952
0.25582902614333,2319.59155372952
0.233851166030126,2319.60155372952
0.211998590817341,2319.61155372952
0.193382092966353,2319.62155372952
0.179434244790762,2319.63155372952
0.172235349150156,2319.64155372952
0.172299979665696,2319.65155372952
0.180016126849599,2319.66155372952
0.194367550649079,2319.67155372952
0.214329712559881,2319.68155372952
0.236806961939288,2319.69155372952
0.259593969874464,2319.70155372952
0.280744600191146,2319.71155372952
0.297024290600645,2319.72155372952
0.307940441185035,2319.73155372952
0.313672936663032,2319.74155372952
0.312883236202823,2319.75155372952
0.306660195020949,2319.76155372952
0.295769766017666,2319.77155372952
0.280959932787821,2319.78155372952
0.263813979943553,2319.79155372952
0.244838163309856,2319.80155372952
0.225018459419767,2319.81155372952
0.205560405041496,2319.82155372952
0.186023468654188,2319.83155372952
0.166858108704647,2319.84155372952
0.148367243944831,2319.85155372952
0.130203507896675,2319.86155372952
0.112978122051223,2319.87155372952
0.0965637480664181,2319.88155372952
0.081511737637678,2319.89155372952
0.0667664606392558,2319.90155372952
0.0522111807895029,2319.91155372952
0.0378175471490266,2319.92155372952
0.0245771170165209,2319.93155372952
0.0117533080875831,2319.94155372952
0.000528869948349624,2319.95155372952
-0.0100068030147782,2319.96155372952
-0.0201971829266116,2319.97155372952
-0.0299561276584603,2319.98155372952
-0.0391845695630113,2319.99155372952
-0.0475869764464496,2320.00155372952
-0.0560064583398726,2320.01155372952
-0.0638416666762421,2320.02155372952
-0.0711954759264598,2320.03155372952
-0.078628453522624,2320.04155372952
-0.0856055052264938,2320.05155372952
-0.0927092126768587,2320.06155372952
-0.0999695997155652,2320.07155372952
-0.107737397741529,2320.08155372952
-0.115506581084237,2320.09155372952
-0.123409480917092,2320.10155372952
-0.130266052898272,2320.11155372952
-0.13643379651665,2320.12155372952
-0.142005967950849,2320.13155372952
-0.146538931363334,2320.14155372952
-0.150660319709408,2320.15155372952
-0.155214045844114,2320.16155372952
-0.160796594603276,2320.17155372952
-0.167445191715703,2320.18155372952
-0.175387853203203,2320.19155372952
-0.183525476113658,2320.20155372952
-0.189193932567234,2320.21155372952
-0.18625378563543,2320.22155372952
-0.166198079212042,2320.23155372952
-0.118131634237537,2320.24155372952
-0.0352758798165095,2320.25155372952
0.0800742223287197,2320.26155372952
0.214884776724978,2320.27155372952
0.349891756616639,2320.28155372952
0.467474122001554,2320.29155372952
0.556262066557877,2320.30155372952
0.613643119965836,2320.31155372952
0.64339378188711,2320.32155372952
0.651372193282298,2320.33155372952
0.643993238818954,2320.34155372952
0.626294007551123,2320.35155372952
0.602204832741956,2320.36155372952
0.5743998486451,2320.37155372952
0.545653288824432,2320.38155372952
0.516550249378904,2320.39155372952
0.488549624336081,2320.40155372952
0.462147895175098,2320.41155372952
0.439447938410848,2320.42155372952
0.419608076810432,2320.43155372952
0.403252920615715,2320.44155372952
0.389190778163275,2320.45155372952
0.376032437863301,2320.46155372952
0.362580815835356,2320.47155372952
0.347818675045145,2320.48155372952
0.33138236996904,2320.49155372952
0.313610317280059,2320.50155372952
0.295965933892097,2320.51155372952
0.281051769596064,2320.52155372952
0.271737389324557,2320.53155372952
0.268477392081863,2320.54155372952
0.271921370933646,2320.55155372952
0.281347151645112,2320.56155372952
0.295079588910541,2320.57155372952
0.312279476316076,2320.58155372952
0.330213992754781,2320.59155372952
0.348133147069604,2320.60155372952
0.363395854487772,2320.61155372952
0.374675919497878,2320.62155372952
0.381300358804127,2320.63155372952
0.382387886563163,2320.64155372952
0.37720514386668,2320.65155372952
0.366129956458237,2320.66155372952
0.350061373259225,2320.67155372952
0.329976542786926,2320.68155372952
0.307028824997877,2320.69155372952
0.282514206987721,2320.70155372952
0.25733425850501,2320.71155372952
0.232512786865875,2320.72155372952
0.207071491693923,2320.73155372952
0.182961647350946,2320.74155372952
0.159356767889098,2320.75155372952
0.136722378300131,2320.76155372952
0.115074980046276,2320.77155372952
0.0941625032018518,2320.78155372952
0.0738057492205458,2320.79155372952
0.0542650644868225,2320.80155372952
0.03636116815484,2320.81155372952
0.0201703274694041,2320.82155372952
0.00672130357221659,2320.83155372952
-0.00472158442920716,2320.84155372952
-0.014269476191268,2320.85155372952
-0.0216118291893106,2320.86155372952
-0.0284614805188943,2320.87155372952
-0.0348132641934271,2320.88155372952
-0.0419132227959813,2320.89155372952
-0.049608428217757,2320.90155372952
-0.0584070718880421,2320.91155372952
-0.0683536854976854,2320.92155372952
-0.0787318841698256,2320.93155372952
-0.089997008010544,2320.94155372952
-0.101371137603689,2320.95155372952
-0.113818017611447,2320.96155372952
-0.126851582914092,2320.97155372952
-0.140560251708007,2320.98155372952
-0.154904550251537,2320.99155372952
-0.169408412323838,2321.00155372952
-0.182740391668403,2321.01155372952
-0.19436571407208,2321.02155372952
-0.203604649980984,2321.03155372952
-0.210933004536638,2321.04155372952
-0.216010933539908,2321.05155372952
-0.217345965782609,2321.06155372952
-0.211511189680392,2321.07155372952
-0.190489787755745,2321.08155372952
-0.144081172385601,2321.09155372952
-0.0619705339621958,2321.10155372952
0.05831868941667,2321.11155372952
0.207383989159187,2321.12155372952
0.364671238822919,2321.13155372952
0.507419217960134,2321.14155372952
0.619026044806616,2321.15155372952
0.693984550048888,2321.16155372952
0.733361557879531,2321.17155372952
0.744929256848088,2321.18155372952
0.736633651322483,2321.19155372952
0.715182997362852,2321.20155372952
0.685276635188961,2321.21155372952
0.65070262104528,2321.22155372952
0.613684930322846,2321.23155372952
0.576880361939653,2321.24155372952
0.541485136095823,2321.25155372952
0.508068629136484,2321.26155372952
0.477399022773176,2321.27155372952
0.449989798481991,2321.28155372952
0.425855466685686,2321.29155372952
0.404840619557474,2321.30155372952
0.386464637056606,2321.31155372952
0.369364043310744,2321.32155372952
0.351402307419831,2321.33155372952
0.331383142003109,2321.34155372952
0.309043887718899,2321.35155372952
0.284776853478312,2321.36155372952
0.259857994966357,2321.37155372952
0.235235064357975,2321.38155372952
0.213925104849602,2321.39155372952
0.19694924563297,2321.40155372952
0.185795854066344,2321.41155372952
0.180422797973266,2321.42155372952
0.181464415584694,2321.43155372952
0.187679131595494,2321.44155372952
0.197805050509812,2321.45155372952
0.21097190251324,2321.46155372952
0.223946883707999,2321.47155372952
0.235370659245957,2321.48155372952
0.24324867567739,2321.49155372952
0.246327567862264,2321.50155372952
0.244260425693013,2321.51155372952
0.23738579380255,2321.52155372952
0.225433515506417,2321.53155372952
0.210174673221665,2321.54155372952
0.192111166607229,2321.55155372952
0.173035959538805,2321.56155372952
0.153267854820262,2321.57155372952
0.133189065973643,2321.58155372952
0.113637073181168,2321.59155372952
0.0939830892528179,2321.60155372952
0.0747086819491067,2321.61155372952
0.0552127454681366,2321.62155372952
0.0359750940236409,2321.63155372952
0.0170418733583145,2321.64155372952
-0.00192929087097617,2321.65155372952
-0.0200819693717067,2321.66155372952
-0.0377189101331433,2321.67155372952
-0.0551872359239156,2321.68155372952
-0.0711234585226251,2321.69155372952
-0.0861950911638361,2321.70155372952
-0.0994581921181803,2321.71155372952
-0.112015683850578,2321.72155372952
-0.124048368831611,2321.73155372952
-0.135540327486157,2321.74155372952
-0.146668349034377,2321.75155372952
-0.157581067512396,2321.76155372952
-0.16877187736356,2321.77155372952
-0.179484803195507,2321.78155372952
-0.189977507790894,2321.79155372952
-0.200052943401636,2321.80155372952
-0.209499944021984,2321.81155372952
-0.21846897632713,2321.82155372952
-0.226669077788949,2321.83155372952
-0.234743994445801,2321.84155372952
-0.242415176444907,2321.85155372952
-0.250013617403093,2321.86155372952
-0.25788241570713,2321.87155372952
-0.266412919468987,2321.88155372952
-0.275622137873247,2321.89155372952
-0.285307133229897,2321.90155372952
-0.295060254573026,2321.91155372952
-0.30532208407025,2321.92155372952
-0.315215640858952,2321.93155372952
-0.324199982387357,2321.94155372952
-0.330589117422821,2321.95155372952
-0.330244997457867,2321.96155372952
-0.315035025540073,2321.97155372952
-0.274470600230839,2321.98155372952
-0.199271000484172,2321.99155372952
-0.0860758697281267,2322.00155372952
0.0558302515515261,2322.01155372952
0.207533890542262,2322.02155372952
0.347366740357338,2322.03155372952
0.458618015431897,2322.04155372952
0.534273378453461,2322.05155372952
0.575544311668202,2322.06155372952
0.588445008513577,2322.07155372952
0.581062804386362,2322.08155372952
0.560282982298727,2322.09155372952
0.532069608600587,2322.10155372952
0.498981808583482,2322.11155372952
0.463802528561698,2322.12155372952
0.427646931966756,2322.13155372952
0.392100244399917,2322.14155372952
0.357857564459191,2322.15155372952
0.325441098940984,2322.16155372952
0.29589256620646,2322.17155372952
0.269100339322001,2322.18155372952
0.245807361853015,2322.19155372952
0.224738359390884,2322.20155372952
0.205449360907766,2322.21155372952
0.186738991485956,2322.22155372952
0.166300529611511,2322.23155372952
0.14399040265408,2322.24155372952
0.120654742574133,2322.25155372952
0.0977868543986361,2322.26155372952
0.0773532974175327,2322.27155372952
0.0619097011774421,2322.28155372952
0.0523457246253794,2322.29155372952
0.0502648550794222,2322.30155372952
0.0557528196422909,2322.31155372952
0.0688910188376415,2322.32155372952
0.087057101379513,2322.33155372952
0.108368179076339,2322.34155372952
0.129834915214261,2322.35155372952
0.148613092914488,2322.36155372952
0.163146667559054,2322.37155372952
0.17203248849644,2322.38155372952
0.174333032267785,2322.39155372952
0.170992077267399,2322.40155372952
0.161984525921367,2322.41155372952
0.147974543108175,2322.42155372952
0.131034446160628,2322.43155372952
0.112905701153193,2322.44155372952
0.0947722995405317,2322.45155372952
0.0771779125148295,2322.46155372952
0.0593319762722469,2322.47155372952
0.0412236897130067,2322.48155372952
0.0235107521210464,2322.49155372952
0.00596949242614673,2322.50155372952
-0.0113763279308574,2322.51155372952
-0.0284925017592902,2322.52155372952
-0.0443321060374244,2322.53155372952
-0.0596757694544751,2322.54155372952
-0.0742185615363797,2322.55155372952
-0.0880755336422894,2322.56155372952
-0.100972187792894,2322.57155372952
-0.113326496049801,2322.58155372952
-0.124938890404435,2322.59155372952
-0.136508306896247,2322.60155372952
-0.147875772997717,2322.61155372952
-0.158342967952869,2322.62155372952
-0.168268037595135,2322.63155372952
-0.17698331074782,2322.64155372952
-0.18516597556879,2322.65155372952
-0.193364730284786,2322.66155372952
-0.201727844011453,2322.67155372952
-0.210392644300301,2322.68155372952
-0.218842641245898,2322.69155372952
-0.226647266060253,2322.70155372952
-0.234329759797493,2322.71155372952
-0.241754654214045,2322.72155372952
-0.249209352958719,2322.73155372952
-0.256947334671792,2322.74155372952
-0.265039975045829,2322.75155372952
-0.271917580077649,2322.76155372952
-0.276037175270725,2322.77155372952
-0.272148895535239,2322.78155372952
-0.252711203330568,2322.79155372952
-0.20818023832874,2322.80155372952
-0.129766131679954,2322.81155372952
-0.0162237916421605,2322.82155372952
0.121520350233973,2322.83155372952
0.265731619320507,2322.84155372952
0.397034833841757,2322.85155372952
0.50106010738793,2322.86155372952
0.572630693860652,2322.87155372952
0.613902294103104,2322.88155372952
0.631239864295619,2322.89155372952
0.63144786169289,2322.90155372952
0.620371289523517,2322.91155372952
0.601419805766216,2322.92155372952
0.577458342337699,2322.93155372952
0.550961001590503,2322.94155372952
0.522854591101639,2322.95155372952
0.49422503671867,2322.96155372952
0.465082537570563,2322.97155372952
0.435823460933273,2322.98155372952
0.406603527596764,2322.99155372952
0.377401348841433,2323.00155372952
0.348281169945675,2323.01155372952
0.318836471103145,2323.02155372952
0.288949117249094,2323.03155372952
0.257950417586998,2323.04155372952
0.224157529485552,2323.05155372952
0.188801421236166,2323.06155372952
0.153076880154758,2323.07155372952
0.11934963578235,2323.08155372952
0.0914599769508771,2323.09155372952
0.0723112957322074,2323.10155372952
0.0645335671077223,2323.11155372952
0.0692870269224903,2323.12155372952
0.0865785622228335,2323.13155372952
0.114747868820841,2323.14155372952
0.150961095544481,2323.15155372952
0.190518715025133,2323.16155372952
0.228104712839769,2323.17155372952
0.259396606016969,2323.18155372952
0.281965413639777,2323.19155372952
0.294415554347758,2323.20155372952
0.297584553878399,2323.21155372952
0.293074232884925,2323.22155372952
0.281123576005975,2323.23155372952
0.264273623274184,2323.24155372952
0.24365557985995,2323.25155372952
0.220315420333986,2323.26155372952
0.196092101692109,2323.27155372952
0.17189345571417,2323.28155372952
0.147783712513629,2323.29155372952
0.124254121571723,2323.30155372952
0.100982877693101,2323.31155372952
0.0777948830748786,2323.32155372952
0.0558017336106546,2323.33155372952
0.0355547919069164,2323.34155372952
0.0175709899001611,2323.35155372952
0.00111517640575718,2323.36155372952
-0.0146094327606404,2323.37155372952
-0.0288352168403789,2323.38155372952
-0.0431617223099466,2323.39155372952
-0.0562610174051585,2323.40155372952
-0.068627751277495,2323.41155372952
-0.0799252983027967,2323.42155372952
-0.0901213900390915,2323.43155372952
-0.0984340862907605,2323.44155372952
-0.105655043016495,2323.45155372952
-0.112660731326214,2323.46155372952
-0.119443221587949,2323.47155372952
-0.126347511366165,2323.48155372952
-0.132840899091158,2323.49155372952
-0.140081913432445,2323.50155372952
-0.147664777903123,2323.51155372952
-0.155523815848126,2323.52155372952
-0.161773370698874,2323.53155372952
-0.163332165507265,2323.54155372952
-0.154445649419663,2323.55155372952
-0.125769334240692,2323.56155372952
-0.0690928738810361,2323.57155372952
0.0190143500635652,2323.58155372952
0.133382486360512,2323.59155372952
0.261090566026358,2323.60155372952
0.383611790349296,2323.61155372952
0.485832173850327,2323.62155372952
0.558798044699603,2323.63155372952
0.601436862479616,2323.64155372952
0.617721912005204,2323.65155372952
0.613554453011537,2323.66155372952
0.595170080667107,2323.67155372952
0.567599445736491,2323.68155372952
0.533618832772434,2323.69155372952
0.496271854271792,2323.70155372952
0.457161354915174,2323.71155372952
0.418214711629084,2323.72155372952
0.380395004510573,2323.73155372952
0.345083008743311,2323.74155372952
0.312815155133677,2323.75155372952
0.28261065654791,2323.76155372952
0.254515536336637,2323.77155372952
0.226105037799519,2323.78155372952
0.197359985190199,2323.79155372952
0.167758781433684,2323.80155372952
0.137234771857449,2323.81155372952
0.10739793910761,2323.82155372952
0.0808058688820902,2323.83155372952
0.0599122669986836,2323.84155372952
0.0463843424073749,2323.85155372952
0.0409341304976904,2323.86155372952
0.0444127012989218,2323.87155372952
0.0555877890647997,2323.88155372952
0.0737953002553628,2323.89155372952
0.0969849050753445,2323.90155372952
0.122392572039309,2323.91155372952
0.147424000738867,2323.92155372952
0.168670742916295,2323.93155372952
0.184346793066993,2323.94155372952
0.19379409982484,2323.95155372952
0.196871685808431,2323.96155372952
0.193438690126583,2323.97155372952
0.184861815462069,2323.98155372952
0.172183199949222,2323.99155372952
0.155832225648483,2324.00155372952
0.137010178637031,2324.01155372952
0.116454716548308,2324.02155372952
0.0950894767681338,2324.03155372952
0.073701519778145,2324.04155372952
0.0523961103867343,2324.05155372952
0.0316997769476419,2324.06155372952
0.0110313869318191,2324.07155372952
-0.00848810624086506,2324.08155372952
-0.0268058670556158,2324.09155372952
-0.0424774406450448,2324.10155372952
-0.0562780990172266,2324.11155372952
-0.0689088150623002,2324.12155372952
-0.080933718121115,2324.13155372952
-0.0935939362999959,2324.14155372952
-0.106662984298455,2324.15155372952
-0.11943414655037,2324.16155372952
-0.131107661031427,2324.17155372952
-0.141273884046143,2324.18155372952
-0.150200854393437,2324.19155372952
-0.157925811230854,2324.20155372952
-0.165422429771334,2324.21155372952
-0.173711157838538,2324.22155372952
-0.182791895838546,2324.23155372952
-0.192356696821469,2324.24155372952
-0.201521263477551,2324.25155372952
-0.209730517436103,2324.26155372952
-0.216570158130083,2324.27155372952
-0.220486496153497,2324.28155372952
-0.215462825104441,2324.29155372952
-0.193370258236512,2324.30155372952
-0.143106491870902,2324.31155372952
-0.0566514864618877,2324.32155372952
0.0632541811918858,2324.33155372952
0.202797813028812,2324.34155372952
0.341764834096987,2324.35155372952
0.461549112368609,2324.36155372952
0.55101953473381,2324.37155372952
0.607907382737234,2324.38155372952
0.635820887571501,2324.39155372952
0.641612975846625,2324.40155372952
0.631417731585892,2324.41155372952
0.611232772847763,2324.42155372952
0.584568205405595,2324.43155372952
0.554069652657379,2324.44155372952
0.521443766492726,2324.45155372952
0.487682505379431,2324.46155372952
0.453503170680768,2324.47155372952
0.419888606822011,2324.48155372952
0.38941293766222,2324.49155372952
0.364098000619052,2324.50155372952
0.344043858661122,2324.51155372952
0.327385293633508,2324.52155372952
0.312193470316995,2324.53155372952
0.295903708454838,2324.54155372952
0.277273709422596,2324.55155372952
0.255300533582935,2324.56155372952
0.231205626699683,2324.57155372952
0.207332755080243,2324.58155372952
0.185414331217086,2324.59155372952
0.167992088632995,2324.60155372952
0.157684677041954,2324.61155372952
0.154737415879642,2324.62155372952
0.160194421204432,2324.63155372952
0.17309026280159,2324.64155372952
0.192095916656137,2324.65155372952
0.214321153841702,2324.66155372952
0.236917519527983,2324.67155372952
0.25691398972284,2324.68155372952
0.271905724421959,2324.69155372952
0.280898161539823,2324.70155372952
0.28223704194173,2324.71155372952
0.276912829445149,2324.72155372952
0.265916788533124,2324.73155372952
0.250731415075756,2324.74155372952
0.233125869248563,2324.75155372952
0.214922135387105,2324.76155372952
0.197013232907639,2324.77155372952
0.178681934274366,2324.78155372952
0.160508375504299,2324.79155372952
0.142170735565137,2324.80155372952
0.123463363165611,2324.81155372952
0.105048428324148,2324.82155372952
0.0867383211559762,2324.83155372952
0.0688099459759171,2324.84155372952
0.0513793364929103,2324.85155372952
0.0351040299946903,2324.86155372952
0.0192275481529522,2324.87155372952
0.00464412185315411,2324.88155372952
-0.00807131855159379,2324.89155372952
-0.0199916098406871,2324.90155372952
-0.030950853087679,2324.91155372952
-0.0409761399691707,2324.92155372952
-0.0502247988092856,2324.93155372952
-0.0589138389238524,2324.94155372952
-0.066881325414939,2324.95155372952
-0.0750864091682347,2324.96155372952
-0.084703896397369,2324.97155372952
-0.0953886954339842,2324.98155372952
-0.105989629251864,2324.99155372952
-0.115652917854447,2325.00155372952
-0.123443753812396,2325.01155372952
-0.13025163560883,2325.02155372952
-0.1360522885526,2325.03155372952
-0.137973618153162,2325.04155372952
-0.131356394669733,2325.05155372952
-0.105619693491397,2325.06155372952
-0.0497023560117806,2325.07155372952
0.0428226048610103,2325.08155372952
0.166989999998045,2325.09155372952
0.305708879152576,2325.10155372952
0.438984140340499,2325.11155372952
0.549665829343919,2325.12155372952
0.629295659978299,2325.13155372952
0.676988601396137,2325.14155372952
0.69820851200263,2325.15155372952
0.698729881179172,2325.16155372952
0.685496437295481,2325.17155372952
0.664126661904781,2325.18155372952
0.637024009622396,2325.19155372952
0.606077278089253,2325.20155372952
0.573502041665491,2325.21155372952
0.540718811070922,2325.22155372952
0.509495030488415,2325.23155372952
0.481078231008009,2325.24155372952
0.456191230137534,2325.25155372952
0.436289650615449,2325.26155372952
0.420302505646126,2325.27155372952
0.405926553524792,2325.28155372952
0.391816789046305,2325.29155372952
0.375569760547362,2325.30155372952
0.356214421823832,2325.31155372952
0.333068413843932,2325.32155372952
0.308106863105127,2325.33155372952
0.283130524387023,2325.34155372952
0.261556998831301,2325.35155372952
0.245620179099642,2325.36155372952
0.236460747282347,2325.37155372952
0.234706299257369,2325.38155372952
0.241628327431661,2325.39155372952
0.256305417176802,2325.40155372952
0.276122512243707,2325.41155372952
0.298752942995115,2325.42155372952
0.32005374481668,2325.43155372952
0.337130245515283,2325.44155372952
0.348623500423947,2325.45155372952
0.353493842048363,2325.46155372952
0.352422702076283,2325.47155372952
0.345602097232046,2325.48155372952
0.334601091405619,2325.49155372952
0.319865541198387,2325.50155372952
0.302241007231719,2325.51155372952
0.282590073698606,2325.52155372952
0.262249519945727,2325.53155372952
0.241206836642921,2325.54155372952
0.220342733541733,2325.55155372952
0.199182105400229,2325.56155372952
0.179370559499627,2325.57155372952
0.160722714425574,2325.58155372952
0.143693317457642,2325.59155372952
0.127931137048113,2325.60155372952
0.113073096832355,2325.61155372952
0.0995615009610566,2325.62155372952
0.0861576685221311,2325.63155372952
0.0739968826885776,2325.64155372952
0.0634073957853427,2325.65155372952
0.0547208275649933,2325.66155372952
0.047434911473843,2325.67155372952
0.0401937498368028,2325.68155372952
0.0324402117429232,2325.69155372952
0.0234659403458228,2325.70155372952
0.0129299685748303,2325.71155372952
0.00160402667475211,2325.72155372952
-0.00967451562332648,2325.73155372952
-0.0209404902146967,2325.74155372952
-0.0320662774425758,2325.75155372952
-0.0429999749783556,2325.76155372952
-0.0542382050782433,2325.77155372952
-0.0657041501014294,2325.78155372952
-0.0771924792898108,2325.79155372952
-0.0890101088942288,2325.80155372952
-0.100883899325674,2325.81155372952
-0.111579466736138,2325.82155372952
-0.11853783760278,2325.83155372952
-0.115189768588874,2325.84155372952
-0.0917241377719638,2325.85155372952
-0.0375669317430866,2325.86155372952
0.0531060148285013,2325.87155372952
0.176125933442152,2325.88155372952
0.316858077451355,2325.89155372952
0.454159664831474,2325.90155372952
0.570434105921883,2325.91155372952
0.656356142712212,2325.92155372952
0.709943198066359,2325.93155372952
0.735850560509061,2325.94155372952
0.741150256637769,2325.95155372952
0.732226768796734,2325.96155372952
0.714513758453228,2325.97155372952
0.691507326254885,2325.98155372952
0.665235477523088,2325.99155372952
0.637105548557534,2326.00155372952
0.609269513707942,2326.01155372952
0.582715235712001,2326.02155372952
0.558453186652256,2326.03155372952
0.536983769221052,2326.04155372952
0.519120454773942,2326.05155372952
0.504002636254163,2326.06155372952
0.490916489853924,2326.07155372952
0.478479849201644,2326.08155372952
0.464375028323116,2326.09155372952
0.447314549000982,2326.10155372952
0.425783015613832,2326.11155372952
0.40141893706262,2326.12155372952
0.375521525959563,2326.13155372952
0.350378073658221,2326.14155372952
0.329451048232431,2326.15155372952
0.313972579897813,2326.16155372952
0.306323749746564,2326.17155372952
0.305789604472571,2326.18155372952
0.311842253951849,2326.19155372952
0.32230455923365,2326.20155372952
0.335403349345062,2326.21155372952
0.349512724385723,2326.22155372952
0.362066034151809,2326.23155372952
0.372305553194289,2326.24155372952
0.378411694479454,2326.25155372952
0.379532258381199,2326.26155372952
0.375273456791987,2326.27155372952
0.367121143260643,2326.28155372952
0.355991842149604,2326.29155372952
0.342095153249347,2326.30155372952
0.326183902914106,2326.31155372952
0.308368454692016,2326.32155372952
0.289106640108255,2326.33155372952
0.269118476652768,2326.34155372952
0.249144221593772,2326.35155372952
0.228467387056895,2326.36155372952
0.207417137299486,2326.37155372952
0.186143217022434,2326.38155372952
0.166361853929968,2326.39155372952
0.147734459650304,2326.40155372952
0.131167548816913,2326.41155372952
0.115523702401863,2326.42155372952
0.100501746529442,2326.43155372952
0.085700399801001,2326.44155372952
0.0715276804384979,2326.45155372952
0.0576277337459909,2326.46155372952
0.0448669240915158,2326.47155372952
0.0327056049093761,2326.48155372952
0.0207796779883027,2326.49155372952
0.00921731125011615,2326.50155372952
-0.00231488959615753,2326.51155372952
-0.0135393469246021,2326.52155372952
-0.0256128398606818,2326.53155372952
-0.0372972186342018,2326.54155372952
-0.0472801469728163,2326.55155372952
-0.0555413983862246,2326.56155372952
-0.0632202865726364,2326.57155372952
-0.0708694981005329,2326.58155372952
-0.0792104960070133,2326.59155372952
-0.0882794446639891,2326.60155372952
-0.0977558407915851,2326.61155372952
-0.107741819160153,2326.62155372952
-0.117838106461142,2326.63155372952
-0.128170986775455,2326.64155372952
-0.138274687483144,2326.65155372952
-0.148244573121961,2326.66155372952
-0.155904585371959,2326.67155372952
-0.157396526846747,2326.68155372952
-0.14469810319107,2326.69155372952
-0.105883417941812,2326.70155372952
-0.0303209137144731,2326.71155372952
0.0819295929224356,2326.72155372952
0.220288418846668,2326.73155372952
0.363553749606816,2326.74155372952
0.491967952913026,2326.75155372952
0.591606762460675,2326.76155372952
0.657581468224612,2326.77155372952
0.693192294357794,2326.78155372952
0.703802346474092,2326.79155372952
0.696915868616617,2326.80155372952
0.679682993832993,2326.81155372952
0.656444908221348,2326.82155372952
0.629773223053579,2326.83155372952
0.601117423187471,2326.84155372952
0.571911590298692,2326.85155372952
0.54141674925073,2326.86155372952
0.511567853416119,2326.87155372952
0.483032683593602,2326.88155372952
0.457359976772837,2326.89155372952
0.434617391644297,2326.90155372952
0.414555915758786,2326.91155372952
0.396680425337421,2326.92155372952
0.378485377894346,2326.93155372952
0.359054489548796,2326.94155372952
0.337803255450347,2326.95155372952
0.314179481316652,2326.96155372952
0.289312879232499,2326.97155372952
0.26567167524754,2326.98155372952
0.245382004484251,2326.99155372952
0.230660730148866,2327.00155372952
0.222997079676046,2327.01155372952
0.223001082663989,2327.02155372952
0.228904519638217,2327.03155372952
0.240208283462918,2327.04155372952
0.255585597592982,2327.05155372952
0.272723583022548,2327.06155372952
0.288288281437735,2327.07155372952
0.300938047521356,2327.08155372952
0.308070575811488,2327.09155372952
0.310110797814217,2327.10155372952
0.306761836835567,2327.11155372952
0.298764553074641,2327.12155372952
0.287553470018281,2327.13155372952
0.273808474733902,2327.14155372952
0.258290193431643,2327.15155372952
0.240421205938228,2327.16155372952
0.220927868508061,2327.17155372952
0.200579859896936,2327.18155372952
0.181029099327492,2327.19155372952
0.161991293713485,2327.20155372952
0.143768320681714,2327.21155372952
0.125758104102374,2327.22155372952
0.108036494036335,2327.23155372952
0.090246170179742,2327.24155372952
0.0728442471488206,2327.25155372952
0.0548193035456482,2327.26155372952
0.0361654937067769,2327.27155372952
0.018922007584954,2327.28155372952
0.00392749780767868,2327.29155372952
-0.00817743108787171,2327.30155372952
-0.0192123861560145,2327.31155372952
-0.0298367317615731,2327.32155372952
-0.0405644328252792,2327.33155372952
-0.0521013686898634,2327.34155372952
-0.0637456221596635,2327.35155372952
-0.0749929583816651,2327.36155372952
-0.0856786177838344,2327.37155372952
-0.0952700553880812,2327.38155372952
-0.10487395032136,2327.39155372952
-0.11412760931903,2327.40155372952
-0.123889491658266,2327.41155372952
-0.13445375383233,2327.42155372952
-0.145683463058146,2327.43155372952
-0.15615956462058,2327.44155372952
-0.16491259056904,2327.45155372952
-0.172379316579618,2327.46155372952
-0.17922413906204,2327.47155372952
-0.186103639734229,2327.48155372952
-0.192961257863719,2327.49155372952
-0.200403529673782,2327.50155372952
-0.207637498319841,2327.51155372952
-0.214757951297364,2327.52155372952
-0.222868933234906,2327.53155372952
-0.231083311210004,2327.54155372952
-0.239537144458121,2327.55155372952
-0.248694132886163,2327.56155372952
-0.25742511517552,2327.57155372952
-0.265438673753908,2327.58155372952
-0.270886326071889,2327.59155372952
-0.267826543758701,2327.60155372952
-0.246190120643876,2327.61155372952
-0.194402598450394,2327.62155372952
-0.103137197252728,2327.63155372952
0.0259120415863816,2327.64155372952
0.175492047493599,2327.65155372952
0.323097408155521,2327.66155372952
0.44910649496789,2327.67155372952
0.54232211644242,2327.68155372952
0.600413781297132,2327.69155372952
0.627960819649257,2327.70155372952
0.631773865262775,2327.71155372952
0.618827122645547,2327.72155372952
0.594639795630121,2327.73155372952
0.563754877638762,2327.74155372952
0.529295555070142,2327.75155372952
0.492412894345509,2327.76155372952
0.454946656150141,2327.77155372952
0.418344011480558,2327.78155372952
0.383255803956906,2327.79155372952
0.35130375777058,2327.80155372952
0.322785440219616,2327.81155372952
0.298013855432253,2327.82155372952
0.276793870374903,2327.83155372952
0.257203362911678,2327.84155372952
0.237085961117443,2327.85155372952
0.215453897394497,2327.86155372952
0.191702127935059,2327.87155372952
0.166662972085574,2327.88155372952
0.142551444733922,2327.89155372952
0.121331167872731,2327.90155372952
0.106230429145092,2327.91155372952
0.0976268094417834,2327.92155372952
0.0965825129607616,2327.93155372952
0.104890883085185,2327.94155372952
0.122186751980721,2327.95155372952
0.146645813160392,2327.96155372952
0.173730504682667,2327.97155372952
0.200475942946694,2327.98155372952
0.222886306068512,2327.99155372952
0.238754188728452,2328.00155372952
0.247114208032289,2328.01155372952
0.247923700165358,2328.02155372952
0.242736528936284,2328.03155372952
0.232185390192534,2328.04155372952
0.217715313954655,2328.05155372952
0.200604928771193,2328.06155372952
0.181738547158009,2328.07155372952
0.160999335111628,2328.08155372952
0.139893200070718,2328.09155372952
0.119418281017467,2328.10155372952
0.0995722079638002,2328.11155372952
0.0806029342773456,2328.12155372952
0.0621808935318106,2328.13155372952
0.0450435889995312,2328.14155372952
0.0283427477890761,2328.15155372952
0.0119365908112053,2328.16155372952
-0.00435891125411562,2328.17155372952
-0.0208161455270324,2328.18155372952
-0.0368868232819183,2328.19155372952
-0.0511480561584193,2328.20155372952
-0.0637516908621423,2328.21155372952
-0.0749138785737326,2328.22155372952
-0.0848572748444293,2328.23155372952
-0.094105182645289,2328.24155372952
-0.103213700218039,2328.25155372952
-0.111889970470868,2328.26155372952
-0.120918660435099,2328.27155372952
-0.129888238301867,2328.28155372952
-0.13952735631254,2328.29155372952
-0.148380395632164,2328.30155372952
-0.157505632477287,2328.31155372952
-0.167205211154596,2328.32155372952
-0.176838568495815,2328.33155372952
-0.18599617103989,2328.34155372952
-0.19426211347738,2328.35155372952
-0.201976246826944,2328.36155372952
-0.209594973007769,2328.37155372952
-0.217292126889547,2328.38155372952
-0.224983107193673,2328.39155372952
-0.233531735538361,2328.40155372952
-0.241907884008942,2328.41155372952
-0.250215130264425,2328.42155372952
-0.259239103512433,2328.43155372952
-0.266985271918455,2328.44155372952
-0.274707871123465,2328.45155372952
-0.280543011929999,2328.46155372952
-0.283727481100293,2328.47155372952
-0.280270969456347,2328.48155372952
-0.262854620885561,2328.49155372952
-0.220770955459724,2328.50155372952
-0.14408183764761,2328.51155372952
-0.0311599264239857,2328.52155372952
0.106767130683943,2328.53155372952
0.251301145290609,2328.54155372952
0.381538041303807,2328.55155372952
0.484449305781159,2328.56155372952
0.554277726132008,2328.57155372952
0.591841060562522,2328.58155372952
0.602921767066272,2328.59155372952
0.595459901371688,2328.60155372952
0.576478292679616,2328.61155372952
0.550168045537282,2328.62155372952
0.518912101936007,2328.63155372952
0.484740672224929,2328.64155372952
0.447482766405932,2328.65155372952
0.409124218167049,2328.66155372952
0.371665587717618,2328.67155372952
0.337036566338855,2328.68155372952
0.306370418063887,2328.69155372952
0.279426387589993,2328.70155372952
0.256246061764696,2328.71155372952
0.234976744556986,2328.72155372952
0.214525483372339,2328.73155372952
0.192801342851139,2328.74155372952
0.169376854711296,2328.75155372952
0.144097218852991,2328.76155372952
0.11930740443919,2328.77155372952
0.0973161900749472,2328.78155372952
0.0810479145153821,2328.79155372952
0.0719429608866808,2328.80155372952
0.0712554673033017,2328.81155372952
0.0789953701763119,2328.82155372952
0.0940972216296139,2328.83155372952
0.11530641064953,2328.84155372952
0.140033869473615,2328.85155372952
0.164991529091004,2328.86155372952
0.186932170673895,2328.87155372952
0.204388024667275,2328.88155372952
0.214414260217801,2328.89155372952
0.217170863607683,2328.90155372952
0.212442214657163,2328.91155372952
0.201784601852096,2328.92155372952
0.186525492581929,2328.93155372952
0.169125223063135,2328.94155372952
0.1504297806099,2328.95155372952
0.130958001061911,2328.96155372952
0.111405402776312,2328.97155372952
0.0908212421762059,2328.98155372952
0.0705474203631477,2328.99155372952
0.05060473548798,2329.00155372952
0.0313255219298288,2329.01155372952
0.0134963495322514,2329.02155372952
-0.00282448344448997,2329.03155372952
-0.0174567138296385,2329.04155372952
-0.0306560426257013,2329.05155372952
-0.0436687771889318,2329.06155372952
-0.0553451777986816,2329.07155372952
-0.0667829366756954,2329.08155372952
-0.0776248781930887,2329.09155372952
-0.0873504876588728,2329.10155372952
-0.0966708590444784,2329.11155372952
-0.106264803785641,2329.12155372952
-0.115947188217716,2329.13155372952
-0.126370875864987,2329.14155372952
-0.136464058154211,2329.15155372952
-0.14665679842628,2329.16155372952
-0.157303566157354,2329.17155372952
-0.168088880197835,2329.18155372952
-0.178449516248631,2329.19155372952
-0.18924663053984,2329.20155372952
-0.200088795635308,2329.21155372952
-0.211724820223484,2329.22155372952
-0.22348276005627,2329.23155372952
-0.235618975623796,2329.24155372952
-0.247656736436399,2329.25155372952
-0.259002107630449,2329.26155372952
-0.26953315620265,2329.27155372952
-0.279227317611116,2329.28155372952
-0.288218307890441,2329.29155372952
-0.296538221027548,2329.30155372952
-0.304915298142785,2329.31155372952
-0.315512015887227,2329.32155372952
-0.327290206864765,2329.33155372952
-0.337555156034605,2329.34155372952
-0.343135711709107,2329.35155372952
-0.342015508613538,2329.36155372952
-0.328705969341104,2329.37155372952
-0.292863390689251,2329.38155372952
-0.222281974447255,2329.39155372952
-0.110638957774007,2329.40155372952
0.0352826596232865,2329.41155372952
0.195040064190939,2329.42155372952
0.345441664046494,2329.43155372952
0.468464531557202,2329.44155372952
0.554379083969878,2329.45155372952
0.604454166652472,2329.46155372952
0.624980759708195,2329.47155372952
0.62296116549843,2329.48155372952
0.606434200602769,2329.49155372952
0.581105045958435,2329.50155372952
0.551343436170045,2329.51155372952
0.51859467642082,2329.52155372952
0.48420656143005,2329.53155372952
0.4496597132536,2329.54155372952
0.415881921774343,2329.55155372952
0.383887668042622,2329.56155372952
0.354506255822076,2329.57155372952
0.328860044287542,2329.58155372952
0.306139015713659,2329.59155372952
0.287285950257947,2329.60155372952
0.270919516010178,2329.61155372952
0.256111422524572,2329.62155372952
0.240698482802955,2329.63155372952
0.223047010896514,2329.64155372952
0.202549176888339,2329.65155372952
0.180131311882386,2329.66155372952
0.158764118753378,2329.67155372952
0.140751733992776,2329.68155372952
0.128816215688894,2329.69155372952
0.124209278803063,2329.70155372952
0.127633677320919,2329.71155372952
0.138418409968845,2329.72155372952
0.15603803668951,2329.73155372952
0.17779851099005,2329.74155372952
0.201008092394033,2329.75155372952
0.222430491853986,2329.76155372952
0.239851757281431,2329.77155372952
0.251026614302144,2329.78155372952
0.255148463901258,2329.79155372952
0.252285832031986,2329.80155372952
0.243557167469768,2329.81155372952
0.229287040742697,2329.82155372952
0.211315052273307,2329.83155372952
0.191669764661666,2329.84155372952
0.171514585039055,2329.85155372952
0.15101878462267,2329.86155372952
0.131049753351153,2329.87155372952
0.111134807653424,2329.88155372952
0.0915399987584314,2329.89155372952
0.0724354085533544,2329.90155372952
0.0537775685891014,2329.91155372952
0.0361382588952031,2329.92155372952
0.0193318729329926,2329.93155372952
0.00374844725810846,2329.94155372952
-0.0116861272599079,2329.95155372952
-0.0275383731582318,2329.96155372952
-0.0434169475848685,2329.97155372952
-0.0595044834046598,2329.98155372952
-0.0741756514912461,2329.99155372952
-0.0863918391016218,2330.00155372952
-0.0967625390883762,2330.01155372952
-0.105332400719103,2330.02155372952
-0.113649846872602,2330.03155372952
-0.122006784506528,2330.04155372952
-0.130899673746774,2330.05155372952
-0.139969759584397,2330.06155372952
-0.149153259937512,2330.07155372952
-0.158356256726906,2330.08155372952
-0.167273904923374,2330.09155372952
-0.176809163453621,2330.10155372952
-0.186184744742866,2330.11155372952
-0.195648131007412,2330.12155372952
-0.204371494581246,2330.13155372952
-0.212839784024893,2330.14155372952
-0.220757614406519,2330.15155372952
-0.228562610524387,2330.16155372952
-0.235933441217174,2330.17155372952
-0.243254567450142,2330.18155372952
-0.250558061141029,2330.19155372952
-0.257861146174478,2330.20155372952
-0.266330901639009,2330.21155372952
-0.276481204301658,2330.22155372952
-0.286811563686491,2330.23155372952
-0.294997767164028,2330.24155372952
-0.296464254153021,2330.25155372952
-0.284586440104187,2330.26155372952
-0.249041047048561,2330.27155372952
-0.179510501072462,2330.28155372952
-0.0716769760292236,2330.29155372952
0.0659654724087459,2330.30155372952
0.214490073923579,2330.31155372952
0.352304544314187,2330.32155372952
0.463815138716716,2330.33155372952
0.540841344907789,2330.34155372952
0.585049296311124,2330.35155372952
0.601848557960167,2330.36155372952
0.598559636767307,2330.37155372952
0.581588987761343,2330.38155372952
0.555043877907076,2330.39155372952
0.523166916483451,2330.40155372952
0.48844358355268,2330.41155372952
0.452423933396268,2330.42155372952
0.416861746099742,2330.43155372952
0.382738709048608,2330.44155372952
0.350302067673726,2330.45155372952
0.320788617755307,2330.46155372952
0.294590866684212,2330.47155372952
0.271214338966707,2330.48155372952
0.251327344042888,2330.49155372952
0.234038736887499,2330.50155372952
0.217022375201629,2330.51155372952
0.199241927048974,2330.52155372952
0.178761974540523,2330.53155372952
0.156537358507634,2330.54155372952
0.134924898699946,2330.55155372952
0.11556007564818,2330.56155372952
0.101180897621748,2330.57155372952
0.0939094338559906,2330.58155372952
0.0947593378921846,2330.59155372952
0.103645051270278,2330.60155372952
0.119470444319421,2330.61155372952
0.140974173024651,2330.62155372952
0.164683887201439,2330.63155372952
0.187184360868713,2330.64155372952
0.205715127633899,2330.65155372952
0.21854111136289,2330.66155372952
0.22452671223215,2330.67155372952
0.224108704991743,2330.68155372952
0.217668896160811,2330.69155372952
0.207513136328071,2330.70155372952
0.193265637015447,2330.71155372952
0.175176513704516,2330.72155372952
0.155438380578787,2330.73155372952
0.135249874465886,2330.74155372952
0.116401279323821,2330.75155372952
0.098018174014116,2330.76155372952
0.0794218438555381,2330.77155372952
0.0603498318559107,2330.78155372952
0.0412035361358725,2330.79155372952
0.0220771804184048,2330.80155372952
0.00382353951139778,2330.81155372952
-0.0135146600462747,2330.82155372952
-0.0298740761682203,2330.83155372952
-0.0446162143046826,2330.84155372952
-0.0581832689130825,2330.85155372952
-0.0703567803523959,2330.86155372952
-0.083113146604236,2330.87155372952
-0.0957066145650156,2330.88155372952
-0.107996167537295,2330.89155372952
-0.119309139259033,2330.90155372952
-0.128985738343703,2330.91155372952
-0.138152672143155,2330.92155372952
-0.146208359165639,2330.93155372952
-0.154348985741367,2330.94155372952
-0.162495192110372,2330.95155372952
-0.170826531124659,2330.96155372952
-0.179054049962628,2330.97155372952
-0.187612255463171,2330.98155372952
-0.195661144770396,2330.99155372952
-0.204143589758041,2331.00155372952
-0.212917041616173,2331.01155372952
-0.221703458098525,2331.02155372952
-0.23055742838394,2331.03155372952
-0.238946409946755,2331.04155372952
-0.247186466921548,2331.05155372952
-0.254761792434195,2331.06155372952
-0.262283244700077,2331.07155372952
-0.270385601582997,2331.08155372952
-0.27848677661019,2331.09155372952
-0.287248604791099,2331.10155372952
-0.298292742167104,2331.11155372952
-0.310567034213297,2331.12155372952
-0.322419038219255,2331.13155372952
-0.332148466776665,2331.14155372952
-0.340030666527998,2331.15155372952
-0.344880863572667,2331.16155372952
-0.344383123616101,2331.17155372952
-0.331932598490051,2331.18155372952
-0.297831800065481,2331.19155372952
-0.230275209811174,2331.20155372952
-0.123804598938162,2331.21155372952
0.0140470088264359,2331.22155372952
0.165311588288106,2331.23155372952
0.308168377474908,2331.24155372952
0.424639402430711,2331.25155372952
0.506513394291646,2331.26155372952
0.553887574797651,2331.27155372952
0.572284188975722,2331.28155372952
0.569738333021375,2331.29155372952
0.552893021849634,2331.30155372952
0.526061875185501,2331.31155372952
0.493588722485071,2331.32155372952
0.45772688809545,2331.33155372952
0.42020811357506,2331.34155372952
0.382889084465578,2331.35155372952
0.346868041564649,2331.36155372952
0.312562091138561,2331.37155372952
0.280148444170375,2331.38155372952
0.252308701499381,2331.39155372952
0.230179566944317,2331.40155372952
0.213186913503216,2331.41155372952
0.198418047537417,2331.42155372952
0.182603552937066,2331.43155372952
0.163975151252891,2331.44155372952
0.14236147057927,2331.45155372952
0.1194632790849,2331.46155372952
0.0969983946651568,2331.47155372952
0.0783136144775631,2331.48155372952
0.0650044447054549,2331.49155372952
0.0590511400881359,2331.50155372952
0.0615548568310887,2331.51155372952
0.072321324204066,2331.52155372952
0.0904643783918735,2331.53155372952
0.113996035252326,2331.54155372952
0.139978001424615,2331.55155372952
0.164825029307683,2331.56155372952
0.185570518304114,2331.57155372952
0.199970449946649,2331.58155372952
0.208251145939885,2331.59155372952
0.208975936373613,2331.60155372952
0.202808670461614,2331.61155372952
0.190744292646761,2331.62155372952
0.175759980148964,2331.63155372952
0.159420351225992,2331.64155372952
0.142044557302024,2331.65155372952
0.12340252347887,2331.66155372952
0.104390165769834,2331.67155372952
0.0850424153808612,2331.68155372952
0.0656071485940846,2331.69155372952
0.0468816732585896,2331.70155372952
0.0292553592213326,2331.71155372952
0.0124343836767584,2331.72155372952
-0.00359755006047513,2331.73155372952
-0.0191741682540846,2331.74155372952
-0.0342318321470629,2331.75155372952
-0.0490907736367967,2331.76155372952
-0.0637072421606324,2331.77155372952
-0.077948694046049,2331.78155372952
-0.0903359596762303,2331.79155372952
-0.100901556194283,2331.80155372952
-0.110848846309969,2331.81155372952
-0.119382929911665,2331.82155372952
-0.127976004538881,2331.83155372952
-0.136724994896245,2331.84155372952
-0.145424972393268,2331.85155372952
-0.154474940817367,2331.86155372952
-0.163850644491879,2331.87155372952
-0.174000815531333,2331.88155372952
-0.183828656980961,2331.89155372952
-0.192880975484643,2331.90155372952
-0.201732752910838,2331.91155372952
-0.210678479409361,2331.92155372952
-0.219424231437264,2331.93155372952
-0.227992142099406,2331.94155372952
-0.236832320049636,2331.95155372952
-0.245097612232493,2331.96155372952
-0.252970175414533,2331.97155372952
-0.26071501378726,2331.98155372952
-0.267742845958161,2331.99155372952
-0.275052055802737,2332.00155372952
-0.283096150623034,2332.01155372952
-0.291636670438662,2332.02155372952
-0.300806489001015,2332.03155372952
-0.30970756111204,2332.04155372952
-0.318188040221993,2332.05155372952
-0.325288680057621,2332.06155372952
-0.330460971851864,2332.07155372952
-0.330081417094366,2332.08155372952
-0.317027716644199,2332.09155372952
-0.280689153917474,2332.10155372952
-0.210851580090825,2332.11155372952
-0.103177206202161,2332.12155372952
0.0327820757383445,2332.13155372952
0.178895975251057,2332.14155372952
0.314929144926735,2332.15155372952
0.424462041485266,2332.16155372952
0.501039406086912,2332.17155372952
0.544317803594768,2332.18155372952
0.560898099571701,2332.19155372952
0.556327539121902,2332.20155372952
0.537774136821042,2332.21155372952
0.510253804533917,2332.22155372952
0.477470355765933,2332.23155372952
0.441722717027533,2332.24155372952
0.405139316009775,2332.25155372952
0.368071615482523,2332.26155372952
0.330770285186305,2332.27155372952
0.295462982002594,2332.28155372952
0.26569070963591,2332.29155372952
0.242628148013405,2332.30155372952
0.224605570393181,2332.31155372952
0.209789137306891,2332.32155372952
0.195133969867361,2332.33155372952
0.178617843809496,2332.34155372952
0.159448366459043,2332.35155372952
0.137623554228014,2332.36155372952
0.114728054521592,2332.37155372952
0.0933947260518556,2332.38155372952
0.0761160263123725,2332.39155372952
0.0642249783608463,2332.40155372952
0.0597955277539221,2332.41155372952
0.0631916533928797,2332.42155372952
0.0744429047455283,2332.43155372952
0.0920178722698801,2332.44155372952
0.115344808925736,2332.45155372952
0.140466515207808,2332.46155372952
0.164041257789068,2332.47155372952
0.183937745288792,2332.48155372952
0.197086028052161,2332.49155372952
0.203233844491724,2332.50155372952
0.201342578822756,2332.51155372952
0.192950544526249,2332.52155372952
0.181052161096524,2332.53155372952
0.166524443691777,2332.54155372952
0.150481172340688,2332.55155372952
0.133060262562375,2332.56155372952
0.114400407275571,2332.57155372952
0.095662161390896,2332.58155372952
0.0765666753962747,2332.59155372952
0.0576447503592639,2332.60155372952
0.0399016009792076,2332.61155372952
0.0230664094651,2332.62155372952
0.00702013293617884,2332.63155372952
-0.00826613542467084,2332.64155372952
-0.0234874416799437,2332.65155372952
-0.0390257942517591,2332.66155372952
-0.0537000440441512,2332.67155372952
-0.0676490487457516,2332.68155372952
-0.0808103446048543,2332.69155372952
-0.0927428354866881,2332.70155372952
-0.103770219267195,2332.71155372952
-0.113704058380248,2332.72155372952
-0.123376658950512,2332.73155372952
-0.132436785166441,2332.74155372952
-0.141334779611946,2332.75155372952
-0.150315514892949,2332.76155372952
-0.161572844274064,2332.77155372952
-0.173747909851162,2332.78155372952
-0.185202126723966,2332.79155372952
-0.19492536826243,2332.80155372952
-0.20291135932031,2332.81155372952
-0.209944494996947,2332.82155372952
-0.216381028481633,2332.83155372952
-0.223462444709421,2332.84155372952
-0.230949014989741,2332.85155372952
-0.238867991257405,2332.86155372952
-0.246648436698073,2332.87155372952
-0.25401957929901,2332.88155372952
-0.260800616301749,2332.89155372952
-0.267574878360101,2332.90155372952
-0.274387714723517,2332.91155372952
-0.281359618805455,2332.92155372952
-0.289406882031484,2332.93155372952
-0.29802844153932,2332.94155372952
-0.306454839187028,2332.95155372952
-0.314238582418334,2332.96155372952
-0.321674156761217,2332.97155372952
-0.328551153780931,2332.98155372952
-0.333583338643453,2332.99155372952
-0.334483842518431,2333.00155372952
-0.324538725403886,2333.01155372952
-0.292192469595449,2333.02155372952
-0.226896329448486,2333.03155372952
-0.123364313476324,2333.04155372952
0.0117581957238359,2333.05155372952
0.160131670590805,2333.06155372952
0.301321942188279,2333.07155372952
0.418075017019239,2333.08155372952
0.501315926087586,2333.09155372952
0.551400340317799,2333.10155372952
0.572648742381528,2333.11155372952
0.573598747997513,2333.12155372952
0.559748762156349,2333.13155372952
0.536971976285491,2333.14155372952
0.50890374162544,2333.15155372952
0.476330158065737,2333.16155372952
0.440590850741676,2333.17155372952
0.405484133103942,2333.18155372952
0.372702143234463,2333.19155372952
0.343614874670956,2333.20155372952
0.318276182867339,2333.21155372952
0.296484311569287,2333.22155372952
0.277752808390288,2333.23155372952
0.262096933535253,2333.24155372952
0.247731060029784,2333.25155372952
0.232839336367001,2333.26155372952
0.215420145729854,2333.27155372952
0.195273526421319,2333.28155372952
0.173314909569615,2333.29155372952
0.150882403211172,2333.30155372952
0.131979200707977,2333.31155372952
0.117423695089398,2333.32155372952
0.109610594421798,2333.33155372952
0.10979803626284,2333.34155372952
0.118368585145479,2333.35155372952
0.13500350091979,2333.36155372952
0.157528307323817,2333.37155372952
0.183219934635908,2333.38155372952
0.208179751008178,2333.39155372952
0.229363115213742,2333.40155372952
0.245122663488877,2333.41155372952
0.253917380805448,2333.42155372952
0.254463217687013,2333.43155372952
0.247957319762625,2333.44155372952
0.238291936580776,2333.45155372952
0.226649141140036,2333.46155372952
0.214003473232892,2333.47155372952
0.199999827881913,2333.48155372952
0.184222214373181,2333.49155372952
0.167295809385687,2333.50155372952
0.149645867345125,2333.51155372952
0.131550424219338,2333.52155372952
0.113572604495311,2333.53155372952
0.0969873275832604,2333.54155372952
0.0812866317316039,2333.55155372952
0.0665564002866654,2333.56155372952
0.0517852821815805,2333.57155372952
0.037294457963934,2333.58155372952
0.022750090680309,2333.59155372952
0.00832917418122041,2333.60155372952
-0.00604212868275848,2333.61155372952
-0.0203199878273138,2333.62155372952
-0.0345671650141134,2333.63155372952
-0.0489257671335013,2333.64155372952
-0.0624410167658338,2333.65155372952
-0.0768717589943601,2333.66155372952
-0.0914712299376106,2333.67155372952
-0.104228397856857,2333.68155372952
-0.114643141977881,2333.69155372952
-0.123012703678392,2333.70155372952
-0.129968290014978,2333.71155372952
-0.13635047425695,2333.72155372952
-0.142578527831978,2333.73155372952
-0.148339350560379,2333.74155372952
-0.154029088560296,2333.75155372952
-0.15989922020463,2333.76155372952
-0.16553370459209,2333.77155372952
-0.170435949609912,2333.78155372952
-0.175056976721112,2333.79155372952
-0.180012564410993,2333.80155372952
-0.185027424029003,2333.81155372952
-0.190483342650169,2333.82155372952
-0.196424426926609,2333.83155372952
-0.203056746066195,2333.84155372952
-0.21033799653602,2333.85155372952
-0.218588556612418,2333.86155372952
-0.228127311551591,2333.87155372952
-0.238685978267234,2333.88155372952
-0.250327365501606,2333.89155372952
-0.263061805611513,2333.90155372952
-0.275152497679335,2333.91155372952
-0.283836797713391,2333.92155372952
-0.283640908475892,2333.93155372952
-0.263282568091154,2333.94155372952
-0.209524550291043,2333.95155372952
-0.114970039556469,2333.96155372952
0.0152628015138755,2333.97155372952
0.163501306652582,2333.98155372952
0.308274819702075,2333.99155372952
0.430852349083275,2334.00155372952
0.521221695214094,2334.01155372952
0.578522740148734,2334.02155372952
0.606658042237709,2334.03155372952
0.61349793998224,2334.04155372952
0.604966024565082,2334.05155372952
0.586239114514375,2334.06155372952
0.560688017346488,2334.07155372952
0.531965373812368,2334.08155372952
0.501230806337679,2334.09155372952
0.470434566310109,2334.10155372952
0.440060884090797,2334.11155372952
0.411047399186036,2334.12155372952
0.38469944556467,2334.13155372952
0.362455956923983,2334.14155372952
0.344090867653685,2334.15155372952
0.329488711968,2334.16155372952
0.31694704456854,2334.17155372952
0.304473517143346,2334.18155372952
0.290925177393822,2334.19155372952
0.274027570246133,2334.20155372952
0.254868000608212,2334.21155372952
0.233375343983107,2334.22155372952
0.211684055919453,2334.23155372952
0.192449584937612,2334.24155372952
0.178459560362451,2334.25155372952
0.170766751229131,2334.26155372952
0.170027780136477,2334.27155372952
0.176430061326993,2334.28155372952
0.188009481322521,2334.29155372952
0.203221748360727,2334.30155372952
0.220026985706258,2334.31155372952
0.236089103265537,2334.32155372952
0.249641704782834,2334.33155372952
0.25903377180839,2334.34155372952
0.263528317749541,2334.35155372952
0.262837138146223,2334.36155372952
0.257382588859334,2334.37155372952
0.247405896103785,2334.38155372952
0.234114327467988,2334.39155372952
0.217860396640284,2334.40155372952
0.199428695041245,2334.41155372952
0.180639414331604,2334.42155372952
0.161266508440351,2334.43155372952
0.142381628397284,2334.44155372952
0.123930058575111,2334.45155372952
0.105558844744077,2334.46155372952
0.0880823298132812,2334.47155372952
0.071182817698239,2334.48155372952
0.0540437238971974,2334.49155372952
0.0376625692225839,2334.50155372952
0.021652638536353,2334.51155372952
0.00634457389632806,2334.52155372952
-0.00898904311591435,2334.53155372952
-0.0230862498673697,2334.54155372952
-0.0367717364433828,2334.55155372952
-0.0505959105961948,2334.56155372952
-0.064587818564584,2334.57155372952
-0.0779978358066339,2334.58155372952
-0.0893241554322223,2334.59155372952
-0.0984579017281925,2334.60155372952
-0.105905199352473,2334.61155372952
-0.112545630872031,2334.62155372952
-0.119702444705693,2334.63155372952
-0.127244894434001,2334.64155372952
-0.13589583258574,2334.65155372952
-0.145717092773067,2334.66155372952
-0.156087981534435,2334.67155372952
-0.166352579612232,2334.68155372952
-0.176509009709106,2334.69155372952
-0.186546699675756,2334.70155372952
-0.195808334982006,2334.71155372952
-0.204374916295321,2334.72155372952
-0.211985764401035,2334.73155372952
-0.219439356459113,2334.74155372952
-0.227284459983138,2334.75155372952
-0.235396673898723,2334.76155372952
-0.243402813265122,2334.77155372952
-0.251211922895979,2334.78155372952
-0.260249384918009,2334.79155372952
-0.270300417145707,2334.80155372952
-0.280670296329447,2334.81155372952
-0.290230791028367,2334.82155372952
-0.299397492853087,2334.83155372952
-0.307388161712251,2334.84155372952
-0.314347741619897,2334.85155372952
-0.318495699806439,2334.86155372952
-0.315187428690578,2334.87155372952
-0.296248718912741,2334.88155372952
-0.251292139216399,2334.89155372952
-0.170431317591752,2334.90155372952
-0.0530182931827436,2334.91155372952
0.0878141298895434,2334.92155372952
0.23316805047285,2334.93155372952
0.362533220680575,2334.94155372952
0.462301028062979,2334.95155372952
0.528321150727243,2334.96155372952
0.563044775514996,2334.97155372952
0.572365810347776,2334.98155372952
0.564557736809106,2334.99155372952
0.545615228494383,2335.00155372952
0.519529205718984,2335.01155372952
0.489148030632823,2335.02155372952
0.455977338465114,2335.03155372952
0.422267609905998,2335.04155372952
0.389025786781626,2335.05155372952
0.35592216415192,2335.06155372952
0.324438446308224,2335.07155372952
0.296619262933058,2335.08155372952
0.273149908336814,2335.09155372952
0.254868519449716,2335.10155372952
0.2403457133811,2335.11155372952
0.226645511762676,2335.12155372952
0.212297094196086,2335.13155372952
0.195360697204369,2335.14155372952
0.175791523705167,2335.15155372952
0.154490958011074,2335.16155372952
0.133255605012219,2335.17155372952
0.114727497538353,2335.18155372952
0.100704858672449,2335.19155372952
0.0924863118867204,2335.20155372952
0.0918710457023994,2335.21155372952
0.0980487588323165,2335.22155372952
0.109886797013857,2335.23155372952
0.126932063517977,2335.24155372952
0.146265421829258,2335.25155372952
0.164868485842756,2335.26155372952
0.180277370933957,2335.27155372952
0.190759000986718,2335.28155372952
0.194646823103764,2335.29155372952
0.192320900611471,2335.30155372952
0.184549935500564,2335.31155372952
0.171860148533728,2335.32155372952
0.155792655226678,2335.33155372952
0.138914731929579,2335.34155372952
0.1218843403329,2335.35155372952
0.104969968169391,2335.36155372952
0.0884000412967536,2335.37155372952
0.0709319931794501,2335.38155372952
0.0526650532871916,2335.39155372952
0.0338677089512501,2335.40155372952
0.0149337357962668,2335.41155372952
-0.00393583179738328,2335.42155372952
-0.0229697069217412,2335.43155372952
-0.04145980885372,2335.44155372952
-0.0592299501009867,2335.45155372952
-0.0764921124619936,2335.46155372952
-0.0926449705805082,2335.47155372952
-0.10730604436648,2335.48155372952
-0.121531455380129,2335.49155372952
-0.134826579564534,2335.50155372952
-0.14714902339252,2335.51155372952
-0.158118776590933,2335.52155372952
-0.168372685343574,2335.53155372952
-0.17828026476751,2335.54155372952
-0.188012198751731,2335.55155372952
-0.197906181747524,2335.56155372952
-0.208000090813024,2335.57155372952
-0.217750102697703,2335.58155372952
-0.226755049541968,2335.59155372952
-0.235773497874899,2335.60155372952
-0.244906977096905,2335.61155372952
-0.25411140321793,2335.62155372952
-0.263493536149832,2335.63155372952
-0.272987083726935,2335.64155372952
-0.283029105876679,2335.65155372952
-0.292117631159157,2335.66155372952
-0.301055376247749,2335.67155372952
-0.309286747395522,2335.68155372952
-0.31713155365485,2335.69155372952
-0.324885714322929,2335.70155372952
-0.333331618693939,2335.71155372952
-0.343305599170954,2335.72155372952
-0.354134970445088,2335.73155372952
-0.363267917969891,2335.74155372952
-0.369988819321503,2335.75155372952
-0.374792043277219,2335.76155372952
-0.380004390078796,2335.77155372952
-0.386207202138778,2335.78155372952
-0.394555287448632,2335.79155372952
-0.403774931872654,2335.80155372952
-0.413092440811535,2335.81155372952
-0.419296917785028,2335.82155372952
-0.416726777516463,2335.83155372952
-0.397112485541528,2335.84155372952
-0.348589675901231,2335.85155372952
-0.263476632702418,2335.86155372952
-0.141521704644179,2335.87155372952
0.00469472129819062,2335.88155372952
0.154047731791956,2335.89155372952
0.286397836836632,2335.90155372952
0.387321750133094,2335.91155372952
0.452724490408222,2335.92155372952
0.485902017328215,2335.93155372952
0.493696074016805,2335.94155372952
0.48212778864778,2335.95155372952
0.457294051740746,2335.96155372952
0.424907025973044,2335.97155372952
0.38857488532377,2335.98155372952
0.350095648041408,2335.99155372952
0.31203184758484,2336.00155372952
0.276103665898421,2336.01155372952
0.243616794181866,2336.02155372952
0.214342276354422,2336.03155372952
0.187905937681571,2336.04155372952
0.164585405802717,2336.05155372952
0.143449707991745,2336.06155372952
0.124450518309835,2336.07155372952
0.106348404454505,2336.08155372952
0.0871152325091201,2336.09155372952
0.0669877700601969,2336.10155372952
0.0449093656786812,2336.11155372952
0.0216833804826646,2336.12155372952
-0.000241436185739455,2336.13155372952
-0.0176983003848975,2336.14155372952
-0.0281716888736059,2336.15155372952
-0.0306851276739964,2336.16155372952
-0.0247917569641927,2336.17155372952
-0.0116416603281228,2336.18155372952
0.00742023414303261,2336.19155372952
0.0303510129641393,2336.20155372952
0.0532656449203407,2336.21155372952
0.0731784267752264,2336.22155372952
0.0878064834879851,2336.23155372952
0.0982643606568998,2336.24155372952
0.105478341105796,2336.25155372952
0.10741873349078,2336.26155372952
0.103954635442752,2336.27155372952
0.0944072469395371,2336.28155372952
0.0803643771611156,2336.29155372952
0.062219059570345,2336.30155372952
0.0414396592832334,2336.31155372952
0.0199998671705819,2336.32155372952
-0.00132454117706007,2336.33155372952
-0.0212685237182493,2336.34155372952
-0.0406868665554238,2336.35155372952
-0.0599453556810459,2336.36155372952
-0.0790683948447616,2336.37155372952
-0.0977334852397388,2336.38155372952
-0.115806354599404,2336.39155372952
-0.132752437854137,2336.40155372952
-0.148709240886237,2336.41155372952
-0.163984140649767,2336.42155372952
-0.178342474193912,2336.43155372952
-0.191955010597856,2336.44155372952
-0.204827388947385,2336.45155372952
-0.217919313307408,2336.46155372952
-0.230428921078979,2336.47155372952
-0.241142788409428,2336.48155372952
-0.249470024928508,2336.49155372952
-0.256022532010949,2336.50155372952
-0.261577260876024,2336.51155372952
-0.26768670849429,2336.52155372952
-0.274422136452812,2336.53155372952
-0.282051208151332,2336.54155372952
-0.29081693803625,2336.55155372952
-0.299353613239572,2336.56155372952
-0.307309211291197,2336.57155372952
-0.314435773311837,2336.58155372952
-0.320699557633459,2336.59155372952
-0.326184048351413,2336.60155372952
-0.332699773832969,2336.61155372952
-0.341489957100196,2336.62155372952
-0.350556084745118,2336.63155372952
-0.358285908849637,2336.64155372952
-0.364098388851238,2336.65155372952
-0.368096569188725,2336.66155372952
-0.372137960611307,2336.67155372952
-0.37793217151587,2336.68155372952
-0.384811990192471,2336.69155372952
-0.393041249264079,2336.70155372952
-0.402212429150809,2336.71155372952
-0.412219821734864,2336.72155372952
-0.42081758491458,2336.73155372952
-0.424148534190624,2336.74155372952
-0.416036171138582,2336.75155372952
-0.387232530028931,2336.76155372952
-0.328647194653864,2336.77155372952
-0.234296173489507,2336.78155372952
-0.109275262744806,2336.79155372952
0.0321227836846262,2336.80155372952
0.168982927351399,2336.81155372952
0.284347963759954,2336.82155372952
0.36808116251385,2336.83155372952
0.418250245611858,2336.84155372952
0.439457777622007,2336.85155372952
0.437913868033442,2336.86155372952
0.420513009403221,2336.87155372952
0.392545068498091,2336.88155372952
0.357856459581493,2336.89155372952
0.320752305785969,2336.90155372952
0.283407037210519,2336.91155372952
0.247292941653823,2336.92155372952
0.212083165187413,2336.93155372952
0.17914819242254,2336.94155372952
0.148554743507423,2336.95155372952
0.121798177712177,2336.96155372952
0.0987063408644723,2336.97155372952
0.0768743642198124,2336.98155372952
0.0562447542216204,2336.99155372952
0.0349569173399581,2337.00155372952
0.0124066676325892,2337.01155372952
-0.0104929289740466,2337.02155372952
-0.0326854793681226,2337.03155372952
-0.052596516158696,2337.04155372952
-0.0678993990287551,2337.05155372952
-0.0768540625914586,2337.06155372952
-0.0781394803962302,2337.07155372952
-0.0718097569921417,2337.08155372952
-0.0578223725200221,2337.09155372952
-0.037691591954524,2337.10155372952
-0.0151771771006291,2337.11155372952
0.00651908268673502,2337.12155372952
0.0255747095826386,2337.13155372952
0.0418354112637066,2337.14155372952
0.0529219110576965,2337.15155372952
0.057137905124093,2337.16155372952
0.054319351951734,2337.17155372952
0.044774875131757,2337.18155372952
0.0299643826503483,2337.19155372952
0.0110978220669273,2337.20155372952
-0.00923017614624738,2337.21155372952
-0.0305021229764996,2337.22155372952
-0.0520416334440387,2337.23155372952
-0.0735587637560177,2337.24155372952
-0.0950696422113222,2337.25155372952
-0.116386329700867,2337.26155372952
-0.137637074388895,2337.27155372952
-0.158996557601935,2337.28155372952
-0.180423999840922,2337.29155372952
-0.201968535980619,2337.30155372952
-0.224036810921436,2337.31155372952
-0.245961699460746,2337.32155372952
-0.267300912094837,2337.33155372952
-0.287512537084865,2337.34155372952
-0.307564785731117,2337.35155372952
-0.327231363157059,2337.36155372952
-0.347060872374939,2337.37155372952
-0.367167163022398,2337.38155372952
-0.387129448323052,2337.39155372952
-0.405670570510434,2337.40155372952
-0.423885915250274,2337.41155372952
-0.441923291887434,2337.42155372952
-0.460568047105267,2337.43155372952
-0.479859952437247,2337.44155372952
-0.499521511999766,2337.45155372952
-0.51875679537963,2337.46155372952
-0.537338844158954,2337.47155372952
-0.554218562217158,2337.48155372952
-0.570089383752317,2337.49155372952
-0.585305043317303,2337.50155372952
-0.600120739420047,2337.51155372952
-0.614287433203233,2337.52155372952
-0.627076576669919,2337.53155372952
-0.637210050333398,2337.54155372952
-0.645129721850892,2337.55155372952
-0.651632447951493,2337.56155372952
-0.657999241846754,2337.57155372952
-0.665208699217452,2337.58155372952
-0.673087096466756,2337.59155372952
-0.680468137212488,2337.60155372952
-0.684921449560282,2337.61155372952
-0.680131813764397,2337.62155372952
-0.653201262310414,2337.63155372952
-0.5891985416465,2337.64155372952
-0.478496791565001,2337.65155372952
-0.324173075629443,2337.66155372952
-0.144148520267259,2337.67155372952
0.0352932889985356,2337.68155372952
0.191296287276616,2337.69155372952
0.310305535265184,2337.70155372952
0.38870620232739,2337.71155372952
0.431593303638873,2337.72155372952
0.446852801220403,2337.73155372952
0.443676789460067,2337.74155372952
0.427215194638001,2337.75155372952
0.403949311785439,2337.76155372952
0.376512393837996,2337.77155372952
0.347147507554043,2337.78155372952
0.318790266222852,2337.79155372952
0.293260438596343,2337.80155372952
0.270936637655165,2337.81155372952
0.25124963315487,2337.82155372952
0.234368123575373,2337.83155372952
0.220215617331157,2337.84155372952
0.208570049109128,2337.85155372952
0.199175391185285,2337.86155372952
0.190441844468696,2337.87155372952
0.180220653903924,2337.88155372952
0.167696188920715,2337.89155372952
0.15253863775669,2337.90155372952
0.135298856524469,2337.91155372952
0.117872402387666,2337.92155372952
0.102849449166036,2337.93155372952
0.0914427936158484,2337.94155372952
0.0861029179330441,2337.95155372952
0.0875246643986947,2337.96155372952
0.0959021477541518,2337.97155372952
0.109968218296315,2337.98155372952
0.128360758202892,2337.99155372952
0.148280761631772,2338.00155372952
0.165733448123493,2338.01155372952
0.179105411166302,2338.02155372952
0.189965903933548,2338.03155372952
0.197828843753086,2338.04155372952
0.203172539911599,2338.05155372952
0.204027585229546,2338.06155372952
0.200657993309053,2338.07155372952
0.192514941691464,2338.08155372952
0.180467401667134,2338.09155372952
0.166131987896592,2338.10155372952
0.149508378260856,2338.11155372952
0.131961604204645,2338.12155372952
0.114422461155151,2338.13155372952
0.0968856652926055,2338.14155372952
0.0801954287988811,2338.15155372952
0.0638932661099862,2338.16155372952
0.0476208840764831,2338.17155372952
0.0320022170730643,2338.18155372952
0.0165757824987715,2338.19155372952
0.00213556697055048,2338.20155372952
-0.0119104036642359,2338.21155372952
-0.025454084177563,2338.22155372952
-0.0379564623415541,2338.23155372952
-0.0508741596377974,2338.24155372952
-0.0639585760666925,2338.25155372952
-0.0765184825968664,2338.26155372952
-0.0875945351481385,2338.27155372952
-0.0979646172467101,2338.28155372952
-0.107320778951225,2338.29155372952
-0.115353866817855,2338.30155372952
-0.122294426063735,2338.31155372952
-0.128465146798886,2338.32155372952
-0.134599890547198,2338.33155372952
-0.141777579908666,2338.34155372952
-0.149036790623178,2338.35155372952
-0.156554877840115,2338.36155372952
-0.164122819528306,2338.37155372952
-0.171972025513737,2338.38155372952
-0.179928681761732,2338.39155372952
-0.187368271782731,2338.40155372952
-0.195182982675355,2338.41155372952
-0.202703780616957,2338.42155372952
-0.20995047608948,2338.43155372952
-0.217261078862331,2338.44155372952
-0.224776833782092,2338.45155372952
-0.232579414786386,2338.46155372952
-0.2411369718341,2338.47155372952
-0.248998793208581,2338.48155372952
-0.253752528291784,2338.49155372952
-0.250906017749255,2338.50155372952
-0.232352268744127,2338.51155372952
-0.18797158813601,2338.52155372952
-0.108750512130882,2338.53155372952
0.00370874043087253,2338.54155372952
0.136396069195531,2338.55155372952
0.270954848453386,2338.56155372952
0.38981320149182,2338.57155372952
0.48203389661468,2338.58155372952
0.543175652419285,2338.59155372952
0.576285400143728,2338.60155372952
0.587237785649028,2338.61155372952
0.581881105923573,2338.62155372952
0.566053828213041,2338.63155372952
0.543790758319728,2338.64155372952
0.517134049280944,2338.65155372952
0.487579860857341,2338.66155372952
0.456968490215102,2338.67155372952
0.425876703015706,2338.68155372952
0.396737606211756,2338.69155372952
0.369815192534161,2338.70155372952
0.345398277807539,2338.71155372952
0.324398301501252,2338.72155372952
0.305914934189009,2338.73155372952
0.28887857680829,2338.74155372952
0.27215127031784,2338.75155372952
0.253771515970698,2338.76155372952
0.23278906445108,2338.77155372952
0.210151341905429,2338.78155372952
0.1879142090529,2338.79155372952
0.169034978128135,2338.80155372952
0.154866008191406,2338.81155372952
0.148405973372264,2338.82155372952
0.150323008298268,2338.83155372952
0.16088170130515,2338.84155372952
0.179385053967768,2338.85155372952
0.203123526108725,2338.86155372952
0.22895069446681,2338.87155372952
0.253467368695951,2338.88155372952
0.274565910658649,2338.89155372952
0.289813600190615,2338.90155372952
0.297486128274899,2338.91155372952
0.299139589212153,2338.92155372952
0.295714819444167,2338.93155372952
0.287525381814063,2338.94155372952
0.275821426427949,2338.95155372952
0.261300031927873,2338.96155372952
0.244134791439265,2338.97155372952
0.225273017236371,2338.98155372952
0.206115475012499,2338.99155372952
0.186660059821388,2339.00155372952
0.168143900284827,2339.01155372952
0.149682047490447,2339.02155372952
0.131542437227269,2339.03155372952
0.11328481214147,2339.04155372952
0.0958070623303748,2339.05155372952
0.0793560262828631,2339.06155372952
0.0635101036202323,2339.07155372952
0.0493214394150027,2339.08155372952
0.0352998406736593,2339.09155372952
0.0223211056130549,2339.10155372952
0.0101278261024361,2339.11155372952
-0.00144266910588262,2339.12155372952
-0.0121134459253658,2339.13155372952
-0.0228404116770232,2339.14155372952
-0.0326948268333723,2339.15155372952
-0.0426756687606104,2339.16155372952
-0.0532197718056176,2339.17155372952
-0.0642395590824301,2339.18155372952
-0.0742368045710435,2339.19155372952
-0.0828103892131235,2339.20155372952
-0.0900012959787749,2339.21155372952
-0.0966973345998206,2339.22155372952
-0.104194628175272,2339.23155372952
-0.112013953932908,2339.24155372952
-0.120178840077019,2339.25155372952
-0.128525341616024,2339.26155372952
-0.136765762150937,2339.27155372952
-0.14444207060626,2339.28155372952
-0.152327099861084,2339.29155372952
-0.159834108891353,2339.30155372952
-0.167488594453345,2339.31155372952
-0.17510556501148,2339.32155372952
-0.182701078067988,2339.33155372952
-0.191262381570942,2339.34155372952
-0.199293303137926,2339.35155372952
-0.206029627682117,2339.36155372952
-0.207749441686906,2339.37155372952
-0.198950942920776,2339.38155372952
-0.168919239171224,2339.39155372952
-0.109959484437354,2339.40155372952
-0.0167697901320516,2339.41155372952
0.104130020483892,2339.42155372952
0.237382616307207,2339.43155372952
0.365225545218178,2339.44155372952
0.472397721334456,2339.45155372952
0.551100395489083,2339.46155372952
0.601132922252555,2339.47155372952
0.626274851886203,2339.48155372952
0.632175975328156,2339.49155372952
0.624564299386946,2339.50155372952
0.606879547678319,2339.51155372952
0.582309797944754,2339.52155372952
0.553202608767656,2339.53155372952
0.521668371586253,2339.54155372952
0.489010608769025,2339.55155372952
0.457229803368241,2339.56155372952
0.426908983485276,2339.57155372952
0.399476584556301,2339.58155372952
0.375077388538711,2339.59155372952
0.354093850638438,2339.60155372952
0.335353560151541,2339.61155372952
0.318339619621415,2339.62155372952
0.300553944911083,2339.63155372952
0.280978489228206,2339.64155372952
0.259895698964013,2339.65155372952
0.238168139318226,2339.66155372952
0.216441701500572,2339.67155372952
0.199010740754816,2339.68155372952
0.188747411516553,2339.69155372952
0.187423927688943,2339.70155372952
0.195462956167104,2339.71155372952
0.211365334879299,2339.72155372952
0.233073518922123,2339.73155372952
0.257950766901926,2339.74155372952
0.283325985046328,2339.75155372952
0.306434543970574,2339.76155372952
0.325328432411558,2339.77155372952
0.338186152069113,2339.78155372952
0.345144276946387,2339.79155372952
0.345803472903254,2339.80155372952
0.341197957150177,2339.81155372952
0.33172205969561,2339.82155372952
0.318349624511501,2339.83155372952
0.302128918744986,2339.84155372952
0.283304069463492,2339.85155372952
0.263461969212671,2339.86155372952
0.242676761661901,2339.87155372952
0.221834093468076,2339.88155372952
0.201744002325238,2339.89155372952
0.181630270152873,2339.90155372952
0.162215576528808,2339.91155372952
0.142739886378205,2339.92155372952
0.123966624521755,2339.93155372952
0.105402890957851,2339.94155372952
0.0876187678001792,2339.95155372952
0.0708572860176078,2339.96155372952
0.0550307484739783,2339.97155372952
0.0406489188110125,2339.98155372952
0.0272704662619009,2339.99155372952
0.0148450869131951,2340.00155372952
0.00298887103897349,2340.01155372952
-0.00812187633432768,2340.02155372952
-0.0190789955513822,2340.03155372952
-0.0304447226232826,2340.04155372952
-0.0416203543716379,2340.05155372952
-0.0524404455953892,2340.06155372952
-0.0633365447855754,2340.07155372952
-0.0734836105275828,2340.08155372952
-0.0833152374521495,2340.09155372952
-0.0928051429541045,2340.10155372952
-0.102524413971755,2340.11155372952
-0.112534123404263,2340.12155372952
-0.1222094974119,2340.13155372952
-0.131826175106658,2340.14155372952
-0.140556161762981,2340.15155372952
-0.148979299880436,2340.16155372952
-0.15676941765098,2340.17155372952
-0.163972266955452,2340.18155372952
-0.171255596702553,2340.19155372952
-0.178576886807024,2340.20155372952
-0.186472529129869,2340.21155372952
-0.195114953912885,2340.22155372952
-0.204478270717885,2340.23155372952
-0.214597947869298,2340.24155372952
-0.224735348912574,2340.25155372952
-0.232955004215559,2340.26155372952
-0.235938953426966,2340.27155372952
-0.226759022038726,2340.28155372952
-0.195529912814945,2340.29155372952
-0.131700667147793,2340.30155372952
-0.0312011955789046,2340.31155372952
0.0976106961465035,2340.32155372952
0.237570264385226,2340.33155372952
0.369740980512756,2340.34155372952
0.478214200152121,2340.35155372952
0.556533015656934,2340.36155372952
0.605195023940247,2340.37155372952
0.629394801043133,2340.38155372952
0.635789917301059,2340.39155372952
0.62969333519102,2340.40155372952
0.615952195999292,2340.41155372952
0.597501352824815,2340.42155372952
0.576522502546371,2340.43155372952
0.554229564937286,2340.44155372952
0.531233494229024,2340.45155372952
0.508956396374941,2340.46155372952
0.488277271868394,2340.47155372952
0.470220955563031,2340.48155372952
0.455153160125106,2340.49155372952
0.443876235808792,2340.50155372952
0.435300525874272,2340.51155372952
0.42829284033574,2340.52155372952
0.420604928956806,2340.53155372952
0.41075798121698,2340.54155372952
0.397280599313552,2340.55155372952
0.379944618444145,2340.56155372952
0.36017497759681,2340.57155372952
0.342346927556676,2340.58155372952
0.328875132154839,2340.59155372952
0.322438631100723,2340.60155372952
0.32334374272321,2340.61155372952
0.331481996570477,2340.62155372952
0.344687348523172,2340.63155372952
0.361866058789644,2340.64155372952
0.380635598404245,2340.65155372952
0.399462597189941,2340.66155372952
0.41638557971729,2340.67155372952
0.430412736617388,2340.68155372952
0.440385486805329,2340.69155372952
0.445660520085794,2340.70155372952
0.446482799775907,2340.71155372952
0.443067725066476,2340.72155372952
0.436517788163627,2340.73155372952
0.426784663071944,2340.74155372952
0.414879980324501,2340.75155372952
0.401192127274029,2340.76155372952
0.385981335160216,2340.77155372952
0.370276838717313,2340.78155372952
0.354387898591548,2340.79155372952
0.339417873305505,2340.80155372952
0.3246828586297,2340.81155372952
0.310178581163826,2340.82155372952
0.296029172721694,2340.83155372952
0.282080531909389,2340.84155372952
0.269372317964377,2340.85155372952
0.25846804383678,2340.86155372952
0.249251839325434,2340.87155372952
0.242087019473423,2340.88155372952
0.236263704417524,2340.89155372952
0.231421684856032,2340.90155372952
0.227002902285887,2340.91155372952
0.223024032596129,2340.92155372952
0.218556230177691,2340.93155372952
0.214658077341118,2340.94155372952
0.210097498126705,2340.95155372952
0.205073728377537,2340.96155372952
0.199880246975675,2340.97155372952
0.193624755321401,2340.98155372952
0.18754830241411,2340.99155372952
0.182045111439486,2341.00155372952
0.177141450875321,2341.01155372952
0.173130807800416,2341.02155372952
0.170195695422305,2341.03155372952
0.167084751886583,2341.04155372952
0.164069577123165,2341.05155372952
0.160844961958776,2341.06155372952
0.157620931919916,2341.07155372952
0.153566017853996,2341.08155372952
0.149954646573108,2341.09155372952
0.146099340918761,2341.10155372952
0.141503919076591,2341.11155372952
0.13636233857465,2341.12155372952
0.131191371799443,2341.13155372952
0.125078602153478,2341.14155372952
0.117334978373472,2341.15155372952
0.107917121454156,2341.16155372952
0.0962750934455371,2341.17155372952
0.0827981147501225,2341.18155372952
0.0703825046605597,2341.19155372952
0.0629023939973962,2341.20155372952
0.0682159581671171,2341.21155372952
0.0950283012189662,2341.22155372952
0.147752889338824,2341.23155372952
0.225354749434052,2341.24155372952
0.316472455530761,2341.25155372952
0.409528657183887,2341.26155372952
0.492360000674608,2341.27155372952
0.557799341126146,2341.28155372952
0.603142813158099,2341.29155372952
0.629586364372748,2341.30155372952
0.640659061035954,2341.31155372952
0.639900816388106,2341.32155372952
0.630557390893331,2341.33155372952
0.615773791707991,2341.34155372952
0.597472761464177,2341.35155372952
0.577016176429709,2341.36155372952
0.555576583953099,2341.37155372952
0.534064790522906,2341.38155372952
0.513655223213362,2341.39155372952
0.495508249550748,2341.40155372952
0.480293923268132,2341.41155372952
0.468469439494888,2341.42155372952
0.459377286070016,2341.43155372952
0.452576026000119,2341.44155372952
0.445672835796732,2341.45155372952
0.436985887281448,2341.46155372952
0.42457997963595,2341.47155372952
0.407252484160468,2341.48155372952
0.386082314718848,2341.49155372952
0.362456740236092,2341.50155372952
0.339147116169184,2341.51155372952
0.318326166144129,2341.52155372952
0.301722785574951,2341.53155372952
0.290703335405841,2341.54155372952
0.284613108598395,2341.55155372952
0.283594645750656,2341.56155372952
0.287006962975759,2341.57155372952
0.293401848877837,2341.58155372952
0.301238919232107,2341.59155372952
0.308794576969893,2341.60155372952
0.315395683202677,2341.61155372952
0.319468091145299,2341.62155372952
0.320510891755109,2341.63155372952
0.318041790279555,2341.64155372952
0.311634175099352,2341.65155372952
0.300703416625222,2341.66155372952
0.286168583092348,2341.67155372952
0.267650215469581,2341.68155372952
0.24586770523076,2341.69155372952
0.221853908212788,2341.70155372952
0.196415618525276,2341.71155372952
0.171209405998353,2341.72155372952
0.147209768740416,2341.73155372952
0.123891966726412,2341.74155372952
0.102315516142717,2341.75155372952
0.0817094606400737,2341.76155372952
0.0628424575038403,2341.77155372952
0.0459614889803318,2341.78155372952
0.0308777309400091,2341.79155372952
0.0166171477840009,2341.80155372952
0.00302811645448381,2341.81155372952
-0.0113695334717062,2341.82155372952
-0.0272918255084098,2341.83155372952
-0.044647666205232,2341.84155372952
-0.0635204634789518,2341.85155372952
-0.0821561626870434,2341.86155372952
-0.0996170932525807,2341.87155372952
-0.114737503764372,2341.88155372952
-0.127035156576519,2341.89155372952
-0.137821799560066,2341.90155372952
-0.147701268012176,2341.91155372952
-0.157577640524034,2341.92155372952
-0.167984857204789,2341.93155372952
-0.179212539067595,2341.94155372952
-0.190300049397123,2341.95155372952
-0.201660370891292,2341.96155372952
-0.212128049035459,2341.97155372952
-0.221774376736857,2341.98155372952
-0.231096204484596,2341.99155372952
-0.240354600306469,2342.00155372952
-0.249879257764763,2342.01155372952
-0.260281483328342,2342.02155372952
-0.271286660311261,2342.03155372952
-0.282932412890296,2342.04155372952
-0.294861859741146,2342.05155372952
-0.306777504483433,2342.06155372952
-0.319873219843686,2342.07155372952
-0.332872145395252,2342.08155372952
-0.346436715266565,2342.09155372952
-0.36005297206241,2342.10155372952
-0.372955577279705,2342.11155372952
-0.384089014230638,2342.12155372952
-0.390869168842963,2342.13155372952
-0.388525457354174,2342.14155372952
-0.369095015070625,2342.15155372952
-0.323075231995952,2342.16155372952
-0.243994626549096,2342.17155372952
-0.135622107951759,2342.18155372952
-0.0110550084375056,2342.19155372952
0.112480301856753,2342.20155372952
0.218860035982743,2342.21155372952
0.298853148115665,2342.22155372952
0.350185258648769,2342.23155372952
0.375077694648565,2342.24155372952
0.379097908025817,2342.25155372952
0.368402805158494,2342.26155372952
0.348294383606123,2342.27155372952
0.321019528534134,2342.28155372952
0.290276845133216,2342.29155372952
0.257133173191844,2342.30155372952
0.222906449630906,2342.31155372952
0.189029301033501,2342.32155372952
0.156574076549308,2342.33155372952
0.125841261223086,2342.34155372952
0.0961300034903768,2342.35155372952
0.0663706636400372,2342.36155372952
0.0356820875950772,2342.37155372952
0.00444657045102446,2342.38155372952
-0.0265313490692983,2342.39155372952
-0.05690410725409,2342.40155372952
-0.0845927689473416,2342.41155372952
-0.10762231412473,2342.42155372952
-0.123960456308193,2342.43155372952
-0.13217182133964,2342.44155372952
-0.131347467735003,2342.45155372952
-0.121683808460449,2342.46155372952
-0.104029484208536,2342.47155372952
-0.0803671487791282,2342.48155372952
-0.05279793971324,2342.49155372952
-0.0242442321654826,2342.50155372952
0.00248374652452713,2342.51155372952
0.0248203880868235,2342.52155372952
0.0408968263529374,2342.53155372952
0.0500919299540241,2342.54155372952
0.0523317811123288,2342.55155372952
0.0483405119098586,2342.56155372952
0.039517827453531,2342.57155372952
0.0270856125855124,2342.58155372952
0.011969333711333,2342.59155372952
-0.00519908273395398,2342.60155372952
-0.023684766477933,2342.61155372952
-0.0428301500039014,2342.62155372952
-0.0626508582882004,2342.63155372952
-0.0821519541114802,2342.64155372952
-0.101428957984104,2342.65155372952
-0.119844262410233,2342.66155372952
-0.137441580447782,2342.67155372952
-0.154835210189008,2342.68155372952
-0.171910183165992,2342.69155372952
-0.188680770878894,2342.70155372952
-0.205589497609407,2342.71155372952
-0.221527183546732,2342.72155372952
-0.236378090025915,2342.73155372952
-0.250322446002636,2342.74155372952
-0.262273604449835,2342.75155372952
-0.27349918494518,2342.76155372952
-0.284148931427368,2342.77155372952
-0.29421729222328,2342.78155372952
-0.303573183005296,2342.79155372952
-0.312892232998639,2342.80155372952
-0.322196138156051,2342.81155372952
-0.331136587229581,2342.82155372952
-0.340081264580314,2342.83155372952
-0.349014349967146,2342.84155372952
-0.35776170175032,2342.85155372952
-0.366417787688156,2342.86155372952
-0.375259045977442,2342.87155372952
-0.383969429963026,2342.88155372952
-0.392197726123164,2342.89155372952
-0.39995926634799,2342.90155372952
-0.406931481732411,2342.91155372952
-0.412973494870748,2342.92155372952
-0.418853097350672,2342.93155372952
-0.424796847375391,2342.94155372952
-0.431355293527961,2342.95155372952
-0.437732885261588,2342.96155372952
-0.443794290155383,2342.97155372952
-0.448591374332537,2342.98155372952
-0.449498702531217,2342.99155372952
-0.44085232732474,2343.00155372952
-0.413226169530708,2343.01155372952
-0.356992283308085,2343.02155372952
-0.26728891587145,2343.03155372952
-0.149503592429439,2343.04155372952
-0.018241000029739,2343.05155372952
0.107207713972044,2343.06155372952
0.212852772260778,2343.07155372952
0.290735001219081,2343.08155372952
0.339135615338767,2343.09155372952
0.363392701693191,2343.10155372952
0.368368202936008,2343.11155372952
0.360059649818492,2343.12155372952
0.342716988157275,2343.13155372952
0.318629740526891,2343.14155372952
0.289643939259154,2343.15155372952
0.258049511264713,2343.16155372952
0.224492647236108,2343.17155372952
0.191073976600172,2343.18155372952
0.158313448227269,2343.19155372952
0.127883016383111,2343.20155372952
0.100202295178497,2343.21155372952
0.0747066891021191,2343.22155372952
0.0512233391176121,2343.23155372952
0.0276135921812636,2343.24155372952
0.00341891888298798,2343.25155372952
-0.0210175215027542,2343.26155372952
-0.0450734342944269,2343.27155372952
-0.0662242367308754,2343.28155372952
-0.082775655013293,2343.29155372952
-0.0923504488176994,2343.30155372952
-0.0927708334817081,2343.31155372952
-0.0832219224353624,2343.32155372952
-0.0640417677739162,2343.33155372952
-0.0381574578984644,2343.34155372952
-0.00763964757537705,2343.35155372952
0.0230406323084807,2343.36155372952
0.0515471164372226,2343.37155372952
0.0750181926425737,2343.38155372952
0.0914381744389534,2343.39155372952
0.10039197927851,2343.40155372952
0.102089915348384,2343.41155372952
0.0980118553355931,2343.42155372952
0.088259310806724,2343.43155372952
0.0745618357639676,2343.44155372952
0.0582722081586446,2343.45155372952
0.0401822312219777,2343.46155372952
0.0217969517625313,2343.47155372952
0.00363730354244136,2343.48155372952
-0.0143431058685791,2343.49155372952
-0.0312200237454989,2343.50155372952
-0.0478918661404641,2343.51155372952
-0.063658672381123,2343.52155372952
-0.0793205035013578,2343.53155372952
-0.0947438320910029,2343.54155372952
-0.109341337558632,2343.55155372952
-0.123230045192599,2343.56155372952
-0.136516136219401,2343.57155372952
-0.149331656006551,2343.58155372952
-0.161759579156615,2343.59155372952
-0.174197699955399,2343.60155372952
-0.18686708407578,2343.61155372952
-0.199117554610159,2343.62155372952
-0.211343257132437,2343.63155372952
-0.222906659377359,2343.64155372952
-0.233975476446172,2343.65155372952
-0.244230055973854,2343.66155372952
-0.254207365297241,2343.67155372952
-0.264046901802944,2343.68155372952
-0.273874733157841,2343.69155372952
-0.283654545664773,2343.70155372952
-0.293543838713987,2343.71155372952
-0.303182470282026,2343.72155372952
-0.312073806125322,2343.73155372952
-0.320384619678129,2343.74155372952
-0.328021986562069,2343.75155372952
-0.336174476190374,2343.76155372952
-0.344837942476326,2343.77155372952
-0.354246094165709,2343.78155372952
-0.362908307651615,2343.79155372952
-0.369438914910296,2343.80155372952
-0.370051337027251,2343.81155372952
-0.358345093886184,2343.82155372952
-0.323138461163682,2343.83155372952
-0.255454416580337,2343.84155372952
-0.152370174756326,2343.85155372952
-0.0242090958730852,2343.86155372952
0.111211478620152,2343.87155372952
0.235692243042366,2343.88155372952
0.336824303424951,2343.89155372952
0.40938009617658,2343.90155372952
0.454176841505772,2343.91155372952
0.47745309051087,2343.92155372952
0.484853669794063,2343.93155372952
0.481444980367288,2343.94155372952
0.471137104291115,2343.95155372952
0.455304536377257,2343.96155372952
0.434505374832805,2343.97155372952
0.410303508313052,2343.98155372952
0.384594186503685,2343.99155372952
0.359321938571846,2344.00155372952
0.336296448860263,2344.01155372952
0.315993501322567,2344.02155372952
0.298752751135772,2344.03155372952
0.284406158098083,2344.04155372952
0.271981211411766,2344.05155372952
0.26092894364993,2344.06155372952
0.24988574154219,2344.07155372952
0.236232481091103,2344.08155372952
0.219820120913252,2344.09155372952
0.200488523738692,2344.10155372952
0.179490866130643,2344.11155372952
0.15926051928457,2344.12155372952
0.142110940755199,2344.13155372952
0.1306215115987,2344.14155372952
0.125273455246194,2344.15155372952
0.126745040189219,2344.16155372952
0.135016675732193,2344.17155372952
0.148133869019288,2344.18155372952
0.165462086150868,2344.19155372952
0.183490607310463,2344.20155372952
0.200273247565817,2344.21155372952
0.213739756348492,2344.22155372952
0.223493063135521,2344.23155372952
0.228588216692866,2344.24155372952
0.229207516447677,2344.25155372952
0.225779330116559,2344.26155372952
0.218722241011147,2344.27155372952
0.208867417059616,2344.28155372952
0.196452584260109,2344.29155372952
0.182558596214457,2344.30155372952
0.167334867172739,2344.31155372952
0.151330744117409,2344.32155372952
0.13495458192707,2344.33155372952
0.118840152805214,2344.34155372952
0.103266867889538,2344.35155372952
0.0885040015499559,2344.36155372952
0.0745147600178194,2344.37155372952
0.0607451684190024,2344.38155372952
0.0471204403951484,2344.39155372952
0.033347455231902,2344.40155372952
0.0202074660062593,2344.41155372952
0.00788540984926246,2344.42155372952
-0.00357190737689494,2344.43155372952
-0.0139451037491583,2344.44155372952
-0.0241919512652038,2344.45155372952
-0.0333713681158994,2344.46155372952
-0.0422736981584929,2344.47155372952
-0.0502463129919358,2344.48155372952
-0.0574186226566765,2344.49155372952
-0.0643251558899325,2344.50155372952
-0.0714105973971958,2344.51155372952
-0.0783728428222775,2344.52155372952
-0.0852611866250917,2344.53155372952
-0.0915175014003566,2344.54155372952
-0.0984393143852541,2344.55155372952
-0.105382698172637,2344.56155372952
-0.111829909909323,2344.57155372952
-0.119064081548823,2344.58155372952
-0.126903095716766,2344.59155372952
-0.135193763567093,2344.60155372952
-0.144013697292094,2344.61155372952
-0.153034325604893,2344.62155372952
-0.161674792841446,2344.63155372952
-0.167766485238117,2344.64155372952
-0.167333716030597,2344.65155372952
-0.152200286969081,2344.66155372952
-0.112808872233214,2344.67155372952
-0.043201469578144,2344.68155372952
0.0543055216613398,2344.69155372952
0.167920584821178,2344.70155372952
0.282734211193938,2344.71155372952
0.385110846699518,2344.72155372952
0.465912420694599,2344.73155372952
0.523167385799598,2344.74155372952
0.558735307831101,2344.75155372952
0.575698966545859,2344.76155372952
0.579058924423625,2344.77155372952
0.57272018158898,2344.78155372952
0.559957839796599,2344.79155372952
0.543261730045413,2344.80155372952
0.52337523055585,2344.81155372952
0.501676092334279,2344.82155372952
0.479008165118425,2344.83155372952
0.456034861806446,2344.84155372952
0.434258821654833,2344.85155372952
0.414728157075005,2344.86155372952
0.397440513908437,2344.87155372952
0.381396022086327,2344.88155372952
0.366723579179742,2344.89155372952
0.35082721796821,2344.90155372952
0.332914493412817,2344.91155372952
0.312291800721027,2344.92155372952
0.289222506233885,2344.93155372952
0.265869213122516,2344.94155372952
0.244020976975427,2344.95155372952
0.226062369970519,2344.96155372952
0.214468355405441,2344.97155372952
0.209989432313911,2344.98155372952
0.212892137517907,2344.99155372952
0.222511087999598,2345.00155372952
0.237419537806736,2345.01155372952
0.255720639690432,2345.02155372952
0.274507845256061,2345.03155372952
0.291903838191061,2345.04155372952
0.305899184127826,2345.05155372952
0.315623432072609,2345.06155372952
0.320697629031779,2345.07155372952
0.320979663433366,2345.08155372952
0.316443930427088,2345.09155372952
0.308285380648479,2345.10155372952
0.296299622114846,2345.11155372952
0.281870272115553,2345.12155372952
0.265495531140027,2345.13155372952
0.248359328434842,2345.14155372952
0.230554902853669,2345.15155372952
0.212630141002252,2345.16155372952
0.195055172463919,2345.17155372952
0.177930644616832,2345.18155372952
0.1606344311039,2345.19155372952
0.143956110347303,2345.20155372952
0.127441172257546,2345.21155372952
0.111170961436672,2345.22155372952
0.0951223374701981,2345.23155372952
0.0799933160806131,2345.24155372952
0.0652156714702166,2345.25155372952
0.0509346568142785,2345.26155372952
0.0374606599958406,2345.27155372952
0.0250228511651761,2345.28155372952
0.0129603943092488,2345.29155372952
0.00150402292190121,2345.30155372952
-0.00920738502552727,2345.31155372952
-0.0197444840508933,2345.32155372952
-0.0292056054169261,2345.33155372952
-0.0383482858081804,2345.34155372952
-0.0468025910638372,2345.35155372952
-0.0552678998964155,2345.36155372952
-0.063662642806761,2345.37155372952
-0.0721488143619109,2345.38155372952
-0.0809153448839789,2345.39155372952
-0.0891401829086602,2345.40155372952
-0.097341785931051,2345.41155372952
-0.105121691520928,2345.42155372952
-0.112349298606964,2345.43155372952
-0.119693087964242,2345.44155372952
-0.126706757884406,2345.45155372952
-0.1343595140062,2345.46155372952
-0.142759460432061,2345.47155372952
-0.151123567835218,2345.48155372952
-0.159219112697442,2345.49155372952
-0.166618477280722,2345.50155372952
-0.169677865241421,2345.51155372952
-0.163267213719214,2345.52155372952
-0.137923452728947,2345.53155372952
-0.0844061068698981,2345.54155372952
