PPG,time
0.0199159593549966,1769.87890991409
0.0302089934542533,1769.88890991409
0.00985223820835963,1769.89890991409
-0.00550073760189671,1769.90890991409
-0.0276878856651302,1769.91890991409
-0.0485250199414462,1769.92890991409
-0.0724624334926034,1769.93890991409
-0.0956089047558928,1769.94890991409
-0.119809720305765,1769.95890991409
-0.145585737691198,1769.96890991409
-0.172424508168851,1769.97890991409
-0.199715312390758,1769.98890991409
-0.226362391036194,1769.99890991409
-0.251559401899726,1770.00890991409
-0.275012955808896,1770.01890991409
-0.296888686550343,1770.02890991409
-0.317410363541676,1770.03890991409
-0.336310419918161,1770.04890991409
-0.353383662030579,1770.05890991409
-0.369198957445542,1770.06890991409
-0.38382850858158,1770.07890991409
-0.39769414592636,1770.08890991409
-0.411484654968041,1770.09890991409
-0.42520190109433,1770.10890991409
-0.439376563332178,1770.11890991409
-0.454782511434194,1770.12890991409
-0.471087359147009,1770.13890991409
-0.487900823484781,1770.14890991409
-0.50508687721714,1770.15890991409
-0.521757136221907,1770.16890991409
-0.537733186256725,1770.17890991409
-0.55209577438051,1770.18890991409
-0.564687174546058,1770.19890991409
-0.575398948871202,1770.20890991409
-0.581100524386798,1770.21890991409
-0.576346348537859,1770.22890991409
-0.548606629510935,1770.23890991409
-0.481489711031791,1770.24890991409
-0.362136700950799,1770.25890991409
-0.188709594789309,1770.26890991409
0.0241879818569946,1770.27890991409
0.251211830270495,1770.28890991409
0.461473454486943,1770.29890991409
0.63022955421606,1770.30890991409
0.743964525958605,1770.31890991409
0.802756579220798,1770.32890991409
0.814208581916757,1770.33890991409
0.791498490804332,1770.34890991409
0.747599519555033,1770.35890991409
0.69221119577861,1770.36890991409
0.632399699536062,1770.37890991409
0.571158658332247,1770.38890991409
0.511299926954526,1770.39890991409
0.453607637254209,1770.40890991409
0.399290626374141,1770.41890991409
0.349021389749405,1770.42890991409
0.302957197038135,1770.43890991409
0.261930802892405,1770.44890991409
0.225662104467569,1770.45890991409
0.19379248109122,1770.46890991409
0.165032158659852,1770.47890991409
0.136897167041963,1770.48890991409
0.106737051546704,1770.49890991409
0.0726417228997904,1770.50890991409
0.0324456209921588,1770.51890991409
-0.0130678826891546,1770.52890991409
-0.0612905877833257,1770.53890991409
-0.107065622863239,1770.54890991409
-0.144549506110411,1770.55890991409
-0.169565236311262,1770.56890991409
-0.180313428342322,1770.57890991409
-0.176807716940326,1770.58890991409
-0.160995618035123,1770.59890991409
-0.136203667625205,1770.60890991409
-0.105890847715862,1770.61890991409
-0.0736567608337018,1770.62890991409
-0.0425051663282221,1770.63890991409
-0.0145344619338126,1770.64890991409
0.00764103436047928,1770.65890991409
0.0244973130751143,1770.66890991409
0.0344613124546677,1770.67890991409
0.037235974612853,1770.68890991409
0.0342275355442503,1770.69890991409
0.0256250167578654,1770.70890991409
0.0130708869615881,1770.71890991409
-0.0031018704053393,1770.72890991409
-0.0215152023387196,1770.73890991409
-0.0423537313831976,1770.74890991409
-0.0643008103459409,1770.75890991409
-0.0877304456069791,1770.76890991409
-0.11198792942388,1770.77890991409
-0.136251496463701,1770.78890991409
-0.16043864372306,1770.79890991409
-0.183696724956214,1770.80890991409
-0.20575722066713,1770.81890991409
-0.226205274514485,1770.82890991409
-0.245579433443234,1770.83890991409
-0.263849614791172,1770.84890991409
-0.281362813238488,1770.85890991409
-0.29761213969032,1770.86890991409
-0.31316121765899,1770.87890991409
-0.327847046196112,1770.88890991409
-0.342166508523431,1770.89890991409
-0.356719151999075,1770.90890991409
-0.371872927344885,1770.91890991409
-0.388043975569403,1770.92890991409
-0.405063931780563,1770.93890991409
-0.421857269462008,1770.94890991409
-0.438297038912808,1770.95890991409
-0.453939503754505,1770.96890991409
-0.467908964723366,1770.97890991409
-0.480539947202524,1770.98890991409
-0.490192462875403,1770.99890991409
-0.494913311597886,1771.00890991409
-0.487551406159006,1771.01890991409
-0.4570946610772,1771.02890991409
-0.387726531954067,1771.03890991409
-0.267362785991294,1771.04890991409
-0.0957631315833527,1771.05890991409
0.112748583877141,1771.06890991409
0.33258065450361,1771.07890991409
0.53417881372081,1771.08890991409
0.693563021743821,1771.09890991409
0.799426937148099,1771.10890991409
0.852406363070566,1771.11890991409
0.861016653940332,1771.12890991409
0.837860503057923,1771.13890991409
0.794572920123152,1771.14890991409
0.741265988434459,1771.15890991409
0.683446057760643,1771.16890991409
0.62570195590215,1771.17890991409
0.570236816119536,1771.18890991409
0.517621955408618,1771.19890991409
0.468302437060759,1771.20890991409
0.423190739615055,1771.21890991409
0.382030119796463,1771.22890991409
0.345246893380896,1771.23890991409
0.312931930829836,1771.24890991409
0.284549556341736,1771.25890991409
0.258764358290422,1771.26890991409
0.232914837877266,1771.27890991409
0.20463560650682,1771.28890991409
0.171157916667896,1771.29890991409
0.131202082538874,1771.30890991409
0.0865059404899466,1771.31890991409
0.0400716253490173,1771.32890991409
-0.00381782368236407,1771.33890991409
-0.0392713470288328,1771.34890991409
-0.0629396719765795,1771.35890991409
-0.0729283976642892,1771.36890991409
-0.0694530586113173,1771.37890991409
-0.0551960066755417,1771.38890991409
-0.0337040880556085,1771.39890991409
-0.00832351460247094,1771.40890991409
0.0180508399236492,1771.41890991409
0.0427191716459341,1771.42890991409
0.0646490648020415,1771.43890991409
0.0821016577842374,1771.44890991409
0.0938808268730428,1771.45890991409
0.0996488807706666,1771.46890991409
0.0992305995365773,1771.47890991409
0.0931151573397021,1771.48890991409
0.082631753787154,1771.49890991409
0.0678959904355047,1771.50890991409
0.0499979228826443,1771.51890991409
0.0296331222856984,1771.52890991409
0.00758520417705446,1771.53890991409
-0.0157186186715945,1771.54890991409
-0.0402399803262106,1771.55890991409
-0.0654486899820825,1771.56890991409
-0.0906973593823374,1771.57890991409
-0.11526643187959,1771.58890991409
-0.138129868849756,1771.59890991409
-0.159866633481744,1771.60890991409
-0.180221743425627,1771.61890991409
-0.199225150806564,1771.62890991409
-0.217452423736915,1771.63890991409
-0.23504132020576,1771.64890991409
-0.251357092218989,1771.65890991409
-0.26687059667532,1771.66890991409
-0.281232645834624,1771.67890991409
-0.295197714307428,1771.68890991409
-0.308696705858922,1771.69890991409
-0.322958120469154,1771.70890991409
-0.338599277747349,1771.71890991409
-0.355780843773714,1771.72890991409
-0.374446496032418,1771.73890991409
-0.393802573218064,1771.74890991409
-0.412528796163698,1771.75890991409
-0.430112927092942,1771.76890991409
-0.445748165884441,1771.77890991409
-0.459260859015306,1771.78890991409
-0.468945181910556,1771.79890991409
-0.471553028618412,1771.80890991409
-0.459411908746806,1771.81890991409
-0.418955923796719,1771.82890991409
-0.334445331894835,1771.83890991409
-0.196314124850613,1771.84890991409
-0.00745808035694218,1771.85890991409
0.21254223961843,1771.86890991409
0.436023229490162,1771.87890991409
0.632235813568229,1771.88890991409
0.780221765348504,1771.89890991409
0.872792276141811,1771.90890991409
0.914416890930384,1771.91890991409
0.916368445257058,1771.92890991409
0.891718637578494,1771.93890991409
0.851474889308149,1771.94890991409
0.803388676492874,1771.95890991409
0.752616561874158,1771.96890991409
0.701917314649897,1771.97890991409
0.653689974832906,1771.98890991409
0.607955480756983,1771.99890991409
0.565808978087048,1772.00890991409
0.527627454126067,1772.01890991409
0.493908644281161,1772.02890991409
0.464601602502223,1772.03890991409
0.439791830373482,1772.04890991409
0.417937418172292,1772.05890991409
0.398173612940491,1772.06890991409
0.377776928003951,1772.07890991409
0.354731627604451,1772.08890991409
0.326039721612707,1772.09890991409
0.289518569626337,1772.10890991409
0.246130477793521,1772.11890991409
0.197554908136495,1772.12890991409
0.14837483280315,1772.13890991409
0.102951892953037,1772.14890991409
0.0662274858634268,1772.15890991409
0.0404678854895029,1772.16890991409
0.0271744199490407,1772.17890991409
0.0260550002563206,1772.18890991409
0.0351219089402783,1772.19890991409
0.0521120000158465,1772.20890991409
0.0737546186988822,1772.21890991409
0.0976009115422518,1772.22890991409
0.120538367839273,1772.23890991409
0.141252574527138,1772.24890991409
0.157863521792843,1772.25890991409
0.168801412385589,1772.26890991409
0.174039140690668,1772.27890991409
0.173110244876284,1772.28890991409
0.166461326825504,1772.29890991409
0.154069389681573,1772.30890991409
0.137339894333549,1772.31890991409
0.117618096588893,1772.32890991409
0.0955570340753177,1772.33890991409
0.0719649120113201,1772.34890991409
0.0474423532118446,1772.35890991409
0.021544228737719,1772.36890991409
-0.00484352566449315,1772.37890991409
-0.032524534822539,1772.38890991409
-0.0605777434900232,1772.39890991409
-0.0892055409436681,1772.40890991409
-0.117126106419169,1772.41890991409
-0.143716440856918,1772.42890991409
-0.168230855961273,1772.43890991409
-0.190965119933069,1772.44890991409
-0.211726418945922,1772.45890991409
-0.230662406500736,1772.46890991409
-0.248630992138714,1772.47890991409
-0.265950538794091,1772.48890991409
-0.281830473870815,1772.49890991409
-0.29794569925905,1772.50890991409
-0.313451393893745,1772.51890991409
-0.329680783011225,1772.52890991409
-0.346126231628806,1772.53890991409
-0.36326744104197,1772.54890991409
-0.38063718674125,1772.55890991409
-0.398285201693859,1772.56890991409
-0.41590170598672,1772.57890991409
-0.433633603153658,1772.58890991409
-0.450876405322408,1772.59890991409
-0.46701471728463,1772.60890991409
-0.481745361163355,1772.61890991409
-0.493436249620719,1772.62890991409
-0.499647525188818,1772.63890991409
-0.494081630715892,1772.64890991409
-0.46486800903971,1772.65890991409
-0.396327783239086,1772.66890991409
-0.27452182454766,1772.67890991409
-0.0976519009709158,1772.68890991409
0.119979954829953,1772.69890991409
0.351320003853709,1772.70890991409
0.564557193195708,1772.71890991409
0.733726239564838,1772.72890991409
0.847095133873048,1772.73890991409
0.904698417957615,1772.74890991409
0.917201014151434,1772.75890991409
0.897777434422597,1772.76890991409
0.858969145108441,1772.77890991409
0.809186557327495,1772.78890991409
0.754489871626883,1772.79890991409
0.698935509204686,1772.80890991409
0.643711592297095,1772.81890991409
0.590962745766094,1772.82890991409
0.540918422280379,1772.83890991409
0.49554751738755,1772.84890991409
0.454645833462135,1772.85890991409
0.418541013932524,1772.86890991409
0.387427402233434,1772.87890991409
0.360525315733377,1772.88890991409
0.336898933983549,1772.89890991409
0.314022156066065,1772.90890991409
0.289231474533319,1772.91890991409
0.260186667863294,1772.92890991409
0.224058399571363,1772.93890991409
0.180679712740689,1772.94890991409
0.131189537622626,1772.95890991409
0.0801893441546806,1772.96890991409
0.0316283075991563,1772.97890991409
-0.0091935675720063,1772.98890991409
-0.0383781925606946,1772.99890991409
-0.0534522898890397,1773.00890991409
-0.0550857591624744,1773.01890991409
-0.0441299542216849,1773.02890991409
-0.0233892465014428,1773.03890991409
0.0027364206678829,1773.04890991409
0.0318504240437393,1773.05890991409
0.0605883828341888,1773.06890991409
0.0859635737848256,1773.07890991409
0.106477428296219,1773.08890991409
0.120822042474967,1773.09890991409
0.12812731862486,1773.10890991409
0.128309511498595,1773.11890991409
0.121913553141353,1773.12890991409
0.109953341004488,1773.13890991409
0.0933855277282711,1773.14890991409
0.0739421460170386,1773.15890991409
0.0520366303235232,1773.16890991409
0.0283811856890048,1773.17890991409
0.00365333752894103,1773.18890991409
-0.0211649895309804,1773.19890991409
-0.0466563287091702,1773.20890991409
-0.0726965209406839,1773.21890991409
-0.0989619267425397,1773.22890991409
-0.124736234335145,1773.23890991409
-0.149523841499714,1773.24890991409
-0.173612549159045,1773.25890991409
-0.196391238567878,1773.26890991409
-0.218510589667405,1773.27890991409
-0.23910395845002,1773.28890991409
-0.25841741459293,1773.29890991409
-0.276350376456194,1773.30890991409
-0.293641058045655,1773.31890991409
-0.310745901844827,1773.32890991409
-0.327658252090703,1773.33890991409
-0.34500733891199,1773.34890991409
-0.362465327822901,1773.35890991409
-0.379983949709104,1773.36890991409
-0.397527714952652,1773.37890991409
-0.414338140111668,1773.38890991409
-0.430141368649854,1773.39890991409
-0.445373346146453,1773.40890991409
-0.459032920760444,1773.41890991409
-0.470899458028504,1773.42890991409
-0.480775252136922,1773.43890991409
-0.486145094528874,1773.44890991409
-0.480027932238349,1773.45890991409
-0.451017031293192,1773.46890991409
-0.382343707626174,1773.47890991409
-0.262389971408891,1773.48890991409
-0.0910267066679236,1773.49890991409
0.117370148614485,1773.50890991409
0.336149905212104,1773.51890991409
0.536132308793104,1773.52890991409
0.693349907301117,1773.53890991409
0.796848617547081,1773.54890991409
0.84782573472209,1773.55890991409
0.855705309926021,1773.56890991409
0.832286064751972,1773.57890991409
0.789101984968805,1773.58890991409
0.734936547374249,1773.59890991409
0.675725573794398,1773.60890991409
0.614761328452415,1773.61890991409
0.55426708642575,1773.62890991409
0.495585536813983,1773.63890991409
0.440409675646458,1773.64890991409
0.389667958115331,1773.65890991409
0.343818026704341,1773.66890991409
0.303279579517062,1773.67890991409
0.267374767554154,1773.68890991409
0.234740743232565,1773.69890991409
0.202466705338994,1773.70890991409
0.169136677709945,1773.71890991409
0.131589370863212,1773.72890991409
0.0886593316009133,1773.73890991409
0.041265029114947,1773.74890991409
-0.00836417661277193,1773.75890991409
-0.0558701080813274,1773.76890991409
-0.0954434562326386,1773.77890991409
-0.123042171946314,1773.78890991409
-0.136179707915561,1773.79890991409
-0.134824190599714,1773.80890991409
-0.120221226552929,1773.81890991409
-0.0959060077693138,1773.82890991409
-0.0653261682110538,1773.83890991409
-0.0326965677181418,1773.84890991409
-0.00159268941177388,1773.85890991409
0.0256864310124632,1773.86890991409
0.0471085036196546,1773.87890991409
0.0624066595338404,1773.88890991409
0.070966764138631,1773.89890991409
0.0724426319168565,1773.90890991409
0.0682532218404848,1773.91890991409
0.0589779540383392,1773.92890991409
0.0455945668481472,1773.93890991409
0.0284616241723389,1773.94890991409
0.00913613494462777,1773.95890991409
-0.0115785749005952,1773.96890991409
-0.0331346020539574,1773.97890991409
-0.0553194716587353,1773.98890991409
-0.0772515106481366,1773.99890991409
-0.0988129378719853,1774.00890991409
-0.120006244707029,1774.01890991409
-0.140737593359351,1774.02890991409
-0.160911910014836,1774.03890991409
-0.180457064941866,1774.04890991409
-0.199648714688389,1774.05890991409
-0.217579178358957,1774.06890991409
-0.235186326184364,1774.07890991409
-0.252054723225726,1774.08890991409
-0.268062814090307,1774.09890991409
-0.284555164057219,1774.10890991409
-0.301390816067935,1774.11890991409
-0.318553528418128,1774.12890991409
-0.336266246056537,1774.13890991409
-0.354719444524525,1774.14890991409
-0.37390216763152,1774.15890991409
-0.392936541466602,1774.16890991409
-0.410398796064837,1774.17890991409
-0.425758155593091,1774.18890991409
-0.438398962659149,1774.19890991409
-0.447351848718265,1774.20890991409
-0.451188880659198,1774.21890991409
-0.441481276159544,1774.22890991409
-0.405963654663663,1774.23890991409
-0.328807452488617,1774.24890991409
-0.199204800660111,1774.25890991409
-0.0196618482123674,1774.26890991409
0.192796046404148,1774.27890991409
0.410461294664484,1774.28890991409
0.604323163564341,1774.29890991409
0.752965059855551,1774.30890991409
0.848487363283399,1774.31890991409
0.89318892200104,1774.32890991409
0.897945348982081,1774.33890991409
0.875681587210423,1774.34890991409
0.835870881804692,1774.35890991409
0.787760824419333,1774.36890991409
0.735255232496612,1774.37890991409
0.681936843830982,1774.38890991409
0.629815966759109,1774.39890991409
0.579469524616219,1774.40890991409
0.532951920505124,1774.41890991409
0.490163811214991,1774.42890991409
0.451978772201228,1774.43890991409
0.418363449280029,1774.44890991409
0.389177794975695,1774.45890991409
0.363566491229168,1774.46890991409
0.339720907419522,1774.47890991409
0.315705842415578,1774.48890991409
0.288108838101012,1774.49890991409
0.254627395086398,1774.50890991409
0.214115379489079,1774.51890991409
0.167779108201378,1774.52890991409
0.118629614695662,1774.53890991409
0.0724700450575105,1774.54890991409
0.0335620350234702,1774.55890991409
0.00594966142338429,1774.56890991409
-0.00803632314291143,1774.57890991409
-0.00831899386476432,1774.58890991409
0.00255981227559045,1774.59890991409
0.0220405146811442,1774.60890991409
0.0463232053878755,1774.61890991409
0.0723246647894089,1774.62890991409
0.0969820455190942,1774.63890991409
0.118560825284847,1774.64890991409
0.135041993170015,1774.65890991409
0.146349918262453,1774.66890991409
0.152253969805698,1774.67890991409
0.151867690514678,1774.68890991409
0.14582466203702,1774.69890991409
0.134732051548323,1774.70890991409
0.1195166526418,1774.71890991409
0.10078864616008,1774.72890991409
0.0797245931609974,1774.73890991409
0.0565271839496464,1774.74890991409
0.0321740072930754,1774.75890991409
0.00647613998462653,1774.76890991409
-0.0190129784309859,1774.77890991409
-0.0442206633326555,1774.78890991409
-0.0690559905702536,1774.79890991409
-0.0926436581498927,1774.80890991409
-0.115864600263878,1774.81890991409
-0.137797343566736,1774.82890991409
-0.158696020560792,1774.83890991409
-0.178921651454076,1774.84890991409
-0.197313444834885,1774.85890991409
-0.214845406551204,1774.86890991409
-0.231487148382726,1774.87890991409
-0.247927567655699,1774.88890991409
-0.264086189469399,1774.89890991409
-0.280094665981471,1774.90890991409
-0.297104020039653,1774.91890991409
-0.314578108643122,1774.92890991409
-0.332947099493823,1774.93890991409
-0.351979922894597,1774.94890991409
-0.371446775396031,1774.95890991409
-0.390402414125761,1774.96890991409
-0.408698246990933,1774.97890991409
-0.424726075536752,1774.98890991409
-0.438402907021489,1774.99890991409
-0.445983417099728,1775.00890991409
-0.442012438862551,1775.01890991409
-0.414718790941635,1775.02890991409
-0.348173578422051,1775.03890991409
-0.230105642874872,1775.04890991409
-0.0592341663516614,1775.05890991409
0.150203401433169,1775.06890991409
0.37225677696431,1775.07890991409
0.577207163248029,1775.08890991409
0.741145464743443,1775.09890991409
0.852626100008663,1775.10890991409
0.912023931578048,1775.11890991409
0.928355748560704,1775.12890991409
0.914468027477687,1775.13890991409
0.881234078374525,1775.14890991409
0.8381381072452,1775.15890991409
0.790572633671416,1775.16890991409
0.741625583215479,1775.17890991409
0.693391444006199,1775.18890991409
0.64711776581908,1775.19890991409
0.603219057780863,1775.20890991409
0.563314166135507,1775.21890991409
0.527806214163213,1775.22890991409
0.495903618367989,1775.23890991409
0.467208617884443,1775.24890991409
0.44162593382459,1775.25890991409
0.41806667595808,1775.26890991409
0.395112488065828,1775.27890991409
0.370224105265941,1775.28890991409
0.340715405045181,1775.29890991409
0.305315255193096,1775.30890991409
0.262464014364824,1775.31890991409
0.213803931697757,1775.32890991409
0.162385302477695,1775.33890991409
0.113069092263642,1775.34890991409
0.0715923094713884,1775.35890991409
0.0402677260260841,1775.36890991409
0.0218193468956201,1775.37890991409
0.0156568871745572,1775.38890991409
0.0208842469022959,1775.39890991409
0.0344246741449434,1775.40890991409
0.0534686499783199,1775.41890991409
0.0755348394570534,1775.42890991409
0.0975373414948378,1775.43890991409
0.117203534056358,1775.44890991409
0.133352708091906,1775.45890991409
0.144060448808366,1775.46890991409
0.148777221881219,1775.47890991409
0.147406811994902,1775.48890991409
0.14032252253593,1775.49890991409
0.127620353358962,1775.50890991409
0.111306953960301,1775.51890991409
0.092113178917962,1775.52890991409
0.0710404465315147,1775.53890991409
0.0479016809132079,1775.54890991409
0.024294845029956,1775.55890991409
-0.000193708553665704,1775.56890991409
-0.0258205682311871,1775.57890991409
-0.0524104103900277,1775.58890991409
-0.0797439184366515,1775.59890991409
-0.107577780977782,1775.60890991409
-0.135297860502146,1775.61890991409
-0.162491475481785,1775.62890991409
-0.187969289485675,1775.63890991409
-0.211600440288897,1775.64890991409
-0.233041484162953,1775.65890991409
-0.252035278148034,1775.66890991409
-0.269325684067906,1775.67890991409
-0.285540469429308,1775.68890991409
-0.300388287055048,1775.69890991409
-0.314677970419216,1775.70890991409
-0.328391112380308,1775.71890991409
-0.341618475181651,1775.72890991409
-0.354788307943747,1775.73890991409
-0.368323118825858,1775.74890991409
-0.382824629119199,1775.75890991409
-0.398769759962159,1775.76890991409
-0.415656681088041,1775.77890991409
-0.433688898974867,1775.78890991409
-0.452071412529373,1775.79890991409
-0.470459061986957,1775.80890991409
-0.48784333530055,1775.81890991409
-0.50420250934577,1775.82890991409
-0.519059594850973,1775.83890991409
-0.531277676562233,1775.84890991409
-0.538965030850497,1775.85890991409
-0.535337292529111,1775.86890991409
-0.508038960087244,1775.87890991409
-0.441616850175814,1775.88890991409
-0.3220057282698,1775.89890991409
-0.147380208896996,1775.90890991409
0.0686337023246184,1775.91890991409
0.299301429547383,1775.92890991409
0.514028429745054,1775.93890991409
0.686010136534875,1775.94890991409
0.802834384642021,1775.95890991409
0.86394742356293,1775.96890991409
0.878258382520182,1775.97890991409
0.859020383944453,1775.98890991409
0.817841040549482,1775.99890991409
0.765244083907508,1776.00890991409
0.707447910370475,1776.01890991409
0.648113787553352,1776.02890991409
0.590164843230287,1776.03890991409
0.533865993363283,1776.04890991409
0.48112065026356,1776.05890991409
0.43188426599887,1776.06890991409
0.387296713744409,1776.07890991409
0.347448027479927,1776.08890991409
0.312442451020715,1776.09890991409
0.281449348346495,1776.10890991409
0.253310483573523,1776.11890991409
0.225335802351492,1776.12890991409
0.195230914551095,1776.13890991409
0.16054689194162,1776.14890991409
0.119205577086438,1776.15890991409
0.0730245653687984,1776.16890991409
0.0232296010476434,1776.17890991409
-0.0250347819354149,1776.18890991409
-0.0680621979207769,1776.19890991409
-0.10002875065555,1776.20890991409
-0.119800626388363,1776.21890991409
-0.12531621494735,1776.22890991409
-0.118295958600426,1776.23890991409
-0.100520309410473,1776.24890991409
-0.0754163413167303,1776.25890991409
-0.0465050394939888,1776.26890991409
-0.0164261884423314,1776.27890991409
0.0118330954536576,1776.28890991409
0.0364723702393978,1776.29890991409
0.0562426727062455,1776.30890991409
0.0701888736465197,1776.31890991409
0.0776859339463384,1776.32890991409
0.0784691708397225,1776.33890991409
0.0730944456307941,1776.34890991409
0.0621591599588069,1776.35890991409
0.0467186592592757,1776.36890991409
0.0277688092946144,1776.37890991409
0.0065392703270211,1776.38890991409
-0.0161883322046573,1776.39890991409
-0.0404074818090836,1776.40890991409
-0.0653173488869062,1776.41890991409
-0.0909281372675184,1776.42890991409
-0.116471902088878,1776.43890991409
-0.141637174022657,1776.44890991409
-0.166009822418559,1776.45890991409
-0.189419576720615,1776.46890991409
-0.210814414607713,1776.47890991409
-0.230547173184799,1776.48890991409
-0.249230866624857,1776.49890991409
-0.266019477073751,1776.50890991409
-0.28200373640843,1776.51890991409
-0.297090972923572,1776.52890991409
-0.311995076496299,1776.53890991409
-0.327031727631842,1776.54890991409
-0.343038427505751,1776.55890991409
-0.359646897482026,1776.56890991409
-0.377303098754904,1776.57890991409
-0.39509915625818,1776.58890991409
-0.413003086472808,1776.59890991409
-0.42981428142695,1776.60890991409
-0.445626761734717,1776.61890991409
-0.459960298761365,1776.62890991409
-0.472772767604516,1776.63890991409
-0.48289501728025,1776.64890991409
-0.487754756145628,1776.65890991409
-0.479945235965011,1776.66890991409
-0.446689495255792,1776.67890991409
-0.372585071336094,1776.68890991409
-0.247549331080198,1776.69890991409
-0.0721200254821692,1776.70890991409
0.136682335328193,1776.71890991409
0.352559636502222,1776.72890991409
0.547340652827678,1776.73890991409
0.698923735596265,1776.74890991409
0.797580901182097,1776.75890991409
0.845217186743908,1776.76890991409
0.851150866526923,1776.77890991409
0.827150413389373,1776.78890991409
0.785284450554649,1776.79890991409
0.733081171519798,1776.80890991409
0.677087996496935,1776.81890991409
0.619904603832612,1776.82890991409
0.563935610956152,1776.83890991409
0.510104345461855,1776.84890991409
0.459396722495266,1776.85890991409
0.411962696164234,1776.86890991409
0.368709443292312,1776.87890991409
0.330155123440041,1776.88890991409
0.295601486650897,1776.89890991409
0.264880852451818,1776.90890991409
0.236014946455399,1776.91890991409
0.20590596180285,1776.92890991409
0.171987571052478,1776.93890991409
0.131612369485278,1776.94890991409
0.0860190429003034,1776.95890991409
0.0368455219636319,1776.96890991409
-0.011350783218827,1776.97890991409
-0.0530718490858469,1776.98890991409
-0.0845309487929092,1776.99890991409
-0.102036574144899,1777.00890991409
-0.105406743752132,1777.01890991409
-0.0954109012098828,1777.02890991409
-0.0756559422057731,1777.03890991409
-0.0499820042382613,1777.04890991409
-0.0215979306827375,1777.05890991409
0.00590847384853279,1777.06890991409
0.0306142802553932,1777.07890991409
0.0511450166618038,1777.08890991409
0.0660680897625289,1777.09890991409
0.0745776597747596,1777.10890991409
0.0770833845648528,1777.11890991409
0.0733963746469883,1777.12890991409
0.0646757782231955,1777.13890991409
0.0517434769699978,1777.14890991409
0.0357938420637033,1777.15890991409
0.0172190883986358,1777.16890991409
-0.00380577154234424,1777.17890991409
-0.0265343876550163,1777.18890991409
-0.0502160179571652,1777.19890991409
-0.0746307612317181,1777.20890991409
-0.0989655305649565,1777.21890991409
-0.122666089140162,1777.22890991409
-0.145837473445436,1777.23890991409
-0.168585123461507,1777.24890991409
-0.18993890722117,1777.25890991409
-0.209730089259262,1777.26890991409
-0.227815991723684,1777.27890991409
-0.244675508624528,1777.28890991409
-0.260381556396685,1777.29890991409
-0.27582890725362,1777.30890991409
-0.290607273154131,1777.31890991409
-0.304502902574791,1777.32890991409
-0.31809938318252,1777.33890991409
-0.332023625050192,1777.34890991409
-0.346886947423549,1777.35890991409
-0.363200744232248,1777.36890991409
-0.380715218326488,1777.37890991409
-0.399949994324378,1777.38890991409
-0.4199781213535,1777.39890991409
-0.4397120056777,1777.40890991409
-0.458389397327616,1777.41890991409
-0.474810984416469,1777.42890991409
-0.489327341702185,1777.43890991409
-0.500876605263489,1777.44890991409
-0.5064498878668,1777.45890991409
-0.499492057010749,1777.46890991409
-0.466682334109377,1777.47890991409
-0.391841654014397,1777.48890991409
-0.264165446540392,1777.49890991409
-0.0833308487113716,1777.50890991409
0.134047248705496,1777.51890991409
0.360245607108445,1777.52890991409
0.56623600721056,1777.53890991409
0.728323716944012,1777.54890991409
0.836296227375187,1777.55890991409
0.891893847454711,1777.56890991409
0.904712611703345,1777.57890991409
0.887471979720142,1777.58890991409
0.851722405710545,1777.59890991409
0.80611896307939,1777.60890991409
0.756408992405644,1777.61890991409
0.705776301791462,1777.62890991409
0.655992008487182,1777.63890991409
0.608104648379716,1777.64890991409
0.56268433254845,1777.65890991409
0.521006213994169,1777.66890991409
0.482811075821619,1777.67890991409
0.448679875187618,1777.68890991409
0.418380650781997,1777.69890991409
0.391577052342953,1777.70890991409
0.366870084845041,1777.71890991409
0.342441801875995,1777.72890991409
0.316323266673631,1777.73890991409
0.285983315452693,1777.74890991409
0.248890107944083,1777.75890991409
0.204980891105357,1777.76890991409
0.155847494227636,1777.77890991409
0.106079470432048,1777.78890991409
0.0601956031446139,1777.79890991409
0.0223300362934392,1777.80890991409
-0.00350291190086627,1777.81890991409
-0.0165148318551,1777.82890991409
-0.0168221505280787,1777.83890991409
-0.00605985797894398,1777.84890991409
0.0122010648298803,1777.85890991409
0.0350949899385403,1777.86890991409
0.0592297422323976,1777.87890991409
0.0823253045657318,1777.88890991409
0.102257803070778,1777.89890991409
0.1178579019818,1777.90890991409
0.128041400196489,1777.91890991409
0.132554963005517,1777.92890991409
0.130978440442499,1777.93890991409
0.123926597799937,1777.94890991409
0.111503998161891,1777.95890991409
0.0951028118091721,1777.96890991409
0.075737773761601,1777.97890991409
0.0543640772236512,1777.98890991409
0.0317192872457003,1777.99890991409
0.00827512054484245,1778.00890991409
-0.0159772454242361,1778.01890991409
-0.0408573731252112,1778.02890991409
-0.0666380583095182,1778.03890991409
-0.0930129416016533,1778.04890991409
-0.11961466784748,1778.05890991409
-0.14532667107645,1778.06890991409
-0.170416989041338,1778.07890991409
-0.193604321752993,1778.08890991409
-0.215333768458675,1778.09890991409
-0.235098210354937,1778.10890991409
-0.253090742562916,1778.11890991409
-0.269886950629941,1778.12890991409
-0.285326335389543,1778.13890991409
-0.299998059019569,1778.14890991409
-0.314332764520882,1778.15890991409
-0.328833754718029,1778.16890991409
-0.343319265710469,1778.17890991409
-0.358428538935934,1778.18890991409
-0.374429637611297,1778.19890991409
-0.39142357987485,1778.20890991409
-0.409462163020887,1778.21890991409
-0.428357994792055,1778.22890991409
-0.44785652176711,1778.23890991409
-0.468007776050651,1778.24890991409
-0.487485038554884,1778.25890991409
-0.506068929314835,1778.26890991409
-0.522456108951416,1778.27890991409
-0.536227506777462,1778.28890991409
-0.54456160297786,1778.29890991409
-0.543091486274873,1778.30890991409
-0.520206172504418,1778.31890991409
-0.460216863867286,1778.32890991409
-0.348900725207537,1778.33890991409
-0.182393045854089,1778.34890991409
0.028790448770577,1778.35890991409
0.259727362789065,1778.36890991409
0.480291978469559,1778.37890991409
0.663028190753227,1778.38890991409
0.791998294941192,1778.39890991409
0.864764907228114,1778.40890991409
0.888786617944021,1778.41890991409
0.876840716913279,1778.42890991409
0.842315514536409,1778.43890991409
0.794034534360862,1778.44890991409
0.739698384539786,1778.45890991409
0.6837731699039,1778.46890991409
0.627698891328654,1778.47890991409
0.573868626229482,1778.48890991409
0.522212047661047,1778.49890991409
0.473151938365987,1778.50890991409
0.428144962398203,1778.51890991409
0.387151218432156,1778.52890991409
0.350378635301102,1778.53890991409
0.318238894912705,1778.54890991409
0.289177027123941,1778.55890991409
0.261611422196527,1778.56890991409
0.233414739814108,1778.57890991409
0.201163436967778,1778.58890991409
0.163238651614692,1778.59890991409
0.118280681237297,1778.60890991409
0.0682579465990796,1778.61890991409
0.0169613926829168,1778.62890991409
-0.0307267478362501,1778.63890991409
-0.0697207967446936,1778.64890991409
-0.0967674342468941,1778.65890991409
-0.110293445420096,1778.66890991409
-0.110271698705633,1778.67890991409
-0.0985020828028125,1778.68890991409
-0.0779197112293186,1778.69890991409
-0.0519876526573232,1778.70890991409
-0.0241402608005166,1778.71890991409
0.00323959573671323,1778.72890991409
0.0277809761934139,1778.73890991409
0.0485113722937307,1778.74890991409
0.06284485793115,1778.75890991409
0.0705521218062271,1778.76890991409
0.0718895243928168,1778.77890991409
0.0665427178400924,1778.78890991409
0.0563538949477169,1778.79890991409
0.0417183433455196,1778.80890991409
0.0238699057754361,1778.81890991409
0.00429913594636084,1778.82890991409
-0.0172532745476443,1778.83890991409
-0.0406156771768892,1778.84890991409
-0.0651879177500323,1778.85890991409
-0.0911118322221857,1778.86890991409
-0.11684814933753,1778.87890991409
-0.143160651047966,1778.88890991409
-0.168791941835188,1778.89890991409
-0.19464520791859,1778.90890991409
-0.218981316800313,1778.91890991409
-0.241874249233697,1778.92890991409
-0.262860936107161,1778.93890991409
-0.281755954756693,1778.94890991409
-0.2998508879563,1778.95890991409
-0.316918514004535,1778.96890991409
-0.333662721447458,1778.97890991409
-0.34956092457618,1778.98890991409
-0.365326335558924,1778.99890991409
-0.380811341153777,1779.00890991409
-0.396452243145056,1779.01890991409
-0.412464307025532,1779.02890991409
-0.428938628965228,1779.03890991409
-0.445594373857192,1779.04890991409
-0.462667247896341,1779.05890991409
-0.479620064168435,1779.06890991409
-0.495800991977978,1779.07890991409
-0.510185448578474,1779.08890991409
-0.523101444962652,1779.09890991409
-0.533527972095378,1779.10890991409
-0.538899913712831,1779.11890991409
-0.533764961819055,1779.12890991409
-0.506094541773674,1779.13890991409
-0.440067311181431,1779.14890991409
-0.322630027236361,1779.15890991409
-0.152602308091816,1779.16890991409
0.0557302698865249,1779.17890991409
0.277141651962752,1779.18890991409
0.482146947355096,1779.19890991409
0.646252729050658,1779.20890991409
0.757356549709809,1779.21890991409
0.814322115862982,1779.22890991409
0.825558353491978,1779.23890991409
0.803281541302324,1779.24890991409
0.759596292713646,1779.25890991409
0.704017542442095,1779.26890991409
0.643473632910603,1779.27890991409
0.581601501733266,1779.28890991409
0.520320145732184,1779.29890991409
0.460941715092127,1779.30890991409
0.404545068112725,1779.31890991409
0.352206162017695,1779.32890991409
0.303889722178909,1779.33890991409
0.260651291682828,1779.34890991409
0.221712072488643,1779.35890991409
0.186177716583527,1779.36890991409
0.152762172148287,1779.37890991409
0.11839700856769,1779.38890991409
0.0806795852621608,1779.39890991409
0.0379403919143161,1779.40890991409
-0.00893687055748311,1779.41890991409
-0.0576575893983908,1779.42890991409
-0.104150405606012,1779.43890991409
-0.143175356002742,1779.44890991409
-0.170812010387069,1779.45890991409
-0.184594858381428,1779.46890991409
-0.183560295276493,1779.47890991409
-0.169727923222163,1779.48890991409
-0.146383321534721,1779.49890991409
-0.116633279252388,1779.50890991409
-0.0844695494766309,1779.51890991409
-0.0528710586240588,1779.52890991409
-0.0252342382650449,1779.53890991409
-0.00305507280104059,1779.54890991409
0.0127171786981197,1779.55890991409
0.021089867742906,1779.56890991409
0.02351011079745,1779.57890991409
0.0202227976081937,1779.58890991409
0.0125721973705532,1779.59890991409
0.000907170522577565,1779.60890991409
-0.0136507276111453,1779.61890991409
-0.0314156536078104,1779.62890991409
-0.0516359458422605,1779.63890991409
-0.0730433146829696,1779.64890991409
-0.096105043311275,1779.65890991409
-0.119533787368119,1779.66890991409
-0.143167690967052,1779.67890991409
-0.165336327771726,1779.68890991409
-0.186622038653498,1779.69890991409
-0.206456653226298,1779.70890991409
-0.224792093887913,1779.71890991409
-0.242974127869163,1779.72890991409
-0.259911750079398,1779.73890991409
-0.276184733633165,1779.74890991409
-0.292341857113919,1779.75890991409
-0.307678858324315,1779.76890991409
-0.323020341799369,1779.77890991409
-0.338123527080249,1779.78890991409
-0.353623625535552,1779.79890991409
-0.36992113653012,1779.80890991409
-0.386900355341206,1779.81890991409
-0.404611375801582,1779.82890991409
-0.422693573544898,1779.83890991409
-0.440725362077878,1779.84890991409
-0.458395615908334,1779.85890991409
-0.475104773437718,1779.86890991409
-0.489544202587276,1779.87890991409
-0.501876941562424,1779.88890991409
-0.508724723072846,1779.89890991409
-0.504449717714633,1779.90890991409
-0.477376973739037,1779.91890991409
-0.41257496780694,1779.92890991409
-0.297438522598417,1779.93890991409
-0.130766286039088,1779.94890991409
0.075459983890884,1779.95890991409
0.297063120078025,1779.96890991409
0.505224641080452,1779.97890991409
0.674739314527188,1779.98890991409
0.792455636092235,1779.99890991409
0.856589773146876,1780.00890991409
0.875332781433512,1780.01890991409
0.860775666226329,1780.02890991409
0.825214389660549,1780.03890991409
0.778257308821099,1780.04890991409
0.725729340462741,1780.05890991409
0.671287432954113,1780.06890991409
0.617338479983026,1780.07890991409
0.564730673021672,1780.08890991409
0.514856755718219,1780.09890991409
0.467409411389825,1780.10890991409
0.424009615450334,1780.11890991409
0.385166402867215,1780.12890991409
0.351142599454091,1780.13890991409
0.321936428375618,1780.14890991409
0.295773154844799,1780.15890991409
0.271093182037121,1780.16890991409
0.244301376433672,1780.17890991409
0.211865390504619,1780.18890991409
0.172981251791545,1780.19890991409
0.127146090203563,1780.20890991409
0.0783750635261532,1780.21890991409
0.0298786846421151,1780.22890991409
-0.0123223816256157,1780.23890991409
-0.0442621074893049,1780.24890991409
-0.0632967154738455,1780.25890991409
-0.0690548468051247,1780.26890991409
-0.0625476146137163,1780.27890991409
-0.0469244367402673,1780.28890991409
-0.0252404382357248,1780.29890991409
-0.00111627273821238,1780.30890991409
0.0233518243415902,1780.31890991409
0.0459747127314332,1780.32890991409
0.0652108298978442,1780.33890991409
0.0800754087292984,1780.34890991409
0.0894956878679863,1780.35890991409
0.0935805412407492,1780.36890991409
0.0910226988260431,1780.37890991409
0.0827561761796223,1780.38890991409
0.0696015324593376,1780.39890991409
0.0522189840345944,1780.40890991409
0.0334557235481811,1780.41890991409
0.0130059131540004,1780.42890991409
-0.00827871881906389,1780.43890991409
-0.0306208114784985,1780.44890991409
-0.0536039258107101,1780.45890991409
-0.0773270063440429,1780.46890991409
-0.101485297087935,1780.47890991409
-0.125694133523348,1780.48890991409
-0.14913608042557,1780.49890991409
-0.172343049358119,1780.50890991409
-0.193462895939147,1780.51890991409
-0.213068637295244,1780.52890991409
-0.231458416585476,1780.53890991409
-0.249033865212868,1780.54890991409
-0.265154905695394,1780.55890991409
-0.280438751296113,1780.56890991409
-0.295205710907969,1780.57890991409
-0.309589502581953,1780.58890991409
-0.324521502775659,1780.59890991409
-0.340434280587621,1780.60890991409
-0.357494269851986,1780.61890991409
-0.375298019638693,1780.62890991409
-0.393851829632504,1780.63890991409
-0.412704029052496,1780.64890991409
-0.430521980790288,1780.65890991409
-0.447066492790147,1780.66890991409
-0.462211641369289,1780.67890991409
-0.475607170650217,1780.68890991409
-0.485312988460954,1780.69890991409
-0.486851654199594,1780.70890991409
-0.471082314957309,1780.71890991409
-0.423557384770533,1780.72890991409
-0.328075806188552,1780.73890991409
-0.178415097058875,1780.74890991409
0.0188745595475657,1780.75890991409
0.241921737879241,1780.76890991409
0.462416744260897,1780.77890991409
0.651135195873819,1780.78890991409
0.790712295143242,1780.79890991409
0.875382176212658,1780.80890991409
0.910381919299482,1780.81890991409
0.908258500100232,1780.82890991409
0.880898013519147,1780.83890991409
0.839028899862476,1780.84890991409
0.789568656814964,1780.85890991409
0.737423330905798,1780.86890991409
0.684368965770577,1780.87890991409
0.631162172121984,1780.88890991409
0.580055070754092,1780.89890991409
0.532346780845495,1780.90890991409
0.48796863745166,1780.91890991409
0.448392933640563,1780.92890991409
0.413604752222436,1780.93890991409
0.38220154029548,1780.94890991409
0.354012363552679,1780.95890991409
0.327518354165013,1780.96890991409
0.300641351425051,1780.97890991409
0.270407908816767,1780.98890991409
0.23482060210743,1780.99890991409
0.192550358639057,1781.00890991409
0.144042292429893,1781.01890991409
0.0934191788320098,1781.02890991409
0.0446239913683711,1781.03890991409
0.00249085457312698,1781.04890991409
-0.0293923695741248,1781.05890991409
-0.0478737831891257,1781.06890991409
-0.0526600147484412,1781.07890991409
-0.0458787720486855,1781.08890991409
-0.0291528085277357,1781.09890991409
-0.00631560941157459,1781.10890991409
0.0204750324812726,1781.11890991409
0.0475491040809017,1781.12890991409
0.0721179084608822,1781.13890991409
0.0922820645710764,1781.14890991409
0.106181156973328,1781.15890991409
0.113453123085794,1781.16890991409
0.113714827888981,1781.17890991409
0.108507894780319,1781.18890991409
0.0976823693586969,1781.19890991409
0.0830632893789487,1781.20890991409
0.0651207751370591,1781.21890991409
0.0452326239861445,1781.22890991409
0.0234817005341847,1781.23890991409
0.000961272364093852,1781.24890991409
-0.022714143440285,1781.25890991409
-0.0473398181697508,1781.26890991409
-0.0730112242572018,1781.27890991409
-0.0989269807511639,1781.28890991409
-0.124496607964405,1781.29890991409
-0.149943431598623,1781.30890991409
-0.174762352037529,1781.31890991409
-0.198397581188132,1781.32890991409
-0.220841442336602,1781.33890991409
-0.241917683844315,1781.34890991409
-0.261452634138027,1781.35890991409
-0.279713497039423,1781.36890991409
-0.296016249140265,1781.37890991409
-0.311830550170165,1781.38890991409
-0.326981765209274,1781.39890991409
-0.341427009108597,1781.40890991409
-0.356249981503728,1781.41890991409
-0.371931824235233,1781.42890991409
-0.388670435434142,1781.43890991409
-0.406948752871287,1781.44890991409
-0.426336909256955,1781.45890991409
-0.445417180758527,1781.46890991409
-0.463106455106279,1781.47890991409
-0.478962867077452,1781.48890991409
-0.492840132052264,1781.49890991409
-0.505416947338935,1781.50890991409
-0.514956918530824,1781.51890991409
-0.517973541748029,1781.52890991409
-0.504004869385342,1781.53890991409
-0.459149413699069,1781.54890991409
-0.368134392310799,1781.55890991409
-0.222331045697722,1781.56890991409
-0.0294299752573502,1781.57890991409
0.190344146761897,1781.58890991409
0.408691043170454,1781.59890991409
0.597855797849586,1781.60890991409
0.738238489372414,1781.61890991409
0.823424376165793,1781.62890991409
0.858687070192225,1781.63890991409
0.854008054817551,1781.64890991409
0.822507753342605,1781.65890991409
0.774145592983345,1781.66890991409
0.716868261119977,1781.67890991409
0.656566415573774,1781.68890991409
0.595059179033937,1781.69890991409
0.53509928301379,1781.70890991409
0.477546750306893,1781.71890991409
0.423891062970659,1781.72890991409
0.374631394494242,1781.73890991409
0.330184305983715,1781.74890991409
0.291035972259771,1781.75890991409
0.255986755996592,1781.76890991409
0.224458793396417,1781.77890991409
0.193539061003552,1781.78890991409
0.160824291054973,1781.79890991409
0.123275182850645,1781.80890991409
0.0802593279621727,1781.81890991409
0.0315295120930966,1781.82890991409
-0.0194031295589433,1781.83890991409
-0.0675473382466878,1781.84890991409
-0.107316142870328,1781.85890991409
-0.134129430211314,1781.86890991409
-0.145741896386246,1781.87890991409
-0.142282636394466,1781.88890991409
-0.126014732484803,1781.89890991409
-0.100651093408464,1781.90890991409
-0.0695197798868181,1781.91890991409
-0.0364338168967361,1781.92890991409
-0.00409383470895568,1781.93890991409
0.0243788127612997,1781.94890991409
0.0482043203774896,1781.95890991409
0.0653303003205933,1781.96890991409
0.0754583052809403,1781.97890991409
0.0789187485345396,1781.98890991409
0.0759694684402936,1781.99890991409
0.0677749031865955,1782.00890991409
0.0552915452592587,1782.01890991409
0.0391282837025447,1782.02890991409
0.0206092883216156,1782.03890991409
0.000672971483201149,1782.04890991409
-0.020362812373491,1782.05890991409
-0.0422242507064535,1782.06890991409
-0.0645574604570729,1782.07890991409
-0.0875613942334893,1782.08890991409
-0.110143595299246,1782.09890991409
-0.13184527619475,1782.10890991409
-0.153063168523693,1782.11890991409
-0.172742639594904,1782.12890991409
-0.192082274235579,1782.13890991409
-0.20981820586458,1782.14890991409
-0.226997609635927,1782.15890991409
-0.243818506154845,1782.16890991409
-0.259948022828533,1782.17890991409
-0.276324459843169,1782.18890991409
-0.29285963799181,1782.19890991409
-0.309552567906999,1782.20890991409
-0.32672050874358,1782.21890991409
-0.344313221018707,1782.22890991409
-0.361424912346662,1782.23890991409
-0.377907773619882,1782.24890991409
-0.39386965360056,1782.25890991409
-0.408441234734581,1782.26890991409
-0.421240993384743,1782.27890991409
-0.431374219367384,1782.28890991409
-0.434921310369521,1782.29890991409
-0.424446620881713,1782.30890991409
-0.385328350992888,1782.31890991409
-0.303475285443559,1782.32890991409
-0.168531367787569,1782.33890991409
0.0152984148367773,1782.34890991409
0.228489305494871,1782.35890991409
0.444080832238681,1782.36890991409
0.633601181780845,1782.37890991409
0.777177847337538,1782.38890991409
0.867734150134629,1782.39890991409
0.909134244635054,1782.40890991409
0.910916241176505,1782.41890991409
0.885672349143348,1782.42890991409
0.843725814869918,1782.43890991409
0.792752525899865,1782.44890991409
0.737792277118718,1782.45890991409
0.682355959027065,1782.46890991409
0.628080938640883,1782.47890991409
0.575555363507508,1782.48890991409
0.52596958028948,1782.49890991409
0.479869626817985,1782.50890991409
0.438343822615554,1782.51890991409
0.401783415993892,1782.52890991409
0.369114847223335,1782.53890991409
0.339712490949272,1782.54890991409
0.311938244322382,1782.55890991409
0.282365979614112,1782.56890991409
0.248852299898541,1782.57890991409
0.208988112542617,1782.58890991409
0.162442529039169,1782.59890991409
0.112510860984131,1782.60890991409
0.0628826366136469,1782.61890991409
0.0189193822799044,1782.62890991409
-0.0138547997966932,1782.63890991409
-0.03284217961462,1782.64890991409
-0.0370343219679808,1782.65890991409
-0.027564630009015,1782.66890991409
-0.007685808397932,1782.67890991409
0.018550614781793,1782.68890991409
0.0471382934377252,1782.69890991409
0.0757065744712769,1782.70890991409
0.101526633067822,1782.71890991409
0.123051247521879,1782.72890991409
0.139083340470201,1782.73890991409
0.148694791240156,1782.74890991409
0.152214361954513,1782.75890991409
0.149637316544992,1782.76890991409
0.141352369725714,1782.77890991409
0.129089453028687,1782.78890991409
0.112808903794012,1782.79890991409
0.094087183083621,1782.80890991409
0.0736209845159225,1782.81890991409
0.0511350785017047,1782.82890991409
0.0276890919702192,1782.83890991409
0.00307682129860543,1782.84890991409
-0.0218793411350996,1782.85890991409
-0.0466360588551182,1782.86890991409
-0.0704102129102276,1782.87890991409
-0.0929747703496445,1782.88890991409
-0.113656901684048,1782.89890991409
-0.13334629327541,1782.90890991409
-0.151357617755102,1782.91890991409
-0.168454275254354,1782.92890991409
-0.184900281715729,1782.93890991409
-0.20064268079062,1782.94890991409
-0.216322524887602,1782.95890991409
-0.232184253961955,1782.96890991409
-0.248908139632793,1782.97890991409
-0.265903929830951,1782.98890991409
-0.283731902179127,1782.99890991409
-0.301985625647794,1783.00890991409
-0.320947262397746,1783.01890991409
-0.33995785469557,1783.02890991409
-0.358969053708604,1783.03890991409
-0.377155611096504,1783.04890991409
-0.393777125331017,1783.05890991409
-0.40809960470088,1783.06890991409
-0.417144315373768,1783.07890991409
-0.416197600827236,1783.08890991409
-0.394381258157994,1783.09890991409
-0.33632959112985,1783.10890991409
-0.228394878363487,1783.11890991409
-0.0658197713500836,1783.12890991409
0.139817613568521,1783.13890991409
0.364581636278579,1783.14890991409
0.577386827976059,1783.15890991409
0.752321284471441,1783.16890991409
0.875798118760993,1783.17890991409
0.94630096362489,1783.18890991409
0.97207042539496,1783.19890991409
0.964780166859808,1783.20890991409
0.936703925980488,1783.21890991409
0.896627610389892,1783.22890991409
0.850657981992316,1783.23890991409
0.802340066942534,1783.24890991409
0.753249779125909,1783.25890991409
0.704323551796236,1783.26890991409
0.657282624394599,1783.27890991409
0.612730894678496,1783.28890991409
0.571476335941603,1783.29890991409
0.533760424317926,1783.30890991409
0.499752590727223,1783.31890991409
0.469219616347591,1783.32890991409
0.440934290459237,1783.33890991409
0.414704174911315,1783.34890991409
0.387536185720779,1783.35890991409
0.35717634879917,1783.36890991409
0.321026366531177,1783.37890991409
0.277869535182367,1783.38890991409
0.229470135004193,1783.39890991409
0.178837395869782,1783.40890991409
0.130233241635657,1783.41890991409
0.0892411971999204,1783.42890991409
0.0589078849870568,1783.43890991409
0.0412868393984159,1783.44890991409
0.0372720157119487,1783.45890991409
0.0451654275921692,1783.46890991409
0.0624126620762566,1783.47890991409
0.0862645885913143,1783.48890991409
0.112303561071234,1783.49890991409
0.138563641967629,1783.50890991409
0.161843851695157,1783.51890991409
0.181356398690954,1783.52890991409
0.195130638922462,1783.53890991409
0.202686832476486,1783.54890991409
0.20403715556778,1783.55890991409
0.200039158663868,1783.56890991409
0.190402159039054,1783.57890991409
0.175931650012699,1783.58890991409
0.15802743933652,1783.59890991409
0.13706763829552,1783.60890991409
0.114525960791569,1783.61890991409
0.090757087889566,1783.62890991409
0.0658145947771691,1783.63890991409
0.039836581773416,1783.64890991409
0.0132231722721016,1783.65890991409
-0.0131779759041382,1783.66890991409
-0.0397438691289394,1783.67890991409
-0.065408805345928,1783.68890991409
-0.0900853749861057,1783.69890991409
-0.11417844020855,1783.70890991409
-0.136710641007401,1783.71890991409
-0.158193446403874,1783.72890991409
-0.178221052257548,1783.73890991409
-0.196679821978163,1783.74890991409
-0.213962462745672,1783.75890991409
-0.230670347565922,1783.76890991409
-0.247166691018576,1783.77890991409
-0.264247618540872,1783.78890991409
-0.281560384595669,1783.79890991409
-0.299650950857433,1783.80890991409
-0.318425126424225,1783.81890991409
-0.337965561795515,1783.82890991409
-0.357872976879533,1783.83890991409
-0.377532329765434,1783.84890991409
-0.395456812507067,1783.85890991409
-0.4113750621784,1783.86890991409
-0.424891087628167,1783.87890991409
-0.435343356328912,1783.88890991409
-0.439454111135172,1783.89890991409
-0.428266323220984,1783.90890991409
-0.387821579210092,1783.91890991409
-0.302347318471368,1783.92890991409
-0.162254714610367,1783.93890991409
0.0288002851767683,1783.94890991409
0.250294283011974,1783.95890991409
0.472629823380907,1783.96890991409
0.66559113792053,1783.97890991409
0.809516987051425,1783.98890991409
0.897605570137973,1783.99890991409
0.934636354408016,1784.00890991409
0.932184213368457,1784.01890991409
0.903506942960914,1784.02890991409
0.858809143736454,1784.03890991409
0.806313324642832,1784.04890991409
0.750070353748959,1784.05890991409
0.693051486872731,1784.06890991409
0.63652168054723,1784.07890991409
0.581843578580051,1784.08890991409
0.53001072937084,1784.09890991409
0.482009153242421,1784.10890991409
0.438524911679269,1784.11890991409
0.400257739295052,1784.12890991409
0.366029450057011,1784.13890991409
0.335922936504707,1784.14890991409
0.307261399955833,1784.15890991409
0.277370485093148,1784.16890991409
0.242928491364436,1784.17890991409
0.202208610058238,1784.18890991409
0.155375083671992,1784.19890991409
0.105234300169051,1784.20890991409
0.0565923650610806,1784.21890991409
0.013758788144049,1784.22890991409
-0.0180596846215029,1784.23890991409
-0.0357340107880052,1784.24890991409
-0.0391997664880292,1784.25890991409
-0.0291617571925273,1784.26890991409
-0.00884651890932631,1784.27890991409
0.0190992303905006,1784.28890991409
0.0510822120479007,1784.29890991409
0.0838370245498723,1784.30890991409
0.114911609330596,1784.31890991409
0.141691160127679,1784.32890991409
0.162540598238482,1784.33890991409
0.175837101798524,1784.34890991409
0.181746681147835,1784.35890991409
0.180282341825525,1784.36890991409
0.172937089145786,1784.37890991409
0.160458484202982,1784.38890991409
0.143945337632707,1784.39890991409
0.124939641303962,1784.40890991409
0.103924390243798,1784.41890991409
0.0820007826031226,1784.42890991409
0.0590933774670344,1784.43890991409
0.0354290854723838,1784.44890991409
0.0116231529854008,1784.45890991409
-0.0117357718608237,1784.46890991409
-0.0350972786308585,1784.47890991409
-0.0577109477697505,1784.48890991409
-0.0800359461650652,1784.49890991409
-0.101793949047286,1784.50890991409
-0.121903484322171,1784.51890991409
-0.141415538306846,1784.52890991409
-0.159887975193796,1784.53890991409
-0.17754594226175,1784.54890991409
-0.195576882892984,1784.55890991409
-0.213876103615443,1784.56890991409
-0.232975066319814,1784.57890991409
-0.252339922581327,1784.58890991409
-0.271052001325518,1784.59890991409
-0.289008571580699,1784.60890991409
-0.305379348035672,1784.61890991409
-0.320427506032481,1784.62890991409
-0.333504488111001,1784.63890991409
-0.344733287645571,1784.64890991409
-0.352333472553347,1784.65890991409
-0.350290803926911,1784.66890991409
-0.326046443194796,1784.67890991409
-0.263488776177652,1784.68890991409
-0.150390180603833,1784.69890991409
0.0155496539122701,1784.70890991409
0.220488769187987,1784.71890991409
0.438659623262224,1784.72890991409
0.638562011340087,1784.73890991409
0.797370941938841,1784.74890991409
0.903183758130162,1784.75890991409
0.957923870774872,1784.76890991409
0.971028318603392,1784.77890991409
0.954732143591969,1784.78890991409
0.919655652123358,1784.79890991409
0.875293404587608,1784.80890991409
0.825882063163919,1784.81890991409
0.774288961480945,1784.82890991409
0.722314319165778,1784.83890991409
0.671541402882354,1784.84890991409
0.622867680723826,1784.85890991409
0.577751703794393,1784.86890991409
0.536813350222427,1784.87890991409
0.500007057427388,1784.88890991409
0.468072544780617,1784.89890991409
0.439722490998748,1784.90890991409
0.413658906934638,1784.91890991409
0.387043048230059,1784.92890991409
0.356499107884002,1784.93890991409
0.319991001652812,1784.94890991409
0.277070255696716,1784.95890991409
0.228458199181111,1784.96890991409
0.177389964628425,1784.97890991409
0.129605724137267,1784.98890991409
0.0907942031068754,1784.99890991409
0.0646882199943476,1785.00890991409
0.053065851932645,1785.01890991409
0.0556665428057696,1785.02890991409
0.0698128515976589,1785.03890991409
0.0922649695056874,1785.04890991409
0.11923521519708,1785.05890991409
0.148069999956032,1785.06890991409
0.175748565871963,1785.07890991409
0.199605518250968,1785.08890991409
0.218439544090269,1785.09890991409
0.231433318263296,1785.10890991409
0.237738293512839,1785.11890991409
0.237580163354251,1785.12890991409
0.2313099894813,1785.13890991409
0.219808695311907,1785.14890991409
0.203865501017963,1785.15890991409
0.185418643711234,1785.16890991409
0.164154651413661,1785.17890991409
0.141024047686532,1785.18890991409
0.116724085143689,1785.19890991409
0.0915126151446637,1785.20890991409
0.0664403391816208,1785.21890991409
0.0414362262741392,1785.22890991409
0.0166900717972488,1785.23890991409
-0.00696152674790286,1785.24890991409
-0.0296258987056465,1785.25890991409
-0.0517460303843517,1785.26890991409
-0.0720786844041496,1785.27890991409
-0.0919360586752645,1785.28890991409
-0.111122713683978,1785.29890991409
-0.129174025857897,1785.30890991409
-0.146173178167084,1785.31890991409
-0.162947707790058,1785.32890991409
-0.179739753156104,1785.33890991409
-0.197752756546571,1785.34890991409
-0.21648134032212,1785.35890991409
-0.236635997267897,1785.36890991409
-0.257790174177441,1785.37890991409
-0.278949265543825,1785.38890991409
-0.299300828782263,1785.39890991409
-0.317863473681543,1785.40890991409
-0.334322200439523,1785.41890991409
-0.348382586984527,1785.42890991409
-0.358591297140332,1785.43890991409
-0.361743228583859,1785.44890991409
-0.348579186778635,1785.45890991409
-0.304458786841668,1785.46890991409
-0.212414992571067,1785.47890991409
-0.0640362749387876,1785.48890991409
0.133788757179796,1785.49890991409
0.358918782309432,1785.50890991409
0.578990775343386,1785.51890991409
0.765246026386573,1785.52890991409
0.901177045564499,1785.53890991409
0.983054508914587,1785.54890991409
1.0184953905401,1785.55890991409
1.01868636165741,1785.56890991409
0.995662652969931,1785.57890991409
0.958880395702047,1785.58890991409
0.915370398810077,1785.59890991409
0.869862022106286,1785.60890991409
0.824127665274839,1785.61890991409
0.779307202972492,1785.62890991409
0.736421291037482,1785.63890991409
0.695905618854713,1785.64890991409
0.658072953245353,1785.65890991409
0.623422590276094,1785.66890991409
0.591837499763761,1785.67890991409
0.563493053630987,1785.68890991409
0.537725819178004,1785.69890991409
0.512908362626273,1785.70890991409
0.487177670679917,1785.71890991409
0.458175497615453,1785.72890991409
0.423510658258119,1785.73890991409
0.381569466139056,1785.74890991409
0.333309539816333,1785.75890991409
0.281125764143435,1785.76890991409
0.229180309197347,1785.77890991409
0.181979365001347,1785.78890991409
0.143611663854787,1785.79890991409
0.116843266213263,1785.80890991409
0.104353165968896,1785.81890991409
0.104261024237834,1785.82890991409
0.114803249403092,1785.83890991409
0.134510859492929,1785.84890991409
0.159367658820962,1785.85890991409
0.18682730506313,1785.86890991409
0.21384885414508,1785.87890991409
0.23800139988994,1785.88890991409
0.257285240644007,1785.89890991409
0.269491603471818,1785.90890991409
0.274540438621932,1785.91890991409
0.272490166375207,1785.92890991409
0.263757236456383,1785.93890991409
0.250566620180076,1785.94890991409
0.232250930786206,1785.95890991409
0.21122137449337,1785.96890991409
0.188167565044895,1785.97890991409
0.164106366548499,1785.98890991409
0.138632249589452,1785.99890991409
0.11225340164809,1786.00890991409
0.0853613824084354,1786.01890991409
0.0572527191311957,1786.02890991409
0.0288455743982152,1786.03890991409
0.000644785314462749,1786.04890991409
-0.0272235837633749,1786.05890991409
-0.0539797006883016,1786.06890991409
-0.0790958742480642,1786.07890991409
-0.102544583505789,1786.08890991409
-0.123863616459242,1786.09890991409
-0.143412798168348,1786.10890991409
-0.161415007295058,1786.11890991409
-0.178533889691686,1786.12890991409
-0.195778252875332,1786.13890991409
-0.212907325346075,1786.14890991409
-0.230528890292911,1786.15890991409
-0.248704486112122,1786.16890991409
-0.267615256708988,1786.17890991409
-0.286545610352177,1786.18890991409
-0.305180963972038,1786.19890991409
-0.323562292180253,1786.20890991409
-0.340650493205727,1786.21890991409
-0.356802932837788,1786.22890991409
-0.372226491281539,1786.23890991409
-0.385417950230287,1786.24890991409
-0.394308391125096,1786.25890991409
-0.391909691664343,1786.26890991409
-0.36626066934982,1786.27890991409
-0.300292449581563,1786.28890991409
-0.180134569926059,1786.29890991409
-0.00421212612351117,1786.30890991409
0.212491833684172,1786.31890991409
0.44062784074597,1786.32890991409
0.647360885328359,1786.33890991409
0.80806283950284,1786.34890991409
0.912499884053198,1786.35890991409
0.96464827395438,1786.36890991409
0.973659530656015,1786.37890991409
0.953578192393257,1786.38890991409
0.915713604902694,1786.39890991409
0.868165074132939,1786.40890991409
0.816624839076245,1786.41890991409
0.763453386182985,1786.42890991409
0.709982055931023,1786.43890991409
0.657443405934172,1786.44890991409
0.606491629132887,1786.45890991409
0.558428440764108,1786.46890991409
0.513526852025584,1786.47890991409
0.472793661707559,1786.48890991409
0.43630077271678,1786.49890991409
0.403644136635035,1786.50890991409
0.373814537267175,1786.51890991409
0.344416716366777,1786.52890991409
0.312587661369646,1786.53890991409
0.275968668528993,1786.54890991409
0.232573097277318,1786.55890991409
0.183345760676225,1786.56890991409
0.131933634680403,1786.57890991409
0.0836245242579469,1786.58890991409
0.0429352392668719,1786.59890991409
0.0139065880232527,1786.60890991409
-0.000484302374403349,1786.61890991409
0.000267934942815644,1786.62890991409
0.0144991890943235,1786.63890991409
0.0391898004006794,1786.64890991409
0.0703258447246523,1786.65890991409
0.104680380646772,1786.66890991409
0.138311193460942,1786.67890991409
0.168756115281711,1786.68890991409
0.192994535900163,1786.69890991409
0.210266311432362,1786.70890991409
0.219464935819857,1786.71890991409
0.220549522724332,1786.72890991409
0.21466797998392,1786.73890991409
0.203458883025668,1786.74890991409
0.187168229478734,1786.75890991409
0.167675551401702,1786.76890991409
0.145942855999552,1786.77890991409
0.122576163510597,1786.78890991409
0.0984354257367013,1786.79890991409
0.073358768129837,1786.80890991409
0.0474961837043416,1786.81890991409
0.0207802300763736,1786.82890991409
-0.00499761759381675,1786.83890991409
-0.0309937565847423,1786.84890991409
-0.0556061735471156,1786.85890991409
-0.0795158167628061,1786.86890991409
-0.102515642595122,1786.87890991409
-0.12440723467536,1786.88890991409
-0.145317159454336,1786.89890991409
-0.165281502866559,1786.90890991409
-0.184464161923859,1786.91890991409
-0.202634588246832,1786.92890991409
-0.22098845951176,1786.93890991409
-0.240201249212924,1786.94890991409
-0.260060999920614,1786.95890991409
-0.28032746151014,1786.96890991409
-0.300252052950769,1786.97890991409
-0.319111136525419,1786.98890991409
-0.336634744865729,1786.99890991409
-0.352574574052055,1787.00890991409
-0.366507309693471,1787.01890991409
-0.376828443714053,1787.02890991409
-0.379597586597517,1787.03890991409
-0.365622409548212,1787.04890991409
-0.320483180785381,1787.05890991409
-0.227871904060164,1787.06890991409
-0.079555774489916,1787.07890991409
0.117009410469867,1787.08890991409
0.338636756421824,1787.09890991409
0.552734172595645,1787.10890991409
0.731872366954832,1787.11890991409
0.859097588942842,1787.12890991409
0.932092980791372,1787.13890991409
0.959076352552137,1787.14890991409
0.951617617466939,1787.15890991409
0.922147219335821,1787.16890991409
0.880093773778306,1787.17890991409
0.83165966058405,1787.18890991409
0.780353645108376,1787.19890991409
0.727949827996392,1787.20890991409
0.676542085729486,1787.21890991409
0.626810450876087,1787.22890991409
0.580072075017094,1787.23890991409
0.537240192445511,1787.24890991409
0.49875727244612,1787.25890991409
0.464479541515136,1787.26890991409
0.433573928419241,1787.27890991409
0.405810675786481,1787.28890991409
0.378498682073476,1787.29890991409
0.349124931660579,1787.30890991409
0.314622281824152,1787.31890991409
0.273856102081105,1787.32890991409
0.227412234136643,1787.33890991409
0.177550019276837,1787.34890991409
0.128925588356578,1787.35890991409
0.08647633281829,1787.36890991409
0.0555152090009537,1787.37890991409
0.0379264558848771,1787.38890991409
0.034585786510375,1787.39890991409
0.044153004827369,1787.40890991409
0.0631626218915494,1787.41890991409
0.0888411453546348,1787.42890991409
0.118507862550925,1787.43890991409
0.148878935629023,1787.44890991409
0.176780792335907,1787.45890991409
0.200161701483385,1787.46890991409
0.216771280698828,1787.47890991409
0.225938982271562,1787.48890991409
0.227391482448256,1787.49890991409
0.221772322915067,1787.50890991409
0.210461282095312,1787.51890991409
0.194819519222662,1787.52890991409
0.175854553767326,1787.53890991409
0.154410914455408,1787.54890991409
0.131479835744103,1787.55890991409
0.107835127983446,1787.56890991409
0.083289892457004,1787.57890991409
0.0589213180257857,1787.58890991409
0.0348041448685215,1787.59890991409
0.0111024022476596,1787.60890991409
-0.012180600772522,1787.61890991409
-0.034888039473746,1787.62890991409
-0.0569852862599452,1787.63890991409
-0.0778254776757255,1787.64890991409
-0.0975106053626746,1787.65890991409
-0.115947266201905,1787.66890991409
-0.132819352152973,1787.67890991409
-0.148489808431703,1787.68890991409
-0.163558130301066,1787.69890991409
-0.1791282101238,1787.70890991409
-0.195746540705072,1787.71890991409
-0.213322683076973,1787.72890991409
-0.231621516821661,1787.73890991409
-0.250772278829449,1787.74890991409
-0.270434494642335,1787.75890991409
-0.290247783815466,1787.76890991409
-0.309463967112234,1787.77890991409
-0.327398203768992,1787.78890991409
-0.343756044329569,1787.79890991409
-0.357536058007507,1787.80890991409
-0.365449198817295,1787.81890991409
-0.359111904121319,1787.82890991409
-0.324270993888999,1787.83890991409
-0.244456445905365,1787.84890991409
-0.109465405910561,1787.85890991409
0.0779892349440633,1787.86890991409
0.296458121939603,1787.87890991409
0.515873068137648,1787.88890991409
0.705166612540541,1787.89890991409
0.845841190282708,1787.90890991409
0.932527848074079,1787.91890991409
0.971183805217741,1787.92890991409
0.973680578668889,1787.93890991409
0.951597969947831,1787.94890991409
0.915372730405283,1787.95890991409
0.871735832967359,1787.96890991409
0.824636379529979,1787.97890991409
0.776032428699309,1787.98890991409
0.727863877273567,1787.99890991409
0.680738266722624,1788.00890991409
0.635896488217495,1788.01890991409
0.5955262753139,1788.02890991409
0.55917115321178,1788.03890991409
0.52749257887416,1788.04890991409
0.5000305187614,1788.05890991409
0.47609614661982,1788.06890991409
0.454525600313779,1788.07890991409
0.433065241120894,1788.08890991409
0.408660913946003,1788.09890991409
0.378599971618223,1788.10890991409
0.34030430306251,1788.11890991409
0.294815851137696,1788.12890991409
0.24405056237782,1788.13890991409
0.193981463713573,1788.14890991409
0.148919372927769,1788.15890991409
0.11400182032182,1788.16890991409
0.092105574764119,1788.17890991409
0.0837308355295779,1788.18890991409
0.0882052385962171,1788.19890991409
0.102849834623745,1788.20890991409
0.123699663436446,1788.21890991409
0.148221870094141,1788.22890991409
0.173486910228901,1788.23890991409
0.197278626807652,1788.24890991409
0.217989692455788,1788.25890991409
0.233355618206204,1788.26890991409
0.242167704982186,1788.27890991409
0.244153540874767,1788.28890991409
0.239999845102228,1788.29890991409
0.229923043296856,1788.30890991409
0.214807496912285,1788.31890991409
0.196732465339638,1788.32890991409
0.175251041242168,1788.33890991409
0.151872917249176,1788.34890991409
0.127162658315417,1788.35890991409
0.101276598262549,1788.36890991409
0.0748056270466168,1788.37890991409
0.0479743331729939,1788.38890991409
0.0205606473450445,1788.39890991409
-0.00660895400691454,1788.40890991409
-0.0332681624502911,1788.41890991409
-0.0586223666022029,1788.42890991409
-0.0833067682555747,1788.43890991409
-0.106729117424986,1788.44890991409
-0.128428181056598,1788.45890991409
-0.14880022599316,1788.46890991409
-0.167556090202603,1788.47890991409
-0.184800704175122,1788.48890991409
-0.20120136673874,1788.49890991409
-0.216783290832447,1788.50890991409
-0.232806261082875,1788.51890991409
-0.249529749130588,1788.52890991409
-0.266757446539383,1788.53890991409
-0.28560763399529,1788.54890991409
-0.305217263949284,1788.55890991409
-0.325506130759732,1788.56890991409
-0.345496729706511,1788.57890991409
-0.364590032182733,1788.58890991409
-0.382616665603711,1788.59890991409
-0.399547136171407,1788.60890991409
-0.415012156585518,1788.61890991409
-0.426747212601881,1788.62890991409
-0.430439166471003,1788.63890991409
-0.415994807870567,1788.64890991409
-0.367580213754299,1788.65890991409
-0.269682592078933,1788.66890991409
-0.114096216792358,1788.67890991409
0.0906716624957719,1788.68890991409
0.319776072631747,1788.69890991409
0.540693523943824,1788.70890991409
0.724377721186754,1788.71890991409
0.855125028157042,1788.72890991409
0.931068415241773,1788.73890991409
0.960770884933548,1788.74890991409
0.956607241943278,1788.75890991409
0.930742345325589,1788.76890991409
0.892493969647383,1788.77890991409
0.847327402280812,1788.78890991409
0.799244858981116,1788.79890991409
0.750784628298413,1788.80890991409
0.703168984540592,1788.81890991409
0.657641577605583,1788.82890991409
0.615359659800177,1788.83890991409
0.576944805883194,1788.84890991409
0.542609876294147,1788.85890991409
0.512378106027226,1788.86890991409
0.485391475384594,1788.87890991409
0.460927470995257,1788.88890991409
0.437668383193654,1788.89890991409
0.413354771829374,1788.90890991409
0.385853024547339,1788.91890991409
0.351782537650464,1788.92890991409
0.310677459080553,1788.93890991409
0.263355599223956,1788.94890991409
0.21266774129776,1788.95890991409
0.163648478490834,1788.96890991409
0.120349964753571,1788.97890991409
0.0874654869329011,1788.98890991409
0.0670191342665454,1788.99890991409
0.0594015586266675,1789.00890991409
0.0637270482199219,1789.01890991409
0.0780164577362911,1789.02890991409
0.0986155528644451,1789.03890991409
0.122775118154607,1789.04890991409
0.147701385149808,1789.05890991409
0.170828862426868,1789.06890991409
0.189450571005348,1789.07890991409
0.203544863827725,1789.08890991409
0.211217154168966,1789.09890991409
0.212215145306412,1789.10890991409
0.206997708988897,1789.11890991409
0.195840263019032,1789.12890991409
0.180612361312538,1789.13890991409
0.161579231731912,1789.14890991409
0.140285138877565,1789.15890991409
0.117570944428328,1789.16890991409
0.0941806077108605,1789.17890991409
0.0699636309825353,1789.18890991409
0.0446527998933004,1789.19890991409
0.0185131935279992,1789.20890991409
-0.00800766060110627,1789.21890991409
-0.035461890967736,1789.22890991409
-0.0627659274732648,1789.23890991409
-0.0891358085654023,1789.24890991409
-0.114077326950227,1789.25890991409
-0.137796908194163,1789.26890991409
-0.160289911058572,1789.27890991409
-0.181295250849927,1789.28890991409
-0.201097135967278,1789.29890991409
-0.220529351531111,1789.30890991409
-0.239288023876588,1789.31890991409
-0.257682675982161,1789.32890991409
-0.276051938209606,1789.33890991409
-0.294047542061051,1789.34890991409
-0.312038385643074,1789.35890991409
-0.330289692628084,1789.36890991409
-0.349192154720111,1789.37890991409
-0.368414458273812,1789.38890991409
-0.387741738896331,1789.39890991409
-0.406898943331838,1789.40890991409
-0.424657729957356,1789.41890991409
-0.441071000466248,1789.42890991409
-0.454891666159383,1789.43890991409
-0.464992929669123,1789.44890991409
-0.466967030125726,1789.45890991409
-0.451183461773765,1789.46890991409
-0.402084396496387,1789.47890991409
-0.303121797592805,1789.48890991409
-0.14799319343676,1789.49890991409
0.0556177517802082,1789.50890991409
0.283354225459567,1789.51890991409
0.503614666065713,1789.52890991409
0.687189330478702,1789.53890991409
0.818419291272962,1789.54890991409
0.894614857713514,1789.55890991409
0.92316929136783,1789.56890991409
0.916931699207957,1789.57890991409
0.88743204015853,1789.58890991409
0.844627479992561,1789.59890991409
0.795032595402836,1789.60890991409
0.742293127574831,1789.61890991409
0.689569281702325,1789.62890991409
0.637410945471347,1789.63890991409
0.5869882595443,1789.64890991409
0.5395360503668,1789.65890991409
0.495629381887343,1789.66890991409
0.455656919728814,1789.67890991409
0.420816652967833,1789.68890991409
0.390112087349333,1789.69890991409
0.361997230645531,1789.70890991409
0.334911491750465,1789.71890991409
0.306623048602028,1789.72890991409
0.274604726265306,1789.73890991409
0.236145978571615,1789.74890991409
0.19160289798922,1789.75890991409
0.142579815469964,1789.76890991409
0.0933201104666334,1789.77890991409
0.0489112594802464,1789.78890991409
0.0125404092754842,1789.79890991409
-0.012125816839554,1789.80890991409
-0.0230046466992671,1789.81890991409
-0.022053666323496,1789.82890991409
-0.011285719778652,1789.83890991409
0.00505945256986283,1789.84890991409
0.0243643908471584,1789.85890991409
0.0431699919915377,1789.86890991409
0.0602848746847198,1789.87890991409
0.0741334082697274,1789.88890991409
0.0833210244391361,1789.89890991409
0.0875563298011227,1789.90890991409
0.0869465358130969,1789.91890991409
0.0810871492379907,1789.92890991409
0.0703394002115487,1789.93890991409
0.0561802552825757,1789.94890991409
0.0391364043289005,1789.95890991409
0.020730415750112,1789.96890991409
0.00143213159446917,1789.97890991409
-0.0183324580858963,1789.98890991409
-0.0383219817104978,1789.99890991409
-0.0586982779520488,1790.00890991409
-0.0795231549400916,1790.01890991409
-0.100906622639218,1790.02890991409
-0.122862854529648,1790.03890991409
-0.145317056719669,1790.04890991409
-0.168790808848817,1790.05890991409
-0.192996915096085,1790.06890991409
-0.217501519641605,1790.07890991409
-0.242747309829983,1790.08890991409
-0.267491062775011,1790.09890991409
-0.291527037570848,1790.10890991409
-0.314840021854127,1790.11890991409
-0.338456184881932,1790.12890991409
-0.361785680018669,1790.13890991409
-0.385039746535043,1790.14890991409
-0.408652967291743,1790.15890991409
-0.43116347800138,1790.16890991409
-0.452722754878037,1790.17890991409
-0.472502298470523,1790.18890991409
-0.490773983132206,1790.19890991409
-0.506777055095808,1790.20890991409
-0.518213654736984,1790.21890991409
-0.518969040983521,1790.22890991409
-0.495977285266537,1790.23890991409
-0.434034214615422,1790.24890991409
-0.319974733944569,1790.25890991409
-0.151837992703882,1790.26890991409
0.0556566775163482,1790.27890991409
0.276248905032425,1790.28890991409
0.479077983087691,1790.29890991409
0.639795441931688,1790.30890991409
0.746426347571177,1790.31890991409
0.799923666297168,1790.32890991409
0.809289321095305,1790.33890991409
0.786337072110798,1790.34890991409
0.742865030947781,1790.35890991409
0.68834790453783,1790.36890991409
0.628174858496515,1790.37890991409
0.565806011443798,1790.38890991409
0.503974822442284,1790.39890991409
0.443979626726997,1790.40890991409
0.386710628246961,1790.41890991409
0.333340007135576,1790.42890991409
0.283977939238937,1790.43890991409
0.23897046914736,1790.44890991409
0.198519576872253,1790.45890991409
0.161341384744306,1790.46890991409
0.125193729433156,1790.47890991409
0.0877058980631063,1790.48890991409
0.0458577162310934,1790.49890991409
-0.00162103823418621,1790.50890991409
-0.0530590343588464,1790.51890991409
-0.105622074210164,1790.52890991409
-0.154700647059992,1790.53890991409
-0.194412975550512,1790.54890991409
-0.22107085419292,1790.55890991409
-0.23217300518199,1790.56890991409
-0.227903311234812,1790.57890991409
-0.209707172495411,1790.58890991409
-0.180695898407859,1790.59890991409
-0.145043169284108,1790.60890991409
-0.10640394172201,1790.61890991409
-0.0687907248231002,1790.62890991409
-0.035487759416061,1790.63890991409
-0.00871127692225108,1790.64890991409
0.0101575801563927,1790.65890991409
0.0209760564949851,1790.66890991409
0.0240437927006774,1790.67890991409
0.0200893484323977,1790.68890991409
0.0102662999396787,1790.69890991409
-0.00406621340750795,1790.70890991409
-0.0221260570935311,1790.71890991409
-0.0424186377267998,1790.72890991409
-0.0637440944698712,1790.73890991409
-0.0860759452193372,1790.74890991409
-0.109096414919192,1790.75890991409
-0.132810258319254,1790.76890991409
-0.156855121453061,1790.77890991409
-0.181699371348394,1790.78890991409
-0.206949258061485,1790.79890991409
-0.232682076866693,1790.80890991409
-0.258803379435692,1790.81890991409
-0.284878390968571,1790.82890991409
-0.310513488085955,1790.83890991409
-0.335550545400188,1790.84890991409
-0.360030607044454,1790.85890991409
-0.383790285977084,1790.86890991409
-0.406223822823886,1790.87890991409
-0.42708054004309,1790.88890991409
-0.445591968520278,1790.89890991409
-0.461794008970102,1790.90890991409
-0.475221439402423,1790.91890991409
-0.483844793914297,1790.92890991409
-0.481808651589385,1790.93890991409
-0.458807912673463,1790.94890991409
-0.398724793712691,1790.95890991409
-0.288836419311625,1790.96890991409
-0.127815629652673,1790.97890991409
0.0717860345131138,1790.98890991409
0.283433154934786,1790.99890991409
0.478620962275821,1791.00890991409
0.63344385315577,1791.01890991409
0.735973578748077,1791.02890991409
0.787777860135434,1791.03890991409
0.79715789301386,1791.04890991409
0.776268672529983,1791.05890991409
0.735639466058226,1791.06890991409
0.683991558346121,1791.07890991409
0.626716985163412,1791.08890991409
0.567435120974979,1791.09890991409
0.508021088669915,1791.10890991409
0.450042355677944,1791.11890991409
0.393966306112322,1791.12890991409
0.341192713151913,1791.13890991409
0.293490842734954,1791.14890991409
0.25114354601104,1791.15890991409
0.213579068988126,1791.16890991409
0.179070689137714,1791.17890991409
0.145039624253512,1791.18890991409
0.108463995174963,1791.19890991409
0.066862634191016,1791.20890991409
0.0193801479664929,1791.21890991409
-0.0319447782717334,1791.22890991409
-0.0835102157679502,1791.23890991409
-0.128975576040332,1791.24890991409
-0.163768433136585,1791.25890991409
-0.1842142517857,1791.26890991409
-0.188977706897182,1791.27890991409
-0.179587470821523,1791.28890991409
-0.158216348384869,1791.29890991409
-0.129060600746492,1791.30890991409
-0.0950936182750327,1791.31890991409
-0.0600564198563563,1791.32890991409
-0.0277686400405775,1791.33890991409
-0.000484698769288771,1791.34890991409
0.0197855885053523,1791.35890991409
0.03241024517768,1791.36890991409
0.0375964059538524,1791.37890991409
0.0357541616344367,1791.38890991409
0.0280639107610593,1791.39890991409
0.0161465201573051,1791.40890991409
0.00164807111947853,1791.41890991409
-0.0152043954652558,1791.42890991409
-0.0338421804267075,1791.43890991409
-0.0533716439238274,1791.44890991409
-0.0737756944497388,1791.45890991409
-0.0957231512637932,1791.46890991409
-0.117899306100232,1791.47890991409
-0.140840303419802,1791.48890991409
-0.164379049670458,1791.49890991409
-0.18820789219949,1791.50890991409
-0.211753475267094,1791.51890991409
-0.235043289586237,1791.52890991409
-0.257838199919526,1791.53890991409
-0.280273156401009,1791.54890991409
-0.302492378523035,1791.55890991409
-0.324092712709353,1791.56890991409
-0.344388164002519,1791.57890991409
-0.36223231971484,1791.58890991409
-0.377916929274174,1791.59890991409
-0.390948629527479,1791.60890991409
-0.400774992211926,1791.61890991409
-0.403278374102348,1791.62890991409
-0.38911679365323,1791.63890991409
-0.344855113570857,1791.64890991409
-0.254739831935493,1791.65890991409
-0.111950701424556,1791.66890991409
0.0768605874990945,1791.67890991409
0.289395273887719,1791.68890991409
0.495931885105131,1791.69890991409
0.66891584381739,1791.70890991409
0.793314111029986,1791.71890991409
0.865792882405239,1791.72890991409
0.892786354347715,1791.73890991409
0.885992401211448,1791.74890991409
0.856746286055247,1791.75890991409
0.814843563891404,1791.76890991409
0.767162401861655,1791.77890991409
0.717312571440997,1791.78890991409
0.667577987315609,1791.79890991409
0.618674498060761,1791.80890991409
0.571801458013521,1791.81890991409
0.527910002048756,1791.82890991409
0.488211908974083,1791.83890991409
0.452660055567902,1791.84890991409
0.421540612867954,1791.85890991409
0.393836421966105,1791.86890991409
0.36859807717541,1791.87890991409
0.343475533042298,1791.88890991409
0.316639965783328,1791.89890991409
0.284406013123786,1791.90890991409
0.245133873270535,1791.91890991409
0.199446872034685,1791.92890991409
0.15083346032841,1791.93890991409
0.103533889861046,1791.94890991409
0.0628159613707126,1791.95890991409
0.0331976462479073,1791.96890991409
0.016573340016529,1791.97890991409
0.0141998928812266,1791.98890991409
0.0236678974101942,1791.99890991409
0.0426001381618761,1792.00890991409
0.0671223622098008,1792.01890991409
0.0939277425028773,1792.02890991409
0.120986657222594,1792.03890991409
0.145594572356056,1792.04890991409
0.166380034978339,1792.05890991409
0.181264252112775,1792.06890991409
0.189390264284714,1792.07890991409
0.190627695036992,1792.08890991409
0.185715041718476,1792.09890991409
0.175842497333093,1792.10890991409
0.161475246127031,1792.11890991409
0.144348541198975,1792.12890991409
0.125183912684668,1792.13890991409
0.104033310250408,1792.14890991409
0.0813278624013477,1792.15890991409
0.0566474737621008,1792.16890991409
0.0296660766909753,1792.17890991409
0.00148735752129871,1792.18890991409
-0.0267601827036847,1792.19890991409
-0.0553301666467341,1792.20890991409
-0.0835390649080939,1792.21890991409
-0.110988062716587,1792.22890991409
-0.13761389146288,1792.23890991409
-0.163242831241346,1792.24890991409
-0.187495317042934,1792.25890991409
-0.211215102333519,1792.26890991409
-0.233877674888919,1792.27890991409
-0.255297637688344,1792.28890991409
-0.274883292469769,1792.29890991409
-0.292564802928544,1792.30890991409
-0.307536759891863,1792.31890991409
-0.3193944324553,1792.32890991409
-0.326043111972836,1792.33890991409
-0.321188070725023,1792.34890991409
-0.294021899620954,1792.35890991409
-0.228831450802552,1792.36890991409
-0.112028416873085,1792.37890991409
0.0566267063367331,1792.38890991409
0.260669305251477,1792.39890991409
0.472005932810464,1792.40890991409
0.660768740402102,1792.41890991409
0.805693728079223,1792.42890991409
0.900312090145235,1792.43890991409
0.948596765318829,1792.44890991409
0.959133303972205,1792.45890991409
0.944459418694389,1792.46890991409
0.91387216588218,1792.47890991409
0.874817800837052,1792.48890991409
0.83146744280751,1792.49890991409
0.786509445152601,1792.50890991409
0.741620010586101,1792.51890991409
0.698375681273708,1792.52890991409
0.657841345303224,1792.53890991409
0.620504502957864,1792.54890991409
0.587348421325126,1792.55890991409
0.558874400640253,1792.56890991409
0.533905682277466,1792.57890991409
0.511252539633637,1792.58890991409
0.4897912784429,1792.59890991409
0.466477193367268,1792.60890991409
0.439318292356977,1792.61890991409
0.406012363959721,1792.62890991409
0.364700280710419,1792.63890991409
0.317949359934979,1792.64890991409
0.268611802670966,1792.65890991409
0.220860520384762,1792.66890991409
0.179488620163925,1792.67890991409
0.148296842090476,1792.68890991409
0.129733383189522,1792.69890991409
0.124300054792533,1792.70890991409
0.131105365798694,1792.71890991409
0.146946198659689,1792.72890991409
0.169749706937597,1792.73890991409
0.195061866581415,1792.74890991409
0.220555752983232,1792.75890991409
0.243913247878013,1792.76890991409
0.262075179476955,1792.77890991409
0.274996122659497,1792.78890991409
0.281317356514881,1792.79890991409
0.281132284462029,1792.80890991409
0.274684076122149,1792.81890991409
0.263287782012799,1792.82890991409
0.247658160135439,1792.83890991409
0.229621529988837,1792.84890991409
0.210124943491205,1792.85890991409
0.189151676000041,1792.86890991409
0.167778459245085,1792.87890991409
0.144621252285421,1792.88890991409
0.120199112581469,1792.89890991409
0.0946935755583569,1792.90890991409
0.0681596928980214,1792.91890991409
0.0400502476973548,1792.92890991409
0.0124205551836486,1792.93890991409
-0.0144933631212042,1792.94890991409
-0.0409291300376011,1792.95890991409
-0.0663871933052927,1792.96890991409
-0.0917551073519893,1792.97890991409
-0.11658591107801,1792.98890991409
-0.141720905869457,1792.99890991409
-0.16684210327645,1793.00890991409
-0.191873786565517,1793.01890991409
-0.216278196994843,1793.02890991409
-0.239675013479962,1793.03890991409
-0.260740921464535,1793.04890991409
-0.279690957200073,1793.05890991409
-0.296193236747523,1793.06890991409
-0.309213327586626,1793.07890991409
-0.314079509497442,1793.08890991409
-0.298920592529312,1793.09890991409
-0.248510577084797,1793.10890991409
-0.14587192080005,1793.11890991409
0.0132033412243928,1793.12890991409
0.216041242896129,1793.13890991409
0.434195410257554,1793.14890991409
0.634420849533983,1793.15890991409
0.793089549027181,1793.16890991409
0.899616628725726,1793.17890991409
0.955819786574391,1793.18890991409
0.971553883755234,1793.19890991409
0.958278733047758,1793.20890991409
0.927604600850438,1793.21890991409
0.886881125125902,1793.22890991409
0.8426905252623,1793.23890991409
0.796903541991428,1793.24890991409
0.751911447160656,1793.25890991409
0.708289577898417,1793.26890991409
0.665802371724514,1793.27890991409
0.625893281639152,1793.28890991409
0.588321725447938,1793.29890991409
0.554839035723223,1793.30890991409
0.524355730477488,1793.31890991409
0.497129873645177,1793.32890991409
0.471145212174577,1793.33890991409
0.444606538851272,1793.34890991409
0.414537723678188,1793.35890991409
0.378174344478191,1793.36890991409
0.335020172699855,1793.37890991409
0.286198227212922,1793.38890991409
0.235121106833986,1793.39890991409
0.185973477732832,1793.40890991409
0.143267140262781,1793.41890991409
0.111307136677323,1793.42890991409
0.0930302409149456,1793.43890991409
0.0889921472158975,1793.44890991409
0.0986492851866636,1793.45890991409
0.118660609046207,1793.46890991409
0.145756132766945,1793.47890991409
0.176478038727613,1793.48890991409
0.20681346282314,1793.49890991409
0.233731349959535,1793.50890991409
0.255127561322313,1793.51890991409
0.268502234657735,1793.52890991409
0.273927119927454,1793.53890991409
0.272160635746249,1793.54890991409
0.263580791814602,1793.55890991409
0.250516359642558,1793.56890991409
0.233439988989656,1793.57890991409
0.214365616510515,1793.58890991409
0.193834474557773,1793.59890991409
0.172405949785971,1793.60890991409
0.150377807706966,1793.61890991409
0.127603573649285,1793.62890991409
0.103821679786957,1793.63890991409
0.0792345963899954,1793.64890991409
0.0534739382269457,1793.65890991409
0.0273358157609082,1793.66890991409
0.000930113413947388,1793.67890991409
-0.0249280527393558,1793.68890991409
-0.0508237032924831,1793.69890991409
-0.0762120189826967,1793.70890991409
-0.101253461929086,1793.71890991409
-0.125693454840641,1793.72890991409
-0.149491956081617,1793.73890991409
-0.172996596299407,1793.74890991409
-0.196065287416905,1793.75890991409
-0.218604853069472,1793.76890991409
-0.240234654860242,1793.77890991409
-0.260700653029287,1793.78890991409
-0.279628438576098,1793.79890991409
-0.297008072735168,1793.80890991409
-0.312527676806873,1793.81890991409
-0.326268882843004,1793.82890991409
-0.336564952619234,1793.83890991409
-0.337882120429099,1793.84890991409
-0.319314589667032,1793.85890991409
-0.263425494631287,1793.86890991409
-0.155651398286124,1793.87890991409
0.00753152007008129,1793.88890991409
0.210580950906602,1793.89890991409
0.425032966545675,1793.90890991409
0.618951767605129,1793.91890991409
0.769375754880686,1793.92890991409
0.867087188025843,1793.93890991409
0.915022946446076,1793.94890991409
0.923298458350769,1793.95890991409
0.904600727770657,1793.96890991409
0.8698593448674,1793.97890991409
0.826590649172798,1793.98890991409
0.779197689692755,1793.99890991409
0.730186730063873,1794.00890991409
0.681530889938337,1794.01890991409
0.633013457547237,1794.02890991409
0.585919176159647,1794.03890991409
0.541423556101676,1794.04890991409
0.499421279874285,1794.05890991409
0.461926235697422,1794.06890991409
0.427588958767174,1794.07890991409
0.395488567967943,1794.08890991409
0.363284011973177,1794.09890991409
0.328658913433318,1794.10890991409
0.289665944661439,1794.11890991409
0.244110769038401,1794.12890991409
0.19461431208172,1794.13890991409
0.144376890834123,1794.14890991409
0.0988856004131091,1794.15890991409
0.0618487446403862,1794.16890991409
0.0376127408930278,1794.17890991409
0.0278659664859671,1794.18890991409
0.0339757737481349,1794.19890991409
0.0536296231534824,1794.20890991409
0.0834190872417524,1794.21890991409
0.118771497060877,1794.22890991409
0.155155008962029,1794.23890991409
0.189265573672141,1794.24890991409
0.217264232189697,1794.25890991409
0.237912396278884,1794.26890991409
0.249714397873527,1794.27890991409
0.253374251665675,1794.28890991409
0.250477667221529,1794.29890991409
0.241737435882479,1794.30890991409
0.228462968401915,1794.31890991409
0.211663528709984,1794.32890991409
0.192558992362721,1794.33890991409
0.171733036814192,1794.34890991409
0.149396763215379,1794.35890991409
0.1266323296131,1794.36890991409
0.103554662084804,1794.37890991409
0.0805774821242243,1794.38890991409
0.0572927493159819,1794.39890991409
0.0337009875852671,1794.40890991409
0.0104417385341339,1794.41890991409
-0.012275822733595,1794.42890991409
-0.034612584376681,1794.43890991409
-0.0562362148368171,1794.44890991409
-0.077734224404794,1794.45890991409
-0.0993560426927052,1794.46890991409
-0.120726296206012,1794.47890991409
-0.142540926340458,1794.48890991409
-0.164515054924222,1794.49890991409
-0.186431759710231,1794.50890991409
-0.208169257680876,1794.51890991409
-0.228661382949898,1794.52890991409
-0.247554534974582,1794.53890991409
-0.264368468837897,1794.54890991409
-0.279575381738058,1794.55890991409
-0.292161987947675,1794.56890991409
-0.299917593663573,1794.57890991409
-0.295695590868321,1794.58890991409
-0.267055271118219,1794.59890991409
-0.195657122796039,1794.60890991409
-0.0704735670934689,1794.61890991409
0.105829284397265,1794.62890991409
0.312188387039723,1794.63890991409
0.517277766699386,1794.64890991409
0.69332331175807,1794.65890991409
0.823149837119702,1794.66890991409
0.9032267650148,1794.67890991409
0.939584210805259,1794.68890991409
0.942904448434769,1794.69890991409
0.923529685598708,1794.70890991409
0.891365469354182,1794.71890991409
0.852297254434423,1794.72890991409
0.810146790854035,1794.73890991409
0.767335128822435,1794.74890991409
0.725261189503685,1794.75890991409
0.684569978918866,1794.76890991409
0.64588304962522,1794.77890991409
0.609941834788159,1794.78890991409
0.577475526842408,1794.79890991409
0.548376423849851,1794.80890991409
0.521892794879692,1794.81890991409
0.497980017640792,1794.82890991409
0.474120363863515,1794.83890991409
0.448294588845324,1794.84890991409
0.417844081013636,1794.85890991409
0.380713328806532,1794.86890991409
0.337600553302431,1794.87890991409
0.29072797204124,1794.88890991409
0.244056746118864,1794.89890991409
0.20236219517262,1794.90890991409
0.170016615758035,1794.91890991409
0.149429921701629,1794.92890991409
0.142106155677018,1794.93890991409
0.147630199579137,1794.94890991409
0.16296907538762,1794.95890991409
0.18576656429608,1794.96890991409
0.212617791572926,1794.97890991409
0.239639995594299,1794.98890991409
0.263847327316607,1794.99890991409
0.283373708746639,1795.00890991409
0.296707741105715,1795.01890991409
0.303226902063122,1795.02890991409
0.302867074519101,1795.03890991409
0.296485698558724,1795.04890991409
0.284895875814321,1795.05890991409
0.269065927442333,1795.06890991409
0.250097313030515,1795.07890991409
0.229076454881816,1795.08890991409
0.206470280271898,1795.09890991409
0.182651403848254,1795.10890991409
0.157972446377312,1795.11890991409
0.132332423872505,1795.12890991409
0.106894244438663,1795.13890991409
0.0817097137963887,1795.14890991409
0.0571730872480582,1795.15890991409
0.032820234953255,1795.16890991409
0.0100507180908543,1795.17890991409
-0.0122217947101281,1795.18890991409
-0.0335622726439125,1795.19890991409
-0.0539327027446922,1795.20890991409
-0.0736436613120276,1795.21890991409
-0.0922814469076812,1795.22890991409
-0.110765816630705,1795.23890991409
-0.129393899478886,1795.24890991409
-0.148988572898026,1795.25890991409
-0.169743082021189,1795.26890991409
-0.190857327762217,1795.27890991409
-0.212355505276275,1795.28890991409
-0.233497041912881,1795.29890991409
-0.254493629232,1795.30890991409
-0.274291952278431,1795.31890991409
-0.29251511076397,1795.32890991409
-0.309277728405773,1795.33890991409
-0.322646030940193,1795.34890991409
-0.328978205387567,1795.35890991409
-0.319819602164153,1795.36890991409
-0.27910626370556,1795.37890991409
-0.189511570111757,1795.38890991409
-0.0429229020551894,1795.39890991409
0.151653708162957,1795.40890991409
0.367856656393986,1795.41890991409
0.573357727274156,1795.42890991409
0.74239012742072,1795.43890991409
0.862413734628696,1795.44890991409
0.932622011986209,1795.45890991409
0.961867692130078,1795.46890991409
0.960271112779169,1795.47890991409
0.93950266000962,1795.48890991409
0.907985235922708,1795.49890991409
0.871797311683033,1795.50890991409
0.834089021481957,1795.51890991409
0.796008223755225,1795.52890991409
0.758806376240031,1795.53890991409
0.722011416666748,1795.54890991409
0.686773914960238,1795.55890991409
0.652985685242777,1795.56890991409
0.620692268860317,1795.57890991409
0.590685979390726,1795.58890991409
0.562908199023459,1795.59890991409
0.536643866499463,1795.60890991409
0.510691940399167,1795.61890991409
0.483044206162809,1795.62890991409
0.452246248353763,1795.63890991409
0.415592236320669,1795.64890991409
0.372924019811185,1795.65890991409
0.325144313302727,1795.66890991409
0.275587127782872,1795.67890991409
0.228874206005442,1795.68890991409
0.188819907753016,1795.69890991409
0.159270301482111,1795.70890991409
0.142482390955379,1795.71890991409
0.13864476607616,1795.72890991409
0.146686275345989,1795.73890991409
0.164351319348317,1795.74890991409
0.188275704789426,1795.75890991409
0.214682973457292,1795.76890991409
0.240711286767323,1795.77890991409
0.263678105257514,1795.78890991409
0.281233785382298,1795.79890991409
0.291706164867076,1795.80890991409
0.294957063877208,1795.81890991409
0.290808033742578,1795.82890991409
0.281199044353942,1795.83890991409
0.26657398693805,1795.84890991409
0.248607177376048,1795.85890991409
0.227884080848677,1795.86890991409
0.205353462513305,1795.87890991409
0.181494137940687,1795.88890991409
0.155617492322543,1795.89890991409
0.129451995723126,1795.90890991409
0.10224579625984,1795.91890991409
0.0742097234959676,1795.92890991409
0.0463783077216894,1795.93890991409
0.0178621458084873,1795.94890991409
-0.0104532511805927,1795.95890991409
-0.0381500217258778,1795.96890991409
-0.0647334013745977,1795.97890991409
-0.0896060622221749,1795.98890991409
-0.112913699538837,1795.99890991409
-0.134820124738168,1796.00890991409
-0.155398982119268,1796.01890991409
-0.175271604811281,1796.02890991409
-0.194532392231239,1796.03890991409
-0.213605749742536,1796.04890991409
-0.232682734305215,1796.05890991409
-0.25233664853305,1796.06890991409
-0.2718796101643,1796.07890991409
-0.292285481233824,1796.08890991409
-0.313338500688938,1796.09890991409
-0.33414732381792,1796.10890991409
-0.354902463497358,1796.11890991409
-0.374102055838485,1796.12890991409
-0.391876708291029,1796.13890991409
-0.40788566716549,1796.14890991409
-0.421483699869313,1796.15890991409
-0.430097752574976,1796.16890991409
-0.427304754587904,1796.17890991409
-0.399473971362528,1796.18890991409
-0.329097232017506,1796.19890991409
-0.201642627198238,1796.20890991409
-0.0187317082862673,1796.21890991409
0.199408159332996,1796.22890991409
0.420880951550315,1796.23890991409
0.613372481982428,1796.24890991409
0.756588690757791,1796.25890991409
0.845338475653464,1796.26890991409
0.884413638708942,1796.27890991409
0.885540549398665,1796.28890991409
0.861699153708764,1796.29890991409
0.822872464342336,1796.30890991409
0.776719890782448,1796.31890991409
0.727231917189635,1796.32890991409
0.677025919863849,1796.33890991409
0.627513465856417,1796.34890991409
0.579756645711901,1796.35890991409
0.534078840986694,1796.36890991409
0.491475034375839,1796.37890991409
0.452194715007583,1796.38890991409
0.416753306185974,1796.39890991409
0.384685594289603,1796.40890991409
0.355223584866545,1796.41890991409
0.32610790440844,1796.42890991409
0.294721536175656,1796.43890991409
0.258657507553635,1796.44890991409
0.215806552099201,1796.45890991409
0.166948439343828,1796.46890991409
0.115189261065211,1796.47890991409
0.0644058820311666,1796.48890991409
0.0197428274506507,1796.49890991409
-0.0143649396813872,1796.50890991409
-0.0349193275162184,1796.51890991409
-0.0398594015910598,1796.52890991409
-0.0305767720048761,1796.53890991409
-0.00886168856572675,1796.54890991409
0.0219847791437153,1796.55890991409
0.0576201009735628,1796.56890991409
0.0941908209105967,1796.57890991409
0.127727133157028,1796.58890991409
0.155860000965294,1796.59890991409
0.175653178827662,1796.60890991409
0.186593822659674,1796.61890991409
0.189044533355931,1796.62890991409
0.184726528666942,1796.63890991409
0.174328349333097,1796.64890991409
0.159562577941843,1796.65890991409
0.141200837726317,1796.66890991409
0.119721063214589,1796.67890991409
0.0966806373696791,1796.68890991409
0.0722948775099082,1796.69890991409
0.0462446025853311,1796.70890991409
0.0194546166139407,1796.71890991409
-0.00765831857556039,1796.72890991409
-0.0347420965396019,1796.73890991409
-0.0613853826253617,1796.74890991409
-0.0878529359274896,1796.75890991409
-0.113107229108068,1796.76890991409
-0.136925649887856,1796.77890991409
-0.160011090783363,1796.78890991409
-0.181915773293973,1796.79890991409
-0.202704545331636,1796.80890991409
-0.222838925846774,1796.81890991409
-0.242173149944218,1796.82890991409
-0.261280933581857,1796.83890991409
-0.280244480451484,1796.84890991409
-0.29931254470449,1796.85890991409
-0.319030236105793,1796.86890991409
-0.33852720808901,1796.87890991409
-0.358896566479372,1796.88890991409
-0.378889111274419,1796.89890991409
-0.397702329535734,1796.90890991409
-0.415106078687421,1796.91890991409
-0.430672211879375,1796.92890991409
-0.44361872901875,1796.93890991409
-0.453543241952408,1796.94890991409
-0.456425451808441,1796.95890991409
-0.441845993233555,1796.96890991409
-0.394555139751724,1796.97890991409
-0.297681855012005,1796.98890991409
-0.143690840528337,1796.99890991409
0.0571446048096125,1797.00890991409
0.278103343666823,1797.01890991409
0.486480572521938,1797.02890991409
0.655177693424739,1797.03890991409
0.771606492040817,1797.04890991409
0.836260916760058,1797.05890991409
0.857110719494505,1797.06890991409
0.847127649666468,1797.07890991409
0.816938993045673,1797.08890991409
0.775496478310399,1797.09890991409
0.728500156696001,1797.10890991409
0.679191348975327,1797.11890991409
0.629938725515269,1797.12890991409
0.581602073953664,1797.13890991409
0.534555517929282,1797.14890991409
0.490663622326496,1797.15890991409
0.449482391597447,1797.16890991409
0.412324336991273,1797.17890991409
0.379604566475937,1797.18890991409
0.349593063861159,1797.19890991409
0.321547182418783,1797.20890991409
0.292565413425035,1797.21890991409
0.260585293808894,1797.22890991409
0.222072545728698,1797.23890991409
0.177114654272069,1797.24890991409
0.127136294870777,1797.25890991409
0.0761865425559394,1797.26890991409
0.0288946928035218,1797.27890991409
-0.00871903287445677,1797.28890991409
-0.0330438110180089,1797.29890991409
-0.0428083286513817,1797.30890991409
-0.0377439722137852,1797.31890991409
-0.0206975062452789,1797.32890991409
0.00475521914849531,1797.33890991409
0.0350859886994392,1797.34890991409
0.0658988774375263,1797.35890991409
0.094614226962549,1797.36890991409
0.118401680103623,1797.37890991409
0.136491321769351,1797.38890991409
0.147605205800561,1797.39890991409
0.151565852720997,1797.40890991409
0.148586061093644,1797.41890991409
0.140244378665796,1797.42890991409
0.126875940995706,1797.43890991409
0.109641268075085,1797.44890991409
0.0895016064385765,1797.45890991409
0.0665401566675288,1797.46890991409
0.0421862670524786,1797.47890991409
0.0161437226600926,1797.48890991409
-0.0104462217109291,1797.49890991409
-0.0375252504846113,1797.50890991409
-0.0645977514446811,1797.51890991409
-0.0920276600648639,1797.52890991409
-0.11901293134852,1797.53890991409
-0.144264758384523,1797.54890991409
-0.168002498839247,1797.55890991409
-0.190197466476264,1797.56890991409
-0.210358094746497,1797.57890991409
-0.229141978666901,1797.58890991409
-0.246605839677937,1797.59890991409
-0.262968678123649,1797.60890991409
-0.278901926843272,1797.61890991409
-0.29497782687062,1797.62890991409
-0.311011774857957,1797.63890991409
-0.327155903635377,1797.64890991409
-0.343783236442581,1797.65890991409
-0.361119637860113,1797.66890991409
-0.379958313688522,1797.67890991409
-0.399770729804971,1797.68890991409
-0.420080146592306,1797.69890991409
-0.440931439393326,1797.70890991409
-0.46113913780237,1797.71890991409
-0.479923189980465,1797.72890991409
-0.497799890702578,1797.73890991409
-0.513358512397741,1797.74890991409
-0.525141741050835,1797.75890991409
-0.528411106778015,1797.76890991409
-0.512434114528903,1797.77890991409
-0.461677109911107,1797.78890991409
-0.359620725596968,1797.79890991409
-0.198607068938319,1797.80890991409
0.0116694763632238,1797.81890991409
0.243861329900713,1797.82890991409
0.464222961809414,1797.83890991409
0.645096862118598,1797.84890991409
0.772772452030144,1797.85890991409
0.846012621854205,1797.86890991409
0.874013258539878,1797.87890991409
0.869361601112841,1797.88890991409
0.844051736571816,1797.89890991409
0.806802764784834,1797.90890991409
0.763941022958388,1797.91890991409
0.718963473055636,1797.92890991409
0.673755023838589,1797.93890991409
0.62899277642246,1797.94890991409
0.585382674117541,1797.95890991409
0.544298554171613,1797.96890991409
0.505912842066353,1797.97890991409
0.47121230380011,1797.98890991409
0.440797397019942,1797.99890991409
0.413603112511562,1798.00890991409
0.389271800813843,1798.01890991409
0.366224504465368,1798.02890991409
0.341897553770204,1798.03890991409
0.31413036972111,1798.04890991409
0.280773858408705,1798.05890991409
0.240196791408804,1798.06890991409
0.193405820148574,1798.07890991409
0.143756022047174,1798.08890991409
0.0958062250533752,1798.09890991409
0.0540441907267016,1798.10890991409
0.0226011172646251,1798.11890991409
0.00393970182041357,1798.12890991409
-0.00137890590441275,1798.13890991409
0.00560497170754361,1798.14890991409
0.0214884669917695,1798.15890991409
0.0440693137952461,1798.16890991409
0.0704045087989442,1798.17890991409
0.0961880219202749,1798.18890991409
0.119680905317196,1798.19890991409
0.138884193403762,1798.20890991409
0.152760752785666,1798.21890991409
0.15999482077237,1798.22890991409
0.161004395208763,1798.23890991409
0.155354087448354,1798.24890991409
0.143700011451661,1798.25890991409
0.127654637160024,1798.26890991409
0.108071917360709,1798.27890991409
0.0859243120433429,1798.28890991409
0.0617970069000506,1798.29890991409
0.0362335288117181,1798.30890991409
0.00978369377962286,1798.31890991409
-0.0169749729950267,1798.32890991409
-0.0448976959665143,1798.33890991409
-0.0738607243580118,1798.34890991409
-0.103486358165554,1798.35890991409
-0.13314093454073,1798.36890991409
-0.161941645203634,1798.37890991409
-0.189535504409164,1798.38890991409
-0.215932932305345,1798.39890991409
-0.240311307360827,1798.40890991409
-0.263234448605632,1798.41890991409
-0.284101594524336,1798.42890991409
-0.303008846947726,1798.43890991409
-0.320126061861206,1798.44890991409
-0.335724978041751,1798.45890991409
-0.350884165865801,1798.46890991409
-0.365151643805258,1798.47890991409
-0.379195498518013,1798.48890991409
-0.393254354626276,1798.49890991409
-0.406824311123126,1798.50890991409
-0.420443994181874,1798.51890991409
-0.434111776189861,1798.52890991409
-0.448408044412219,1798.53890991409
-0.46424619015227,1798.54890991409
-0.48108504140425,1798.55890991409
-0.499138889630747,1798.56890991409
-0.517846694250798,1798.57890991409
-0.537262304093844,1798.58890991409
-0.556444866718051,1798.59890991409
-0.575036909928021,1798.60890991409
-0.59272661227094,1798.61890991409
-0.608302132906065,1798.62890991409
-0.622111482842684,1798.63890991409
-0.631326812498727,1798.64890991409
-0.630143804870009,1798.65890991409
-0.605896620423164,1798.66890991409
-0.540682978644429,1798.67890991409
-0.41923596047758,1798.68890991409
-0.237154963830997,1798.69890991409
-0.00874057416561055,1798.70890991409
0.234938901697543,1798.71890991409
0.459607028264686,1798.72890991409
0.637421382252179,1798.73890991409
0.757006212451541,1798.74890991409
0.820447530457392,1798.75890991409
0.837965717517521,1798.76890991409
0.823164848574322,1798.77890991409
0.788614171724215,1798.78890991409
0.742740256903115,1798.79890991409
0.692086052365065,1798.80890991409
0.639555347903869,1798.81890991409
0.586957508928418,1798.82890991409
0.535051451460427,1798.83890991409
0.48504963805696,1798.84890991409
0.437910677072809,1798.85890991409
0.394606162823303,1798.86890991409
0.355650432339457,1798.87890991409
0.320906489069866,1798.88890991409
0.289788401929619,1798.89890991409
0.261449234929498,1798.90890991409
0.233955782373123,1798.91890991409
0.205302038573735,1798.92890991409
0.173292302193985,1798.93890991409
0.135747702042517,1798.94890991409
0.0921012086603139,1798.95890991409
0.0438083831402242,1798.96890991409
-0.00639307932830119,1798.97890991409
-0.0536413371386501,1798.98890991409
-0.0934733449089913,1798.99890991409
-0.121819827644138,1799.00890991409
-0.135839812336739,1799.01890991409
-0.135708391591867,1799.02890991409
-0.122901843647635,1799.03890991409
-0.100365024648884,1799.04890991409
-0.0716035650374504,1799.05890991409
-0.0404323513903153,1799.06890991409
-0.00928558339026998,1799.07890991409
0.0187495720775899,1799.08890991409
0.0425860416848721,1799.09890991409
0.0597855467254981,1799.10890991409
0.0693415952736457,1799.11890991409
0.0704488254406541,1799.12890991409
0.0650889592692057,1799.13890991409
0.0534351386237106,1799.14890991409
0.0379524671906809,1799.15890991409
0.0198753198488282,1799.16890991409
-0.000663136782220317,1799.17890991409
-0.022591343759629,1799.18890991409
-0.0465857388445625,1799.19890991409
-0.0720687029531802,1799.20890991409
-0.099305204213506,1799.21890991409
-0.127368776952603,1799.22890991409
-0.156273008597831,1799.23890991409
-0.185262543154554,1799.24890991409
-0.213476683014921,1799.25890991409
-0.241679342265846,1799.26890991409
-0.268827090785803,1799.27890991409
-0.294729942311179,1799.28890991409
-0.318541938027409,1799.29890991409
-0.340618629587612,1799.30890991409
-0.359978008960288,1799.31890991409
-0.377676178629983,1799.32890991409
-0.393800718279855,1799.33890991409
-0.409288087746523,1799.34890991409
-0.423912475169824,1799.35890991409
-0.438140575491231,1799.36890991409
-0.453271741134816,1799.37890991409
-0.46876881659527,1799.38890991409
-0.485333484714582,1799.39890991409
-0.502827483092229,1799.40890991409
-0.521107821223273,1799.41890991409
-0.539555069038006,1799.42890991409
-0.55832244121895,1799.43890991409
-0.576652152574667,1799.44890991409
-0.593869404267842,1799.45890991409
-0.60964707146335,1799.46890991409
-0.623669217086956,1799.47890991409
-0.636099762821511,1799.48890991409
-0.646016601304824,1799.49890991409
-0.650268503254659,1799.50890991409
-0.639820456410332,1799.51890991409
-0.600020618443923,1799.52890991409
-0.512833637858174,1799.53890991409
-0.367454904308492,1799.54890991409
-0.167756391651191,1799.55890991409
0.0649319123033574,1799.56890991409
0.29712513362559,1799.57890991409
0.497414892847113,1799.58890991409
0.644634154166199,1799.59890991409
0.733010875332163,1799.60890991409
0.768576650162724,1799.61890991409
0.76398421841296,1799.62890991409
0.732532979453713,1799.63890991409
0.685399552488094,1799.64890991409
0.630326569949421,1799.65890991409
0.571367911505004,1799.66890991409
0.511374878543695,1799.67890991409
0.451419404853416,1799.68890991409
0.392699644182464,1799.69890991409
0.336405295323339,1799.70890991409
0.283664678698888,1799.71890991409
0.235633673505574,1799.72890991409
0.192437644447485,1799.73890991409
0.154324389604357,1799.74890991409
0.119865363889602,1799.75890991409
0.0866092494255229,1799.76890991409
0.0517248222908072,1799.77890991409
0.0120529239515039,1799.78890991409
-0.0331059528746515,1799.79890991409
-0.0828896725362809,1799.80890991409
-0.133982727666898,1799.81890991409
-0.181734877905919,1799.82890991409
-0.221435815223606,1799.83890991409
-0.248805959215321,1799.84890991409
-0.261688303380803,1799.85890991409
-0.258916044944163,1799.86890991409
-0.242533041881101,1799.87890991409
-0.214867389120017,1799.88890991409
-0.180108991875352,1799.89890991409
-0.14277641193291,1799.90890991409
-0.106394098548807,1799.91890991409
-0.0746262175632942,1799.92890991409
-0.0488944336716206,1799.93890991409
-0.0305675328433819,1799.94890991409
-0.0200925544531096,1799.95890991409
-0.0160787634544646,1799.96890991409
-0.0184776747876933,1799.97890991409
-0.0263843309943896,1799.98890991409
-0.0387584329348425,1799.99890991409
-0.0547967730401729,1800.00890991409
-0.0733564327597255,1800.01890991409
-0.0940527383578944,1800.02890991409
-0.115739639765364,1800.03890991409
-0.138516518775228,1800.04890991409
-0.161917024078054,1800.05890991409
-0.185253519314306,1800.06890991409
-0.209121498511785,1800.07890991409
-0.232620389844386,1800.08890991409
-0.255325704688743,1800.09890991409
-0.277263120523092,1800.10890991409
-0.297809126170989,1800.11890991409
-0.31702665678394,1800.12890991409
-0.335338801786626,1800.13890991409
-0.352782923367321,1800.14890991409
-0.369989573007514,1800.15890991409
-0.386511847304412,1800.16890991409
-0.402956550022793,1800.17890991409
-0.419861348204089,1800.18890991409
-0.436902309528888,1800.19890991409
-0.454066029723609,1800.20890991409
-0.472655286355672,1800.21890991409
-0.491827174135121,1800.22890991409
-0.511143609940683,1800.23890991409
-0.529597361906727,1800.24890991409
-0.54632564370912,1800.25890991409
-0.561905708282063,1800.26890991409
-0.575300220820629,1800.27890991409
-0.585718853609965,1800.28890991409
-0.589858444912515,1800.29890991409
-0.57836362677785,1800.30890991409
-0.535494122673415,1800.31890991409
-0.444703109109144,1800.32890991409
-0.296548760827745,1800.33890991409
-0.0964249802475136,1800.34890991409
0.132249665628006,1800.35890991409
0.357039393091241,1800.36890991409
0.548035570851983,1800.37890991409
0.686267440557737,1800.38890991409
0.767838163232022,1800.39890991409
0.800273478221475,1800.40890991409
0.795678196097048,1800.41890991409
0.766776340596932,1800.42890991409
0.723638207418578,1800.43890991409
0.673193037049806,1800.44890991409
0.619326722780327,1800.45890991409
0.563883136942777,1800.46890991409
0.509281214182832,1800.47890991409
0.456282591686974,1800.48890991409
0.40633375434708,1800.49890991409
0.359862254358835,1800.50890991409
0.318039468703172,1800.51890991409
0.280600818990025,1800.52890991409
0.247648907690151,1800.53890991409
0.21805216231023,1800.54890991409
0.189699908782983,1800.55890991409
0.15992060822648,1800.56890991409
0.125808201807941,1800.57890991409
0.0863691156658046,1800.58890991409
0.0410655941654821,1800.59890991409
-0.00772967748051426,1800.60890991409
-0.0558910271928648,1800.61890991409
-0.0977790281046884,1800.62890991409
-0.129519694453098,1800.63890991409
-0.147720167712565,1800.64890991409
-0.152133333981485,1800.65890991409
-0.143576418742125,1800.66890991409
-0.124866053167207,1800.67890991409
-0.0989306445577783,1800.68890991409
-0.069190393530773,1800.69890991409
-0.0391208192459745,1800.70890991409
-0.0111594891591867,1800.71890991409
0.012719898254158,1800.72890991409
0.0304966185750887,1800.73890991409
0.0414441938033779,1800.74890991409
0.0454202555247887,1800.75890991409
0.0427721608082507,1800.76890991409
0.034101615235199,1800.77890991409
0.0205771517579288,1800.78890991409
0.00287834377129187,1800.79890991409
-0.0176474166770034,1800.80890991409
-0.0408769454947524,1800.81890991409
-0.0653585854783803,1800.82890991409
-0.0906543429372523,1800.83890991409
-0.11599774592849,1800.84890991409
-0.141365996030973,1800.85890991409
-0.166493294462518,1800.86890991409
-0.191095242173659,1800.87890991409
-0.215158690258061,1800.88890991409
-0.238414012610694,1800.89890991409
-0.26078304044361,1800.90890991409
-0.281859319988925,1800.91890991409
-0.301328426319136,1800.92890991409
-0.319707589197449,1800.93890991409
-0.337446523237957,1800.94890991409
-0.354071725536287,1800.95890991409
-0.369406048217199,1800.96890991409
-0.3845057028534,1800.97890991409
-0.399278240199586,1800.98890991409
-0.414052218685676,1800.99890991409
-0.429283803970023,1801.00890991409
-0.445141699361752,1801.01890991409
-0.46233294547223,1801.02890991409
-0.480281339684404,1801.03890991409
-0.499647713692306,1801.04890991409
-0.518992102340483,1801.05890991409
-0.538263962525804,1801.06890991409
-0.556553445246876,1801.07890991409
-0.573249843845113,1801.08890991409
-0.587759013299825,1801.09890991409
-0.598190282357644,1801.10890991409
-0.600101669763984,1801.11890991409
-0.584328771235655,1801.12890991409
-0.53432711199499,1801.13890991409
-0.433959576829477,1801.14890991409
-0.274474592521764,1801.15890991409
-0.0634473868571827,1801.16890991409
0.174034349379633,1801.17890991409
0.404273243406823,1801.18890991409
0.597152008003443,1801.19890991409
0.735171925120206,1801.20890991409
0.816109942253628,1801.21890991409
0.847681464274349,1801.22890991409
0.842807354930816,1801.23890991409
0.814412983258585,1801.24890991409
0.773276626881174,1801.25890991409
0.726148386828703,1801.26890991409
0.677228847743969,1801.27890991409
0.627431277337127,1801.28890991409
0.578150190449287,1801.29890991409
0.530307280951347,1801.30890991409
0.484172047971281,1801.31890991409
0.441470094898599,1801.32890991409
0.402460465998279,1801.33890991409
0.367321442868008,1801.34890991409
0.335294519612926,1801.35890991409
0.306754154495114,1801.36890991409
0.279906934924782,1801.37890991409
0.253890845928122,1801.38890991409
0.225333866803678,1801.39890991409
0.192398659195052,1801.40890991409
0.154063443122596,1801.41890991409
0.110156786701976,1801.42890991409
0.062834835330735,1801.43890991409
0.0154880058797149,1801.44890991409
-0.0269635607112335,1801.45890991409
-0.0601600784545995,1801.46890991409
-0.0810208975842172,1801.47890991409
-0.0879883909336003,1801.48890991409
-0.0818489094709545,1801.49890991409
-0.0662982433001542,1801.50890991409
-0.0448048503716053,1801.51890991409
-0.0200254192539056,1801.52890991409
0.00463447314541683,1801.53890991409
0.0279386433191868,1801.54890991409
0.0481441725085878,1801.55890991409
0.0635277115375162,1801.56890991409
0.0721808450728532,1801.57890991409
0.0739414398101114,1801.58890991409
0.0685852850295689,1801.59890991409
0.0578082638684272,1801.60890991409
0.0431149452907418,1801.61890991409
0.0262022389206647,1801.62890991409
0.00764151873038285,1801.63890991409
-0.0127735473382609,1801.64890991409
-0.035497849076517,1801.65890991409
-0.059598430974268,1801.66890991409
-0.0852443176956074,1801.67890991409
-0.11209513768766,1801.68890991409
-0.139226903678563,1801.69890991409
-0.166345517245224,1801.70890991409
-0.193560971560391,1801.71890991409
-0.220203666975166,1801.72890991409
-0.246055962423551,1801.73890991409
-0.269963040490781,1801.74890991409
-0.292089260363418,1801.75890991409
-0.311391467095587,1801.76890991409
-0.328626776391253,1801.77890991409
-0.345036076520708,1801.78890991409
-0.361719068822552,1801.79890991409
-0.378538149139896,1801.80890991409
-0.395500387720394,1801.81890991409
-0.412556005027779,1801.82890991409
-0.428443251835273,1801.83890991409
-0.443934739375712,1801.84890991409
-0.460301742931004,1801.85890991409
-0.477559915463359,1801.86890991409
-0.495699547137361,1801.87890991409
-0.514922867479374,1801.88890991409
-0.534088133806299,1801.89890991409
-0.552113060462528,1801.90890991409
-0.568863766103725,1801.91890991409
-0.584818978079033,1801.92890991409
-0.599362438060194,1801.93890991409
-0.611290278121705,1801.94890991409
-0.616256188045077,1801.95890991409
-0.605289861711735,1801.96890991409
-0.5619001411072,1801.97890991409
-0.469459428047902,1801.98890991409
-0.31889473740671,1801.99890991409
-0.11414623066466,1802.00890991409
0.122146177559268,1802.01890991409
0.357103494679407,1802.02890991409
0.559539163491107,1802.03890991409
0.708931650825024,1802.04890991409
0.799519951519757,1802.05890991409
0.836484496757154,1802.06890991409
0.832030428837461,1802.07890991409
0.799611510168921,1802.08890991409
0.751413092653786,1802.09890991409
0.696231420104358,1802.10890991409
0.638874648890269,1802.11890991409
0.582092048504811,1802.12890991409
0.525260583128265,1802.13890991409
0.469558125079439,1802.14890991409
0.415661464008571,1802.15890991409
0.364567321683563,1802.16890991409
0.318444074935651,1802.17890991409
0.277137619299867,1802.18890991409
0.241646755650791,1802.19890991409
0.209634785744301,1802.20890991409
0.179615907129013,1802.21890991409
0.148707747667364,1802.22890991409
0.114155348339826,1802.23890991409
0.0749419446547244,1802.24890991409
0.0304444569535522,1802.25890991409
-0.0177163076041662,1802.26890991409
-0.0668969225587046,1802.27890991409
-0.1128158210626,1802.28890991409
-0.150663062396989,1802.29890991409
-0.176067723039991,1802.30890991409
-0.187812114068362,1802.31890991409
-0.183465874162703,1802.32890991409
-0.166709139006898,1802.33890991409
-0.140490321225685,1802.34890991409
-0.108911925069214,1802.35890991409
-0.0754018166329086,1802.36890991409
-0.0428763152381304,1802.37890991409
-0.0138024780666196,1802.38890991409
0.0105402639578775,1802.39890991409
0.0289489911645055,1802.40890991409
0.0393695067200173,1802.41890991409
0.0413682383883649,1802.42890991409
0.0356999964417618,1802.43890991409
0.0233293298535512,1802.44890991409
0.00737306434120009,1802.45890991409
-0.0114445595076232,1802.46890991409
-0.0319549858873109,1802.47890991409
-0.0539473898982233,1802.48890991409
-0.0776351593676753,1802.49890991409
-0.101926675090936,1802.50890991409
-0.126850422232087,1802.51890991409
-0.152088724014856,1802.52890991409
-0.176271545498045,1802.53890991409
-0.200026136560056,1802.54890991409
-0.223077820268613,1802.55890991409
-0.245992759072752,1802.56890991409
-0.267927722699329,1802.57890991409
-0.288768065110375,1802.58890991409
-0.308553289448244,1802.59890991409
-0.32644640175854,1802.60890991409
-0.343032245499441,1802.61890991409
-0.359127833071494,1802.62890991409
-0.376065163934416,1802.63890991409
-0.393447974125791,1802.64890991409
-0.411755482366849,1802.65890991409
-0.430344982789265,1802.66890991409
-0.448485307929749,1802.67890991409
-0.465355454554945,1802.68890991409
-0.482274500409308,1802.69890991409
-0.4985743648148,1802.70890991409
-0.514097431365731,1802.71890991409
-0.528367243757294,1802.72890991409
-0.540656233425503,1802.73890991409
-0.549416102908804,1802.74890991409
-0.549213811129343,1802.75890991409
-0.530741216942147,1802.76890991409
-0.478290243971666,1802.77890991409
-0.376015065765555,1802.78890991409
-0.217518968386397,1802.79890991409
-0.0117269011541136,1802.80890991409
0.215815177457471,1802.81890991409
0.432409389922778,1802.82890991409
0.609469940429216,1802.83890991409
0.731744923475213,1802.84890991409
0.798548934831208,1802.85890991409
0.817652595915745,1802.86890991409
0.802582160013829,1802.87890991409
0.766280922930978,1802.88890991409
0.718176651451704,1802.89890991409
0.663715578669147,1802.90890991409
0.605991669360586,1802.91890991409
0.547179864309242,1802.92890991409
0.489253865504061,1802.93890991409
0.433025184488393,1802.94890991409
0.380032214588348,1802.95890991409
0.331302157724352,1802.96890991409
0.28723810332601,1802.97890991409
0.247473988844668,1802.98890991409
0.211241937464959,1802.99890991409
0.177401173147473,1803.00890991409
0.143735112120006,1803.01890991409
0.108735271535837,1803.02890991409
0.0703873186601545,1803.03890991409
0.026482466142392,1803.04890991409
-0.0213732022872952,1803.05890991409
-0.0689380343752515,1803.06890991409
-0.111499748237102,1803.07890991409
-0.144100819980343,1803.08890991409
-0.162603909925892,1803.09890991409
-0.165661817242164,1803.10890991409
-0.155351856685939,1803.11890991409
-0.133997648984624,1803.12890991409
-0.105099956650249,1803.13890991409
-0.0718628206378955,1803.14890991409
-0.0385676306185107,1803.15890991409
-0.00647199638273585,1803.16890991409
0.0206799045047432,1803.17890991409
0.0409022002587218,1803.18890991409
0.0531611895760378,1803.19890991409
0.0570973616687526,1803.20890991409
0.0543233872676523,1803.21890991409
0.045808348109879,1803.22890991409
0.0328372922342575,1803.23890991409
0.0170904138253559,1803.24890991409
-0.00172757167650631,1803.25890991409
-0.0231848633063028,1803.26890991409
-0.0461172569908631,1803.27890991409
-0.0695903642090984,1803.28890991409
-0.0934885151449909,1803.29890991409
-0.116742082700886,1803.30890991409
-0.139378739098915,1803.31890991409
-0.162539100390081,1803.32890991409
-0.185223611295795,1803.33890991409
-0.207699134973771,1803.34890991409
-0.22897017588095,1803.35890991409
-0.249127500376103,1803.36890991409
-0.267325676956277,1803.37890991409
-0.284077200611487,1803.38890991409
-0.299607998132005,1803.39890991409
-0.314930768368747,1803.40890991409
-0.329753168089139,1803.41890991409
-0.34436223930245,1803.42890991409
-0.35891198294212,1803.43890991409
-0.37341462504851,1803.44890991409
-0.388578224718602,1803.45890991409
-0.404887471415339,1803.46890991409
-0.422766199447998,1803.47890991409
-0.441331565267416,1803.48890991409
-0.460431137496148,1803.49890991409
-0.479084363422398,1803.50890991409
-0.495827967792488,1803.51890991409
-0.510395525257767,1803.52890991409
-0.522750805857933,1803.53890991409
-0.530619436879126,1803.54890991409
-0.52547790775521,1803.55890991409
