PPG,time
0.27527316082478,1063.71133599366
0.535594008046419,1063.72133599366
0.45971246696185,1063.73133599366
0.485139440075611,1063.74133599366
0.452757815572168,1063.75133599366
0.45640117905775,1063.76133599366
0.437427438521479,1063.77133599366
0.432781715854492,1063.78133599366
0.419961162600952,1063.79133599366
0.412144162041121,1063.80133599366
0.40148796949053,1063.81133599366
0.39189071414906,1063.82133599366
0.382372166263896,1063.83133599366
0.373253023128477,1063.84133599366
0.364414891516373,1063.85133599366
0.355784914056746,1063.86133599366
0.347020726285085,1063.87133599366
0.338428013893206,1063.88133599366
0.329807470093284,1063.89133599366
0.321436237645508,1063.90133599366
0.31323929763335,1063.91133599366
0.304306233635421,1063.92133599366
0.295604546551496,1063.93133599366
0.286532946444726,1063.94133599366
0.277322552431918,1063.95133599366
0.268044341308192,1063.96133599366
0.259245599359981,1063.97133599366
0.250197249627495,1063.98133599366
0.241817828294833,1063.99133599366
0.233175572674419,1064.00133599366
0.223970415078583,1064.01133599366
0.214519645903177,1064.02133599366
0.204459733754646,1064.03133599366
0.194117523426384,1064.04133599366
0.183647952247629,1064.05133599366
0.173440073594057,1064.06133599366
0.163154100158933,1064.07133599366
0.152901495968015,1064.08133599366
0.143072105332757,1064.09133599366
0.134005253768959,1064.10133599366
0.124473872118458,1064.11133599366
0.115537988082067,1064.12133599366
0.107212139798031,1064.13133599366
0.0983629630801576,1064.14133599366
0.0900888577557414,1064.15133599366
0.0817870502570813,1064.16133599366
0.0737813144984429,1064.17133599366
0.0659656969974197,1064.18133599366
0.0583602465771264,1064.19133599366
0.0509538060909943,1064.20133599366
0.0436913489843635,1064.21133599366
0.0362289310412071,1064.22133599366
0.0284763696780682,1064.23133599366
0.020772663719392,1064.24133599366
0.0132480592670091,1064.25133599366
0.00581028844219118,1064.26133599366
-0.0013214439458715,1064.27133599366
-0.008108140353522,1064.28133599366
-0.0151477159634217,1064.29133599366
-0.0219010031221519,1064.30133599366
-0.0292142031041598,1064.31133599366
-0.0368640978362889,1064.32133599366
-0.044739548341369,1064.33133599366
-0.052802085437692,1064.34133599366
-0.0610197616427302,1064.35133599366
-0.0688999898417134,1064.36133599366
-0.0779072788695063,1064.37133599366
-0.0872653331560176,1064.38133599366
-0.0965453743318048,1064.39133599366
-0.105254216316011,1064.40133599366
-0.113939574180581,1064.41133599366
-0.122451606650382,1064.42133599366
-0.130878405554638,1064.43133599366
-0.140093201822123,1064.44133599366
-0.149399457597102,1064.45133599366
-0.158499607027668,1064.46133599366
-0.165961564634821,1064.47133599366
-0.170569166876425,1064.48133599366
-0.169315701963924,1064.49133599366
-0.158682755102823,1064.50133599366
-0.13470459626396,1064.51133599366
-0.0944540099106309,1064.52133599366
-0.0377374772109001,1064.53133599366
0.0335466714911958,1064.54133599366
0.115172427599638,1064.55133599366
0.202182627894684,1064.56133599366
0.288963817003437,1064.57133599366
0.37039018040043,1064.58133599366
0.442666443294718,1064.59133599366
0.50230960316601,1064.60133599366
0.547841812867453,1064.61133599366
0.579630190294908,1064.62133599366
0.598700417568087,1064.63133599366
0.607259220842884,1064.64133599366
0.607125398424509,1064.65133599366
0.600785259287286,1064.66133599366
0.589952715398504,1064.67133599366
0.575602225198864,1064.68133599366
0.559505873011251,1064.69133599366
0.541912364279662,1064.70133599366
0.523651648295971,1064.71133599366
0.505442424257147,1064.72133599366
0.487930804294446,1064.73133599366
0.470669462503995,1064.74133599366
0.45409691937801,1064.75133599366
0.437336088891001,1064.76133599366
0.420080977227921,1064.77133599366
0.401772973967637,1064.78133599366
0.382575666627692,1064.79133599366
0.363272311559358,1064.80133599366
0.34461601323338,1064.81133599366
0.327529061344555,1064.82133599366
0.313471166489473,1064.83133599366
0.303419873678304,1064.84133599366
0.29796308387007,1064.85133599366
0.297257029047834,1064.86133599366
0.302360754213805,1064.87133599366
0.312869991891905,1064.88133599366
0.328314984545184,1064.89133599366
0.347105168914203,1064.90133599366
0.367926675610524,1064.91133599366
0.389277431659553,1064.92133599366
0.409239732791851,1064.93133599366
0.426857883745485,1064.94133599366
0.441507722862166,1064.95133599366
0.451928111263338,1064.96133599366
0.45804786200687,1064.97133599366
0.460726407195165,1064.98133599366
0.460530037519023,1064.99133599366
0.457669355181884,1065.00133599366
0.453321146725492,1065.01133599366
0.447320636585928,1065.02133599366
0.440137366298972,1065.03133599366
0.431020950941566,1065.04133599366
0.421467838280983,1065.05133599366
0.410539008396654,1065.06133599366
0.39924705659805,1065.07133599366
0.388320056511073,1065.08133599366
0.376935982009553,1065.09133599366
0.36547809666933,1065.10133599366
0.354277469810901,1065.11133599366
0.3430906855781,1065.12133599366
0.332358689117168,1065.13133599366
0.321794160128854,1065.14133599366
0.311862937788262,1065.15133599366
0.302559324203961,1065.16133599366
0.29424082215513,1065.17133599366
0.28658768731066,1065.18133599366
0.279413804355823,1065.19133599366
0.272989505598176,1065.20133599366
0.266323387932438,1065.21133599366
0.260090561532543,1065.22133599366
0.253214651764429,1065.23133599366
0.245701248747429,1065.24133599366
0.23802066734924,1065.25133599366
0.230447154614499,1065.26133599366
0.223339095131471,1065.27133599366
0.216066621674149,1065.28133599366
0.208992790994078,1065.29133599366
0.202403605374807,1065.30133599366
0.195089829719525,1065.31133599366
0.187777607032002,1065.32133599366
0.179896550325092,1065.33133599366
0.171789483008627,1065.34133599366
0.163502157542382,1065.35133599366
0.155134150467055,1065.36133599366
0.146619584689698,1065.37133599366
0.138564254333466,1065.38133599366
0.130643056231106,1065.39133599366
0.122963626516785,1065.40133599366
0.115461717276804,1065.41133599366
0.108394268486472,1065.42133599366
0.10146763373383,1065.43133599366
0.0949576326551977,1065.44133599366
0.0883225573575855,1065.45133599366
0.0817712638587989,1065.46133599366
0.075133117221814,1065.47133599366
0.0680092345466776,1065.48133599366
0.0609656196258752,1065.49133599366
0.0540237438592084,1065.50133599366
0.0469655204444314,1065.51133599366
0.0399480334169956,1065.52133599366
0.0329280761303487,1065.53133599366
0.0256533568153881,1065.54133599366
0.0180981091312302,1065.55133599366
0.0112731359678099,1065.56133599366
0.00484648284738174,1065.57133599366
-0.000831339684926361,1065.58133599366
-0.00687313012286499,1065.59133599366
-0.0128413770504368,1065.60133599366
-0.0191131235330781,1065.61133599366
-0.0257412289975555,1065.62133599366
-0.0325467169106483,1065.63133599366
-0.0392729100127145,1065.64133599366
-0.0460130041069813,1065.65133599366
-0.0522925002072837,1065.66133599366
-0.0590103863975031,1065.67133599366
-0.0651554249915384,1065.68133599366
-0.0709361537957773,1065.69133599366
-0.0743937921465627,1065.70133599366
-0.0724813505658988,1065.71133599366
-0.0610959060561444,1065.72133599366
-0.0366744543719853,1065.73133599366
0.00342482935952131,1065.74133599366
0.0607770748201839,1065.75133599366
0.132375438896713,1065.76133599366
0.214482460241575,1065.77133599366
0.302079339738305,1065.78133599366
0.388878188947081,1065.79133599366
0.470299989835647,1065.80133599366
0.542139954168233,1065.81133599366
0.601691929019756,1065.82133599366
0.648734248691962,1065.83133599366
0.681906283821946,1065.84133599366
0.702817828269338,1065.85133599366
0.713306435657835,1065.86133599366
0.714669979820177,1065.87133599366
0.709861284420428,1065.88133599366
0.699875122568242,1065.89133599366
0.68657545960051,1065.90133599366
0.671313228526993,1065.91133599366
0.655501418813911,1065.92133599366
0.639118995302481,1065.93133599366
0.622464738848858,1065.94133599366
0.605893377661771,1065.95133599366
0.58958493973115,1065.96133599366
0.573274461418576,1065.97133599366
0.557259761279787,1065.98133599366
0.540976820781869,1065.99133599366
0.524016025038902,1066.00133599366
0.506026470506791,1066.01133599366
0.487326088123895,1066.02133599366
0.46863243024153,1066.03133599366
0.451319872994527,1066.04133599366
0.436407994524663,1066.05133599366
0.425329280105542,1066.06133599366
0.419421336170842,1066.07133599366
0.418541180850089,1066.08133599366
0.422943815349619,1066.09133599366
0.43218370823877,1066.10133599366
0.445937586291632,1066.11133599366
0.463393194392515,1066.12133599366
0.483058705452955,1066.13133599366
0.503300641300485,1066.14133599366
0.522985764010247,1066.15133599366
0.539730379727593,1066.16133599366
0.553691287706396,1066.17133599366
0.563444833071724,1066.18133599366
0.56877011145726,1066.19133599366
0.569931755383666,1066.20133599366
0.567450976578351,1066.21133599366
0.561829310407745,1066.22133599366
0.554609888809073,1066.23133599366
0.545747035359118,1066.24133599366
0.535168642427995,1066.25133599366
0.523609345677596,1066.26133599366
0.510888841704317,1066.27133599366
0.497724473429819,1066.28133599366
0.485008479094358,1066.29133599366
0.47267850880205,1066.30133599366
0.460998489150982,1066.31133599366
0.450657558906345,1066.32133599366
0.441200248708628,1066.33133599366
0.431226340579369,1066.34133599366
0.421241463126146,1066.35133599366
0.411207610336444,1066.36133599366
0.401428718425667,1066.37133599366
0.391973772636511,1066.38133599366
0.383087766439631,1066.39133599366
0.374901035656473,1066.40133599366
0.366348351230021,1066.41133599366
0.357939182745017,1066.42133599366
0.349020532832006,1066.43133599366
0.340188189864615,1066.44133599366
0.331980972941308,1066.45133599366
0.324235095528818,1066.46133599366
0.316840073659842,1066.47133599366
0.309506137253136,1066.48133599366
0.30167063130498,1066.49133599366
0.293518136751021,1066.50133599366
0.285099676508561,1066.51133599366
0.276201656030376,1066.52133599366
0.267562995328556,1066.53133599366
0.25883452276212,1066.54133599366
0.249889436316125,1066.55133599366
0.240927025389024,1066.56133599366
0.232129035765913,1066.57133599366
0.222846471093798,1066.58133599366
0.21384264447634,1066.59133599366
0.204905971033877,1066.60133599366
0.195951587527072,1066.61133599366
0.187178454612769,1066.62133599366
0.178629786989357,1066.63133599366
0.17012685334113,1066.64133599366
0.16173074863799,1066.65133599366
0.153907365312615,1066.66133599366
0.145870843450421,1066.67133599366
0.138008952260681,1066.68133599366
0.129348430010947,1066.69133599366
0.121290440314964,1066.70133599366
0.112993068174111,1066.71133599366
0.105159300675298,1066.72133599366
0.0979305609815905,1066.73133599366
0.0908178614484268,1066.74133599366
0.0838835694128209,1066.75133599366
0.0769435647459999,1066.76133599366
0.07019336178702,1066.77133599366
0.0636082237684674,1066.78133599366
0.0566942758513875,1066.79133599366
0.0497467130432589,1066.80133599366
0.0428569583868597,1066.81133599366
0.0360110701634438,1066.82133599366
0.0294153835896549,1066.83133599366
0.023275157818118,1066.84133599366
0.0173785744386087,1066.85133599366
0.0112445019014341,1066.86133599366
0.00533872810120489,1066.87133599366
-0.000628819608424273,1066.88133599366
-0.00684524662331263,1066.89133599366
-0.0131450244349356,1066.90133599366
-0.0202792918451018,1066.91133599366
-0.0280438508172666,1066.92133599366
-0.03625392825363,1066.93133599366
-0.0444887854516481,1066.94133599366
-0.0523626313488596,1066.95133599366
-0.0591418836368529,1066.96133599366
-0.0638760808541467,1066.97133599366
-0.0633856765918835,1066.98133599366
-0.0540603786682431,1066.99133599366
-0.0317238449352468,1067.00133599366
0.00700643777831614,1067.01133599366
0.0631086733354278,1067.02133599366
0.13508468478523,1067.03133599366
0.219255977607453,1067.04133599366
0.309760128620973,1067.05133599366
0.400719953313368,1067.06133599366
0.487036162805153,1067.07133599366
0.563970542996163,1067.08133599366
0.629132957193383,1067.09133599366
0.681197612015049,1067.10133599366
0.718975896783706,1067.11133599366
0.74425988009378,1067.12133599366
0.758544857264069,1067.13133599366
0.763341220222133,1067.14133599366
0.760671523913718,1067.15133599366
0.752240586481816,1067.16133599366
0.739416754755835,1067.17133599366
0.723940669750031,1067.18133599366
0.706260354328696,1067.19133599366
0.6871758123059,1067.20133599366
0.667628857559549,1067.21133599366
0.64829277169055,1067.22133599366
0.629564066283202,1067.23133599366
0.611201908363161,1067.24133599366
0.593503451485671,1067.25133599366
0.575576081797336,1067.26133599366
0.557097928235774,1067.27133599366
0.538330643988644,1067.28133599366
0.519409742701939,1067.29133599366
0.500705517903688,1067.30133599366
0.482259281218339,1067.31133599366
0.466220518975646,1067.32133599366
0.453621309106539,1067.33133599366
0.444589144203919,1067.34133599366
0.440763278068887,1067.35133599366
0.441457856115264,1067.36133599366
0.447195777238888,1067.37133599366
0.45729165619928,1067.38133599366
0.471265751610315,1067.39133599366
0.4876772375029,1067.40133599366
0.505326428686628,1067.41133599366
0.522029250287216,1067.42133599366
0.53663537352198,1067.43133599366
0.548620626210024,1067.44133599366
0.557056645563187,1067.45133599366
0.56161682031998,1067.46133599366
0.562403197861308,1067.47133599366
0.559920970613307,1067.48133599366
0.55436728315871,1067.49133599366
0.547028759064176,1067.50133599366
0.537889652359006,1067.51133599366
0.527481810089592,1067.52133599366
0.516245664046662,1067.53133599366
0.504580857614996,1067.54133599366
0.492262606472466,1067.55133599366
0.479844396366555,1067.56133599366
0.467405874343107,1067.57133599366
0.454897338252823,1067.58133599366
0.442615291788529,1067.59133599366
0.43065408347785,1067.60133599366
0.418939394778685,1067.61133599366
0.407925542548225,1067.62133599366
0.39730538018621,1067.63133599366
0.386570594003438,1067.64133599366
0.376229245462528,1067.65133599366
0.365358226117131,1067.66133599366
0.354881577818795,1067.67133599366
0.344374221692933,1067.68133599366
0.334040609318818,1067.69133599366
0.323825949560713,1067.70133599366
0.313682146991359,1067.71133599366
0.303919236334864,1067.72133599366
0.293819315391249,1067.73133599366
0.283924282561874,1067.74133599366
0.273958428849974,1067.75133599366
0.264571056373269,1067.76133599366
0.255071120889837,1067.77133599366
0.245947481761757,1067.78133599366
0.236198879065635,1067.79133599366
0.226699684415433,1067.80133599366
0.217087710932938,1067.81133599366
0.207747599237412,1067.82133599366
0.198644196731909,1067.83133599366
0.189598318657424,1067.84133599366
0.181238312105148,1067.85133599366
0.17287560889369,1067.86133599366
0.164924808485553,1067.87133599366
0.156411070051044,1067.88133599366
0.14819970720523,1067.89133599366
0.140115902448097,1067.90133599366
0.131362971181373,1067.91133599366
0.122756371419381,1067.92133599366
0.114066462571366,1067.93133599366
0.105343907186699,1067.94133599366
0.0967912413741137,1067.95133599366
0.0889963955689343,1067.96133599366
0.081731146820078,1067.97133599366
0.0749070026320254,1067.98133599366
0.0675222347374568,1067.99133599366
0.0601190602190695,1068.00133599366
0.0526144466218715,1068.01133599366
0.0452014439754893,1068.02133599366
0.0377783135527601,1068.03133599366
0.0302916333032448,1068.04133599366
0.0231033625297076,1068.05133599366
0.0161564444665648,1068.06133599366
0.0099353238250453,1068.07133599366
0.00450122432027755,1068.08133599366
-0.000689479429425754,1068.09133599366
-0.00523820879208598,1068.10133599366
-0.0105039687031955,1068.11133599366
-0.0165827316456428,1068.12133599366
-0.0225919361155834,1068.13133599366
-0.0289380654333886,1068.14133599366
-0.0348190020429904,1068.15133599366
-0.0401588320598267,1068.16133599366
-0.0448057384535985,1068.17133599366
-0.0497190968201187,1068.18133599366
-0.0549255099667669,1068.19133599366
-0.0603618645075468,1068.20133599366
-0.0662207294251963,1068.21133599366
-0.0712759861220905,1068.22133599366
-0.074015851096667,1068.23133599366
-0.0726706086447894,1068.24133599366
-0.0626610229283434,1068.25133599366
-0.041068353548301,1068.26133599366
-0.00464534516408313,1068.27133599366
0.0476009723156924,1068.28133599366
0.114699951622137,1068.29133599366
0.193787999208021,1068.30133599366
0.279243530513854,1068.31133599366
0.365945835678038,1068.32133599366
0.448562993084553,1068.33133599366
0.523428842377882,1068.34133599366
0.586846568978002,1068.35133599366
0.636534653661454,1068.36133599366
0.673010570235436,1068.37133599366
0.696742573857152,1068.38133599366
0.709487435697456,1068.39133599366
0.712823729630117,1068.40133599366
0.708103364452543,1068.41133599366
0.697860692403359,1068.42133599366
0.683757280371733,1068.43133599366
0.666435055844702,1068.44133599366
0.648535160730602,1068.45133599366
0.630344787096835,1068.46133599366
0.612006855002978,1068.47133599366
0.594308732533141,1068.48133599366
0.575957636683773,1068.49133599366
0.557358353052763,1068.50133599366
0.538051594746376,1068.51133599366
0.517626394439782,1068.52133599366
0.496672431269281,1068.53133599366
0.475773314983012,1068.54133599366
0.454477945225599,1068.55133599366
0.434411072309132,1068.56133599366
0.416625430552922,1068.57133599366
0.402208581707016,1068.58133599366
0.392095227948047,1068.59133599366
0.387453010111978,1068.60133599366
0.388956184967315,1068.61133599366
0.396649167943782,1068.62133599366
0.409173409314532,1068.63133599366
0.426190129828858,1068.64133599366
0.446337527518399,1068.65133599366
0.467353947611388,1068.66133599366
0.488353798997338,1068.67133599366
0.507605980410861,1068.68133599366
0.524171177593407,1068.69133599366
0.537635122716592,1068.70133599366
0.547285851185111,1068.71133599366
0.55264907314073,1068.72133599366
0.55409303065674,1068.73133599366
0.552106878247717,1068.74133599366
0.547054035353837,1068.75133599366
0.539753737284832,1068.76133599366
0.531173018008424,1068.77133599366
0.521499952296646,1068.78133599366
0.511287167480819,1068.79133599366
0.500336158196258,1068.80133599366
0.488960208426111,1068.81133599366
0.477869200106717,1068.82133599366
0.466871482844492,1068.83133599366
0.455834843369838,1068.84133599366
0.445086246748167,1068.85133599366
0.434450354704489,1068.86133599366
0.424525642305186,1068.87133599366
0.414096537071491,1068.88133599366
0.404042627367239,1068.89133599366
0.394363561788116,1068.90133599366
0.384638213002213,1068.91133599366
0.375715625780517,1068.92133599366
0.367186925709418,1068.93133599366
0.358809547840425,1068.94133599366
0.350555843069838,1068.95133599366
0.342477622603635,1068.96133599366
0.334587036493509,1068.97133599366
0.326159266840692,1068.98133599366
0.319095245562425,1068.99133599366
0.311963889131007,1069.00133599366
0.305134911436213,1069.01133599366
0.297932354423002,1069.02133599366
0.290024759024021,1069.03133599366
0.282140099385201,1069.04133599366
0.273637685053154,1069.05133599366
0.265384043260414,1069.06133599366
0.257466992315129,1069.07133599366
0.249300107832281,1069.08133599366
0.241690734036457,1069.09133599366
0.233564868201368,1069.10133599366
0.225528019797641,1069.11133599366
0.217566591417518,1069.12133599366
0.209206431563563,1069.13133599366
0.200407802472863,1069.14133599366
0.191260307048071,1069.15133599366
0.182426448280131,1069.16133599366
0.173852516406304,1069.17133599366
0.165851195030794,1069.18133599366
0.157902031040158,1069.19133599366
0.150070811820616,1069.20133599366
0.14244044077106,1069.21133599366
0.134623775080071,1069.22133599366
0.126668824159161,1069.23133599366
0.118782616324323,1069.24133599366
0.110868870878589,1069.25133599366
0.103240744560559,1069.26133599366
0.0957533119911788,1069.27133599366
0.0888734006068085,1069.28133599366
0.0819851159880346,1069.29133599366
0.0757325716078296,1069.30133599366
0.0698833551577801,1069.31133599366
0.0639597118377905,1069.32133599366
0.0582996077832302,1069.33133599366
0.0526996042947486,1069.34133599366
0.047100237843691,1069.35133599366
0.0416475502269982,1069.36133599366
0.0358210443508645,1069.37133599366
0.0294176000410086,1069.38133599366
0.0230614895478569,1069.39133599366
0.0160875161238429,1069.40133599366
0.00834986360833662,1069.41133599366
0.00064677200095401,1069.42133599366
-0.00683966147426021,1069.43133599366
-0.0127033401433595,1069.44133599366
-0.0150972216812251,1069.45133599366
-0.0106611654947765,1069.46133599366
0.00460673726260244,1069.47133599366
0.0344273537305498,1069.48133599366
0.0807717142327366,1069.49133599366
0.143639195796726,1069.50133599366
0.220958660700076,1069.51133599366
0.307219954927238,1069.52133599366
0.39865403287007,1069.53133599366
0.488396667978383,1069.54133599366
0.571849883508995,1069.55133599366
0.645354819803946,1069.56133599366
0.705888169036035,1069.57133599366
0.752813010640302,1069.58133599366
0.78638478398727,1069.59133599366
0.808225243043027,1069.60133599366
0.819319165497412,1069.61133599366
0.822100597063633,1069.62133599366
0.817137048059618,1069.63133599366
0.807755779971187,1069.64133599366
0.795178174508254,1069.65133599366
0.780306645494237,1069.66133599366
0.764611717632534,1069.67133599366
0.748038766277004,1069.68133599366
0.731327059564007,1069.69133599366
0.715227320014675,1069.70133599366
0.69994726229261,1069.71133599366
0.684479029822885,1069.72133599366
0.669355879336388,1069.73133599366
0.653601074246584,1069.74133599366
0.636516711842439,1069.75133599366
0.618397988570039,1069.76133599366
0.59972089942877,1069.77133599366
0.581362514009889,1069.78133599366
0.564661949076977,1069.79133599366
0.550748965066118,1069.80133599366
0.539402216660696,1069.81133599366
0.531878364962014,1069.82133599366
0.52882208733686,1069.83133599366
0.530476679425857,1069.84133599366
0.537419052448629,1069.85133599366
0.549137839230114,1069.86133599366
0.563990454379918,1069.87133599366
0.580989446390595,1069.88133599366
0.59844577647394,1069.89133599366
0.615326641248715,1069.90133599366
0.629797479006284,1069.91133599366
0.641253373760934,1069.92133599366
0.649091741240728,1069.93133599366
0.652981553784887,1069.94133599366
0.653289513703098,1069.95133599366
0.650730487691408,1069.96133599366
0.645965407831827,1069.97133599366
0.639527946026782,1069.98133599366
0.631904913032684,1069.99133599366
0.622995082663828,1070.00133599366
0.613313617778746,1070.01133599366
0.6028698532761,1070.02133599366
0.592044243396719,1070.03133599366
0.580154489668254,1070.04133599366
0.567707718590932,1070.05133599366
0.555075632662147,1070.06133599366
0.54301233394015,1070.07133599366
0.531419783449431,1070.08133599366
0.520504783831277,1070.09133599366
0.51034885530426,1070.10133599366
0.500656850399553,1070.11133599366
0.491472610290324,1070.12133599366
0.482544503718856,1070.13133599366
0.473681044007504,1070.14133599366
0.464801474012928,1070.15133599366
0.456083928737168,1070.16133599366
0.447560956796313,1070.17133599366
0.43859141265519,1070.18133599366
0.429359546428054,1070.19133599366
0.420173065610592,1070.20133599366
0.410728595650872,1070.21133599366
0.401712582163812,1070.22133599366
0.392728022134603,1070.23133599366
0.383253332105267,1070.24133599366
0.374294935377449,1070.25133599366
0.365297489726087,1070.26133599366
0.35595755622012,1070.27133599366
0.346774414218095,1070.28133599366
0.337233394941864,1070.29133599366
0.327616651631901,1070.30133599366
0.318168821892755,1070.31133599366
0.309076591653854,1070.32133599366
0.3000004009824,1070.33133599366
0.291114807182365,1070.34133599366
0.282730551442662,1070.35133599366
0.273888633913388,1070.36133599366
0.265723220718637,1070.37133599366
0.257483865201864,1070.38133599366
0.248901529571335,1070.39133599366
0.240160906308622,1070.40133599366
0.23140488061293,1070.41133599366
0.222128133259477,1070.42133599366
0.21322551639479,1070.43133599366
0.204314713384959,1070.44133599366
0.195177205509168,1070.45133599366
0.185819954263496,1070.46133599366
0.176624988756624,1070.47133599366
0.167450329989194,1070.48133599366
0.15869526799048,1070.49133599366
0.150319394561591,1070.50133599366
0.142235453923126,1070.51133599366
0.134284092766621,1070.52133599366
0.12620134275815,1070.53133599366
0.118201544067965,1070.54133599366
0.109971386266323,1070.55133599366
0.101782152441729,1070.56133599366
0.093340233209176,1070.57133599366
0.0851426078623596,1070.58133599366
0.0773755309158925,1070.59133599366
0.0699852034915313,1070.60133599366
0.062587909338427,1070.61133599366
0.0554482454123646,1070.62133599366
0.047976174903842,1070.63133599366
0.0403697261116654,1070.64133599366
0.0323927847708841,1070.65133599366
0.0234266448568985,1070.66133599366
0.0138085727042387,1070.67133599366
0.0034856660273849,1070.68133599366
-0.00704093354085656,1070.69133599366
-0.0179094484094148,1070.70133599366
-0.0286211817826945,1070.71133599366
-0.039168942816702,1070.72133599366
-0.0484376492198857,1070.73133599366
-0.0546629461682836,1070.74133599366
-0.0563578859042141,1070.75133599366
-0.0499413236627395,1070.76133599366
-0.0316504272131129,1070.77133599366
0.00164868111634854,1070.78133599366
0.0515407326241199,1070.79133599366
0.117079472170492,1070.80133599366
0.195700212504008,1070.81133599366
0.282294166533368,1070.82133599366
0.37212513100714,1070.83133599366
0.459909107447282,1070.84133599366
0.540329995989552,1070.85133599366
0.609994648323722,1070.86133599366
0.666616131879995,1070.87133599366
0.709171024207759,1070.88133599366
0.739097917503721,1070.89133599366
0.756428959482178,1070.90133599366
0.763553985511414,1070.91133599366
0.762441190616566,1070.92133599366
0.75480232730329,1070.93133599366
0.742604370827655,1070.94133599366
0.727152443705865,1070.95133599366
0.710213449220495,1070.96133599366
0.691955740982028,1070.97133599366
0.673624532778935,1070.98133599366
0.65568167169956,1070.99133599366
0.637797086632121,1071.00133599366
0.620088454857615,1071.01133599366
0.60251809233915,1071.02133599366
0.584359777105586,1071.03133599366
0.565514043616008,1071.04133599366
0.545752481888899,1071.05133599366
0.525111980322319,1071.06133599366
0.504384156967092,1071.07133599366
0.484070494084208,1071.08133599366
0.465977111903825,1071.09133599366
0.450817078304172,1071.10133599366
0.440042877193401,1071.11133599366
0.434410984725293,1071.12133599366
0.433659673060181,1071.13133599366
0.438228513523742,1071.14133599366
0.446928068516505,1071.15133599366
0.459096485276556,1071.16133599366
0.473657713437053,1071.17133599366
0.489379257488211,1071.18133599366
0.504877015685742,1071.19133599366
0.51930200431982,1071.20133599366
0.531463456282008,1071.21133599366
0.540197477680461,1071.22133599366
0.546142946118681,1071.23133599366
0.548510504725937,1071.24133599366
0.547698637713689,1071.25133599366
0.544047694191315,1071.26133599366
0.537717607598656,1071.27133599366
0.529344466179033,1071.28133599366
0.519356440923301,1071.29133599366
0.508428680777245,1071.30133599366
0.496423640047019,1071.31133599366
0.483685554345116,1071.32133599366
0.471146486007205,1071.33133599366
0.458225756193131,1071.34133599366
0.445439116902512,1071.35133599366
0.432633429851941,1071.36133599366
0.419769988836628,1071.37133599366
0.407079540009087,1071.38133599366
0.394960105764209,1071.39133599366
0.383172068501691,1071.40133599366
0.371596967224263,1071.41133599366
0.361014875134654,1071.42133599366
0.350461604388,1071.43133599366
0.340292583937322,1071.44133599366
0.33050905511126,1071.45133599366
0.321029696510937,1071.46133599366
0.311626379693228,1071.47133599366
0.302022756991269,1071.48133599366
0.293144433583665,1071.49133599366
0.283729542525603,1071.50133599366
0.274651498476883,1071.51133599366
0.26531127389926,1071.52133599366
0.256287785299136,1071.53133599366
0.247216594496383,1071.54133599366
0.237826495589137,1071.55133599366
0.228537699759888,1071.56133599366
0.219811750347562,1071.57133599366
0.211358550259888,1071.58133599366
0.203060222895271,1071.59133599366
0.19483311893316,1071.60133599366
0.18664755270848,1071.61133599366
0.178176266796094,1071.62133599366
0.169355647900865,1071.63133599366
0.160895971701281,1071.64133599366
0.152247579435325,1071.65133599366
0.143435333873169,1071.66133599366
0.134948529996367,1071.67133599366
0.126348018258893,1071.68133599366
0.118115142186071,1071.69133599366
0.110089679559915,1071.70133599366
0.102632083888362,1071.71133599366
0.0949800737386437,1071.72133599366
0.0872019486631733,1071.73133599366
0.0802305291423393,1071.74133599366
0.0736927055218932,1071.75133599366
0.0672776668796559,1071.76133599366
0.0611623913528775,1071.77133599366
0.0546727702602882,1071.78133599366
0.0481244024139344,1071.79133599366
0.0424092695700052,1071.80133599366
0.0368231697869151,1071.81133599366
0.0316126329707928,1071.82133599366
0.0272398489717335,1071.83133599366
0.0226846811013643,1071.84133599366
0.0175510904882264,1071.85133599366
0.0117385235747192,1071.86133599366
0.00520044124062233,1071.87133599366
-0.00180554944241357,1071.88133599366
-0.00839380569125646,1071.89133599366
-0.0146827389805154,1071.90133599366
-0.0208854912056091,1071.91133599366
-0.0271319908343344,1071.92133599366
-0.0335219698316537,1071.93133599366
-0.0408440019871143,1071.94133599366
-0.0479278966133846,1071.95133599366
-0.0548686955737598,1071.96133599366
-0.0599201411460771,1071.97133599366
-0.0610337404512365,1071.98133599366
-0.0548438848682832,1071.99133599366
-0.0377169877469569,1072.00133599366
-0.00721365252397362,1072.01133599366
0.0395617369633702,1072.02133599366
0.101106644682735,1072.03133599366
0.176459853447875,1072.04133599366
0.261163903374126,1072.05133599366
0.349518032352919,1072.06133599366
0.436557609829152,1072.07133599366
0.517024726799798,1072.08133599366
0.588083007031355,1072.09133599366
0.646369909791456,1072.10133599366
0.691571732940379,1072.11133599366
0.723778802855854,1072.12133599366
0.7440184411909,1072.13133599366
0.753838320474394,1072.14133599366
0.754775651158933,1072.15133599366
0.749444882187791,1072.16133599366
0.738640387635823,1072.17133599366
0.724253005215948,1072.18133599366
0.707723059573557,1072.19133599366
0.689768076975366,1072.20133599366
0.671444502358475,1072.21133599366
0.652637341727833,1072.22133599366
0.633427278813008,1072.23133599366
0.614139919066636,1072.24133599366
0.594672846008466,1072.25133599366
0.574671708508842,1072.26133599366
0.553928606444199,1072.27133599366
0.532710414663577,1072.28133599366
0.511010652753909,1072.29133599366
0.490206856840008,1072.30133599366
0.470409324110398,1072.31133599366
0.453144043989671,1072.32133599366
0.439813070415375,1072.33133599366
0.430711906899464,1072.34133599366
0.426536152115721,1072.35133599366
0.427900814730442,1072.36133599366
0.434734934306717,1072.37133599366
0.445964040212282,1072.38133599366
0.460744981391306,1072.39133599366
0.477992266121298,1072.40133599366
0.495743425512154,1072.41133599366
0.512852748493977,1072.42133599366
0.527733654427206,1072.43133599366
0.539379311029695,1072.44133599366
0.547434653036064,1072.45133599366
0.551906517631315,1072.46133599366
0.552373536801419,1072.47133599366
0.549160465618576,1072.48133599366
0.54322093927863,1072.49133599366
0.535237093388796,1072.50133599366
0.525403093122981,1072.51133599366
0.514268816763812,1072.52133599366
0.502684649287974,1072.53133599366
0.490170229808116,1072.54133599366
0.476957144556198,1072.55133599366
0.462944020753671,1072.56133599366
0.448326405226194,1072.57133599366
0.433791769145785,1072.58133599366
0.419171440336355,1072.59133599366
0.40574075962059,1072.60133599366
0.39292453032103,1072.61133599366
0.380526188828372,1072.62133599366
0.369022512819839,1072.63133599366
0.357620677256721,1072.64133599366
0.346331965348734,1072.65133599366
0.334951416408777,1072.66133599366
0.323708164257182,1072.67133599366
0.311868807828562,1072.68133599366
0.300164623991381,1072.69133599366
0.288303744836028,1072.70133599366
0.276474978603619,1072.71133599366
0.265357615936686,1072.72133599366
0.254043699968529,1072.73133599366
0.24264123357644,1072.74133599366
0.231541505756492,1072.75133599366
0.220644508672498,1072.76133599366
0.210244048766643,1072.77133599366
0.199812753583243,1072.78133599366
0.189419332166147,1072.79133599366
0.178946937314483,1072.80133599366
0.167986563305,1072.81133599366
0.157055774680896,1072.82133599366
0.146283282509615,1072.83133599366
0.135592637863459,1072.84133599366
0.124844812592163,1072.85133599366
0.114442494314499,1072.86133599366
0.103901691768044,1072.87133599366
0.0932903224468251,1072.88133599366
0.0828501141189741,1072.89133599366
0.0722556632686294,1072.90133599366
0.0616712089894413,1072.91133599366
0.0515117715450345,1072.92133599366
0.0417169173158808,1072.93133599366
0.0317022130625386,1072.94133599366
0.0225206632513841,1072.95133599366
0.0128270927975634,1072.96133599366
0.00417589448553863,1072.97133599366
-0.00389534245605657,1072.98133599366
-0.0113870140846975,1072.99133599366
-0.018779793951437,1073.00133599366
-0.0260648806885206,1073.01133599366
-0.0328902954519449,1073.02133599366
-0.0398013508892665,1073.03133599366
-0.0464521447010163,1073.04133599366
-0.0522355133652718,1073.05133599366
-0.0575546130591923,1073.06133599366
-0.0631837128514305,1073.07133599366
-0.0682323604316604,1073.08133599366
-0.0729280674705825,1073.09133599366
-0.0780168285652442,1073.10133599366
-0.082475170960061,1073.11133599366
-0.0869398220340468,1073.12133599366
-0.0906072863811373,1073.13133599366
-0.0941802635277725,1073.14133599366
-0.0973830768343634,1073.15133599366
-0.100081629063963,1073.16133599366
-0.101485707944161,1073.17133599366
-0.101324887492406,1073.18133599366
-0.0977678432583076,1073.19133599366
-0.087367240381696,1073.20133599366
-0.0674394131898462,1073.21133599366
-0.0342046119914415,1073.22133599366
0.0147321143835186,1073.23133599366
0.0795281969273964,1073.24133599366
0.158731598016329,1073.25133599366
0.248626133565718,1073.26133599366
0.342919910232459,1073.27133599366
0.436045308734397,1073.28133599366
0.522194190655324,1073.29133599366
0.597655254347389,1073.30133599366
0.659558502227725,1073.31133599366
0.706560940478513,1073.32133599366
0.739921618451928,1073.33133599366
0.759961661832984,1073.34133599366
0.768298315887354,1073.35133599366
0.767398563570199,1073.36133599366
0.758637319518999,1073.37133599366
0.743923458139954,1073.38133599366
0.724684013610265,1073.39133599366
0.702250412633512,1073.40133599366
0.677855539365852,1073.41133599366
0.652621270854421,1073.42133599366
0.627754868614574,1073.43133599366
0.602851276476484,1073.44133599366
0.578627926921709,1073.45133599366
0.555639940660762,1073.46133599366
0.532993119079547,1073.47133599366
0.511303951862606,1073.48133599366
0.489477882512481,1073.49133599366
0.467916212768084,1073.50133599366
0.446383554779726,1073.51133599366
0.425259202290594,1073.52133599366
0.405905549438331,1073.53133599366
0.389551815638159,1073.54133599366
0.376818336936892,1073.55133599366
0.369012162471386,1073.56133599366
0.367419205193256,1073.57133599366
0.371643491119897,1073.58133599366
0.381577158754333,1073.59133599366
0.396614428995899,1073.60133599366
0.415436924746102,1073.61133599366
0.436636572385732,1073.62133599366
0.458904540574054,1073.63133599366
0.480188525911946,1073.64133599366
0.498198173374569,1073.65133599366
0.512880472341297,1073.66133599366
0.523472588222349,1073.67133599366
0.529332037970733,1073.68133599366
0.531391252346431,1073.69133599366
0.530350129511988,1073.70133599366
0.526098753798455,1073.71133599366
0.519624017412149,1073.72133599366
0.511148333753005,1073.73133599366
0.501341600221666,1073.74133599366
0.490069610738415,1073.75133599366
0.477909274937999,1073.76133599366
0.465025179197517,1073.77133599366
0.452222575752687,1073.78133599366
0.439193332668458,1073.79133599366
0.426359350375029,1073.80133599366
0.413233841281843,1073.81133599366
0.400447282528119,1073.82133599366
0.388125028500294,1073.83133599366
0.375827744986266,1073.84133599366
0.364387219879754,1073.85133599366
0.352977710426632,1073.86133599366
0.341190617255438,1073.87133599366
0.329995056353438,1073.88133599366
0.318243136956972,1073.89133599366
0.306295789087029,1073.90133599366
0.294971486471108,1073.91133599366
0.284111174429666,1073.92133599366
0.273623332971179,1073.93133599366
0.263816164881883,1073.94133599366
0.254321547944203,1073.95133599366
0.244627708711375,1073.96133599366
0.234477928377816,1073.97133599366
0.224297888530533,1073.98133599366
0.214108406385644,1073.99133599366
0.20361227939315,1074.00133599366
0.193843081440716,1074.01133599366
0.184231860386615,1074.02133599366
0.17416247847832,1074.03133599366
0.165029306723662,1074.04133599366
0.15536271600865,1074.05133599366
0.145955569760516,1074.06133599366
0.136512260288299,1074.07133599366
0.126983679535988,1074.08133599366
0.11717657823853,1074.09133599366
0.107332688435824,1074.10133599366
0.0974847068342075,1074.11133599366
0.0872617555442593,1074.12133599366
0.0776967561982364,1074.13133599366
0.0680670770034686,1074.14133599366
0.058602879005419,1074.15133599366
0.0493325236475798,1074.16133599366
0.0403673347019985,1074.17133599366
0.0312891652395876,1074.18133599366
0.0231270188374005,1074.19133599366
0.0153442554329348,1074.20133599366
0.00785055876980157,1074.21133599366
0.000295672525508829,1074.22133599366
-0.00718207350982022,1074.23133599366
-0.0152772497028701,1074.24133599366
-0.0235756975149904,1074.25133599366
-0.0312587048466295,1074.26133599366
-0.0386652507169118,1074.27133599366
-0.0454770992884397,1074.28133599366
-0.0519178404794643,1074.29133599366
-0.0580981334474127,1074.30133599366
-0.0643594338849021,1074.31133599366
-0.0708367102512134,1074.32133599366
-0.0762610227429208,1074.33133599366
-0.0787089805488197,1074.34133599366
-0.0755017380881823,1074.35133599366
-0.0625721971728941,1074.36133599366
-0.0360329530358031,1074.37133599366
0.00716034555320273,1074.38133599366
0.0678026715213274,1074.39133599366
0.14425800138376,1074.40133599366
0.232523606074172,1074.41133599366
0.326976747794845,1074.42133599366
0.421425990469607,1074.43133599366
0.510784001738568,1074.44133599366
0.590538426857136,1074.45133599366
0.657684864770792,1074.46133599366
0.710472813944979,1074.47133599366
0.749002963163236,1074.48133599366
0.774337006860345,1074.49133599366
0.788270673448912,1074.50133599366
0.792790354359442,1074.51133599366
0.790248128868874,1074.52133599366
0.781636274734283,1074.53133599366
0.768502854714738,1074.54133599366
0.751945250152827,1074.55133599366
0.733235037100208,1074.56133599366
0.713927086116295,1074.57133599366
0.694388992928412,1074.58133599366
0.675372772387371,1074.59133599366
0.656973784895019,1074.60133599366
0.639059134770969,1074.61133599366
0.621353544379739,1074.62133599366
0.602925230955301,1074.63133599366
0.583516796883554,1074.64133599366
0.56238245577148,1074.65133599366
0.540532392376906,1074.66133599366
0.518458229100006,1074.67133599366
0.497337590601595,1074.68133599366
0.479113529257169,1074.69133599366
0.463670311243337,1074.70133599366
0.452924838531685,1074.71133599366
0.447216410991252,1074.72133599366
0.446984435479118,1074.73133599366
0.451255664351257,1074.74133599366
0.460294572230016,1074.75133599366
0.472765069540008,1074.76133599366
0.487530234473312,1074.77133599366
0.502993812379083,1074.78133599366
0.517813592542101,1074.79133599366
0.530598625373101,1074.80133599366
0.539821915010206,1074.81133599366
0.54547171231371,1074.82133599366
0.546896136005958,1074.83133599366
0.544905320918151,1074.84133599366
0.540640987889279,1074.85133599366
0.534310263146625,1074.86133599366
0.526869464336053,1074.87133599366
0.51776225370089,1074.88133599366
0.507659171220982,1074.89133599366
0.495462971471186,1074.90133599366
0.482219471794237,1074.91133599366
0.46786932486636,1074.92133599366
0.453025593427687,1074.93133599366
0.437821278725006,1074.94133599366
0.423241250695446,1074.95133599366
0.409399374748773,1074.96133599366
0.395660258323335,1074.97133599366
0.382574275275481,1074.98133599366
0.368813036684756,1074.99133599366
0.355460488625502,1075.00133599366
0.342483595209242,1075.01133599366
0.329738477475269,1075.02133599366
0.317851108746046,1075.03133599366
0.306033908638882,1075.04133599366
0.294829057021579,1075.05133599366
0.283517665983358,1075.06133599366
0.27238519008002,1075.07133599366
0.261884947174728,1075.08133599366
0.251451525267861,1075.09133599366
0.240713938914436,1075.10133599366
0.229643515667602,1075.11133599366
0.218705181148249,1075.12133599366
0.207713240824885,1075.13133599366
0.196898620073899,1075.14133599366
0.186303752697545,1075.15133599366
0.175962858713873,1075.16133599366
0.165584136651678,1075.17133599366
0.155341282823182,1075.18133599366
0.144431365501871,1075.19133599366
0.13426473142602,1075.20133599366
0.123534762687585,1075.21133599366
0.113280088575667,1075.22133599366
0.103395392348075,1075.23133599366
0.0935246517720131,1075.24133599366
0.0845160303813958,1075.25133599366
0.074946237574603,1075.26133599366
0.0645463011637523,1075.27133599366
0.053919244198233,1075.28133599366
0.0435590096314848,1075.29133599366
0.0329155833808009,1075.30133599366
0.0228410087684498,1075.31133599366
0.0128957406969854,1075.32133599366
0.00338229690766949,1075.33133599366
-0.00587100031764901,1075.34133599366
-0.0152344112165301,1075.35133599366
-0.0249589564878055,1075.36133599366
-0.0344758652376133,1075.37133599366
-0.0439881385480935,1075.38133599366
-0.0540214894986866,1075.39133599366
-0.0640240034594659,1075.40133599366
-0.0742050389438158,1075.41133599366
-0.0843558095882399,1075.42133599366
-0.0940968543628952,1075.43133599366
-0.103847182591927,1075.44133599366
-0.113404672410506,1075.45133599366
-0.122805861409317,1075.46133599366
-0.130209438063205,1075.47133599366
-0.134159076200763,1075.48133599366
-0.131697067448724,1075.49133599366
-0.119732029970153,1075.50133599366
-0.094868193756656,1075.51133599366
-0.0547331277142727,1075.52133599366
-0.000957138686185828,1075.53133599366
0.0646913980371281,1075.54133599366
0.138589964649913,1075.55133599366
0.215577423582761,1075.56133599366
0.291584583186343,1075.57133599366
0.361584875268603,1075.58133599366
0.422387334927198,1075.59133599366
0.472046957669907,1075.60133599366
0.508546913029977,1075.61133599366
0.533750900145709,1075.62133599366
0.548537557581058,1075.63133599366
0.554236033643473,1075.64133599366
0.551810575559583,1075.65133599366
0.543783586221783,1075.66133599366
0.530450665064762,1075.67133599366
0.514724473114596,1075.68133599366
0.496611821032646,1075.69133599366
0.477478807173631,1075.70133599366
0.457655915818562,1075.71133599366
0.438018123503649,1075.72133599366
0.418480421296102,1075.73133599366
0.399279036499547,1075.74133599366
0.379477800230649,1075.75133599366
0.358462705631943,1075.76133599366
0.336298846907462,1075.77133599366
0.3125847820205,1075.78133599366
0.289129829164711,1075.79133599366
0.266027154195932,1075.80133599366
0.246304323233002,1075.81133599366
0.229836393792115,1075.82133599366
0.218981238076294,1075.83133599366
0.214016281038878,1075.84133599366
0.214927310512239,1075.85133599366
0.220906770689531,1075.86133599366
0.231453735682953,1075.87133599366
0.245804080937303,1075.88133599366
0.261522881523762,1075.89133599366
0.278205901823746,1075.90133599366
0.294284400380922,1075.91133599366
0.308277844344859,1075.92133599366
0.319404577380562,1075.93133599366
0.327074087097456,1075.94133599366
0.331082205202351,1075.95133599366
0.331347968131656,1075.96133599366
0.328926848201973,1075.97133599366
0.323727695228857,1075.98133599366
0.315842864491675,1075.99133599366
0.30627467131528,1076.00133599366
0.295711487646173,1076.01133599366
0.284838484093645,1076.02133599366
0.273090094227165,1076.03133599366
0.261414975284358,1076.04133599366
0.249439856507913,1076.05133599366
0.237065034743142,1076.06133599366
0.224178282040937,1076.07133599366
0.211948757440462,1076.08133599366
0.199197878877655,1076.09133599366
0.186651006580109,1076.10133599366
0.174068345084388,1076.11133599366
0.161869327227486,1076.12133599366
0.150397871520348,1076.13133599366
0.139283034788293,1076.14133599366
0.128851213665369,1076.15133599366
0.118265397811963,1076.16133599366
0.108383237728562,1076.17133599366
0.0982987631500271,1076.18133599366
0.0880057675365764,1076.19133599366
0.0777353620805129,1076.20133599366
0.0677369731101616,1076.21133599366
0.0574764906402613,1076.22133599366
0.0474880870465327,1076.23133599366
0.0368763704393472,1076.24133599366
0.0258294342173461,1076.25133599366
0.0141727125791931,1076.26133599366
0.00277092623328438,1076.27133599366
-0.0079736200489066,1076.28133599366
-0.0191238631750137,1076.29133599366
-0.0296514155769525,1076.30133599366
-0.0403555034639615,1076.31133599366
-0.0510386866577268,1076.32133599366
-0.0614878344230358,1076.33133599366
-0.0719684260825824,1076.34133599366
-0.0823183218174307,1076.35133599366
-0.0921998464406482,1076.36133599366
-0.10170075039594,1076.37133599366
-0.111050183777752,1076.38133599366
-0.11997270681717,1076.39133599366
-0.12880198980243,1076.40133599366
-0.137975998268839,1076.41133599366
-0.147605765325523,1076.42133599366
-0.157521296312905,1076.43133599366
-0.16817573303386,1076.44133599366
-0.179187894254283,1076.45133599366
-0.190358049823543,1076.46133599366
-0.201555203754892,1076.47133599366
-0.212486956148147,1076.48133599366
-0.223177958968819,1076.49133599366
-0.233826439127731,1076.50133599366
-0.244587807983209,1076.51133599366
-0.254406163934384,1076.52133599366
-0.263408522803681,1076.53133599366
-0.269408709760191,1076.54133599366
-0.26980144718954,1076.55133599366
-0.262425229224267,1076.56133599366
-0.24370226112943,1076.57133599366
-0.21258073581861,1076.58133599366
-0.169095708232988,1076.59133599366
-0.115249975453871,1076.60133599366
-0.0534732225508725,1076.61133599366
0.0113056975574233,1076.62133599366
0.0758524410522811,1076.63133599366
0.136286918671683,1076.64133599366
0.190552628786419,1076.65133599366
0.23633716033075,1076.66133599366
0.272559253826719,1076.67133599366
0.299235984265646,1076.68133599366
0.316777439400113,1076.69133599366
0.325535732912993,1076.70133599366
0.327790773510433,1076.71133599366
0.32465588218395,1076.72133599366
0.317811628188185,1076.73133599366
0.307685549638043,1076.74133599366
0.295248838807181,1076.75133599366
0.280738305978941,1076.76133599366
0.265327194827316,1076.77133599366
0.249335283264582,1076.78133599366
0.232748978141273,1076.79133599366
0.216546552381514,1076.80133599366
0.200319554671399,1076.81133599366
0.183682763909209,1076.82133599366
0.167022506419422,1076.83133599366
0.149479862615567,1076.84133599366
0.131421577540936,1076.85133599366
0.113100801075157,1076.86133599366
0.0956000902838093,1076.87133599366
0.0790395507401645,1076.88133599366
0.0651373984048168,1076.89133599366
0.0542833584349815,1076.90133599366
0.046940950937322,1076.91133599366
0.0428807818754209,1076.92133599366
0.0426247192955301,1076.93133599366
0.045223803168462,1076.94133599366
0.0507546750873443,1076.95133599366
0.058743019983604,1076.96133599366
0.0679255072825891,1076.97133599366
0.076937548832996,1076.98133599366
0.0841371860409953,1076.99133599366
0.0888083471732906,1077.00133599366
0.0899765444146918,1077.01133599366
0.0880999833643619,1077.02133599366
0.0835228892028044,1077.03133599366
0.0771091680135899,1077.04133599366
0.068683672260606,1077.05133599366
0.0596744860427393,1077.06133599366
0.0501174670848375,1077.07133599366
0.0397744012499512,1077.08133599366
0.0292224113461676,1077.09133599366
0.0175670000982005,1077.10133599366
0.00604543700590571,1077.11133599366
-0.00628788580949111,1077.12133599366
-0.0190973303318918,1077.13133599366
-0.0315636674843939,1077.14133599366
-0.0443788644064611,1077.15133599366
-0.0575680944193512,1077.16133599366
-0.0702840750423147,1077.17133599366
-0.0829293142325723,1077.18133599366
-0.0953910231038543,1077.19133599366
-0.107253477774089,1077.20133599366
-0.119255062569645,1077.21133599366
-0.130763231303528,1077.22133599366
-0.142190436983655,1077.23133599366
-0.153762231190328,1077.24133599366
-0.164711978200905,1077.25133599366
-0.175675466544989,1077.26133599366
-0.186291366924762,1077.27133599366
-0.196959318641621,1077.28133599366
-0.207336082474385,1077.29133599366
-0.217999165662875,1077.30133599366
-0.228767471184407,1077.31133599366
-0.239844664101961,1077.32133599366
-0.250385216616501,1077.33133599366
-0.260382562474747,1077.34133599366
-0.270606332946838,1077.35133599366
-0.280831704979574,1077.36133599366
-0.29151437225043,1077.37133599366
-0.302363280543546,1077.38133599366
-0.31348263341947,1077.39133599366
-0.324255717697297,1077.40133599366
-0.33470623549492,1077.41133599366
-0.344836855991507,1077.42133599366
-0.354422246509218,1077.43133599366
-0.364138692347156,1077.44133599366
-0.374083173150685,1077.45133599366
-0.384258341681433,1077.46133599366
-0.39454304103963,1077.47133599366
-0.404696523610285,1077.48133599366
-0.41479086120852,1077.49133599366
-0.424571466869728,1077.50133599366
-0.434282994666198,1077.51133599366
-0.443883222837328,1077.52133599366
-0.453883004622423,1077.53133599366
-0.463817910734181,1077.54133599366
-0.473360376638812,1077.55133599366
-0.483225363989352,1077.56133599366
-0.492585269075536,1077.57133599366
-0.501543593245561,1077.58133599366
-0.510757401290248,1077.59133599366
-0.518867741092774,1077.60133599366
-0.527051681600655,1077.61133599366
-0.534117101441985,1077.62133599366
-0.538076529120012,1077.63133599366
-0.537035860943568,1077.64133599366
-0.528539345977543,1077.65133599366
-0.510341742684731,1077.66133599366
-0.481740628038369,1077.67133599366
-0.442911543031705,1077.68133599366
-0.396027989036548,1077.69133599366
-0.344615440741236,1077.70133599366
-0.292031453123116,1077.71133599366
-0.242277970824517,1077.72133599366
-0.19777945045468,1077.73133599366
-0.160044754025691,1077.74133599366
-0.130482671219629,1077.75133599366
-0.108277948372054,1077.76133599366
-0.0936680734825123,1077.77133599366
-0.0862345222717115,1077.78133599366
-0.0842120139799062,1077.79133599366
-0.0863350014100121,1077.80133599366
-0.0914823998348386,1077.81133599366
-0.0984172641184877,1077.82133599366
-0.106809370684094,1077.83133599366
-0.115631135048461,1077.84133599366
-0.124693359298737,1077.85133599366
-0.133996417323753,1077.86133599366
-0.143058091759142,1077.87133599366
-0.151892524268526,1077.88133599366
-0.160604491543453,1077.89133599366
-0.169896664358244,1077.90133599366
-0.1803602929309,1077.91133599366
-0.192284673217601,1077.92133599366
-0.205380628885351,1077.93133599366
-0.218822169989327,1077.94133599366
-0.232600810285112,1077.95133599366
-0.245186721995257,1077.96133599366
-0.256042735626467,1077.97133599366
-0.265322576932489,1077.98133599366
-0.272640737064006,1077.99133599366
-0.27689825981259,1078.00133599366
-0.278184932824222,1078.01133599366
-0.276599839170914,1078.02133599366
-0.272526685856696,1078.03133599366
-0.266929670322281,1078.04133599366
-0.260013234034229,1078.05133599366
-0.252905071506832,1078.06133599366
-0.246510784475632,1078.07133599366
-0.241362899034764,1078.08133599366
-0.238533618959365,1078.09133599366
-0.23741934395341,1078.10133599366
-0.238306956799551,1078.11133599366
-0.240745776752365,1078.12133599366
-0.244005557838275,1078.13133599366
-0.248579486521517,1078.14133599366
-0.254061541853248,1078.15133599366
-0.260573962970252,1078.16133599366
-0.268505601475853,1078.17133599366
-0.277264637003018,1078.18133599366
-0.286044758158569,1078.19133599366
-0.295128066314903,1078.20133599366
-0.304134527536005,1078.21133599366
-0.31311421611699,1078.22133599366
-0.322207481717569,1078.23133599366
-0.331156853693551,1078.24133599366
-0.34004428786535,1078.25133599366
-0.34852892153462,1078.26133599366
-0.356795163637217,1078.27133599366
-0.36506849860488,1078.28133599366
-0.373393248894769,1078.29133599366
-0.381916600215254,1078.30133599366
-0.390711813096438,1078.31133599366
-0.399531524038173,1078.32133599366
-0.408842537581289,1078.33133599366
-0.417757476745487,1078.34133599366
-0.426796404196785,1078.35133599366
-0.435642425132781,1078.36133599366
-0.444132231243601,1078.37133599366
-0.45246104526718,1078.38133599366
-0.461289381448896,1078.39133599366
-0.470109333819638,1078.40133599366
-0.479297263299922,1078.41133599366
-0.488172107831563,1078.42133599366
-0.496731038325115,1078.43133599366
-0.505693024264091,1078.44133599366
-0.513924248100105,1078.45133599366
-0.521568118831161,1078.46133599366
-0.52938826190682,1078.47133599366
-0.537167976401726,1078.48133599366
-0.545324662067627,1078.49133599366
-0.553387325169241,1078.50133599366
-0.560569212570802,1078.51133599366
-0.567010427764141,1078.52133599366
-0.573289043363995,1078.53133599366
-0.578915271848932,1078.54133599366
-0.584180151583756,1078.55133599366
-0.589047542176413,1078.56133599366
-0.593551284856444,1078.57133599366
-0.597498847890452,1078.58133599366
-0.600956092604198,1078.59133599366
-0.603880018068879,1078.60133599366
-0.606450669677814,1078.61133599366
-0.609142152767381,1078.62133599366
-0.610398625696331,1078.63133599366
-0.611572785387094,1078.64133599366
-0.610208050436313,1078.65133599366
-0.60590077394846,1078.66133599366
-0.596920509613928,1078.67133599366
-0.581767310915719,1078.68133599366
-0.559606239374512,1078.69133599366
-0.530538768606607,1078.70133599366
-0.496463601160201,1078.71133599366
-0.459174258375904,1078.72133599366
-0.420916435145823,1078.73133599366
-0.384769128208978,1078.74133599366
-0.352997974984746,1078.75133599366
-0.32697079595462,1078.76133599366
-0.307460146266257,1078.77133599366
-0.294735594600396,1078.78133599366
-0.288494579244993,1078.79133599366
-0.288055502200346,1078.80133599366
-0.292502439952231,1078.81133599366
-0.300481798866651,1078.82133599366
-0.311496669257471,1078.83133599366
-0.324149193613737,1078.84133599366
-0.338286854884396,1078.85133599366
-0.352113638441194,1078.86133599366
-0.364969827079601,1078.87133599366
-0.376278661996422,1078.88133599366
-0.38634102623064,1078.89133599366
-0.395843914731292,1078.90133599366
-0.404669220204484,1078.91133599366
-0.414029429696186,1078.92133599366
-0.423954252562186,1078.93133599366
-0.435130417169062,1078.94133599366
-0.447082322732354,1078.95133599366
-0.459080579833816,1078.96133599366
-0.47084081868285,1078.97133599366
-0.481308550856195,1078.98133599366
-0.490208799282044,1078.99133599366
-0.497303542123579,1079.00133599366
-0.502815081483096,1079.01133599366
-0.506009454925812,1079.02133599366
-0.507342429416214,1079.03133599366
-0.507285170440971,1079.04133599366
-0.505430356211673,1079.05133599366
-0.502309291499597,1079.06133599366
-0.497753031216129,1079.07133599366
-0.493738514717422,1079.08133599366
-0.490387195836975,1079.09133599366
-0.488818503093115,1079.10133599366
-0.489611511392881,1079.11133599366
-0.493032203238558,1079.12133599366
-0.498225080326299,1079.13133599366
-0.504925067333526,1079.14133599366
-0.512670312624394,1079.15133599366
-0.521397055750706,1079.16133599366
-0.530366786857314,1079.17133599366
-0.539542770742655,1079.18133599366
-0.549152039118116,1079.19133599366
-0.558904877138271,1079.20133599366
-0.568662480258841,1079.21133599366
-0.578818527058046,1079.22133599366
-0.588964285493675,1079.23133599366
-0.599244106857802,1079.24133599366
-0.6095661949137,1079.25133599366
-0.61916470024843,1079.26133599366
-0.628345284450531,1079.27133599366
-0.637366864946054,1079.28133599366
-0.645603778533733,1079.29133599366
-0.654040750841744,1079.30133599366
-0.661928415810435,1079.31133599366
-0.669793972265212,1079.32133599366
-0.677564691615884,1079.33133599366
-0.685592378557488,1079.34133599366
-0.693519929831452,1079.35133599366
-0.701519810855706,1079.36133599366
-0.709537715246935,1079.37133599366
-0.717497180803694,1079.38133599366
-0.725803770346379,1079.39133599366
-0.733643063278732,1079.40133599366
-0.741969111684216,1079.41133599366
-0.750362262084648,1079.42133599366
-0.758537506072778,1079.43133599366
-0.766179505883945,1079.44133599366
-0.774248584991035,1079.45133599366
-0.782324263603043,1079.46133599366
-0.790643182915675,1079.47133599366
-0.79972014702695,1079.48133599366
-0.808464751577054,1079.49133599366
-0.817757387936597,1079.50133599366
-0.826708284503069,1079.51133599366
-0.834786688027503,1079.52133599366
-0.84293955992658,1079.53133599366
-0.850186202355212,1079.54133599366
-0.857237553677334,1079.55133599366
-0.86375363414657,1079.56133599366
-0.870084446505446,1079.57133599366
-0.877028143573776,1079.58133599366
-0.883683635647847,1079.59133599366
-0.890810874194433,1079.60133599366
-0.898400147501077,1079.61133599366
-0.906186309203607,1079.62133599366
-0.913558118017173,1079.63133599366
-0.921293891534751,1079.64133599366
-0.929361124153421,1079.65133599366
-0.936959916465866,1079.66133599366
-0.943793463392003,1079.67133599366
-0.948863185590074,1079.68133599366
-0.95161814676612,1079.69133599366
-0.950543078911592,1079.70133599366
-0.944022788865047,1079.71133599366
-0.930999838530892,1079.72133599366
-0.910862228057079,1079.73133599366
-0.884543460561721,1079.74133599366
-0.853439807763763,1079.75133599366
-0.819823716500651,1079.76133599366
-0.786400983415232,1079.77133599366
-0.755326457343224,1079.78133599366
-0.728348126984895,1079.79133599366
-0.706665639486538,1079.80133599366
-0.690740177061391,1079.81133599366
-0.680461940490492,1079.82133599366
-0.675296230220383,1079.83133599366
-0.674215627109037,1079.84133599366
-0.676673182177236,1079.85133599366
-0.681365335495335,1079.86133599366
-0.688264319540214,1079.87133599366
-0.695853204558532,1079.88133599366
-0.703903584703528,1079.89133599366
-0.712272941043432,1079.90133599366
-0.72031673062074,1079.91133599366
-0.728434632913301,1079.92133599366
-0.735666030735873,1079.93133599366
-0.743171522305443,1079.94133599366
-0.751289455506864,1079.95133599366
-0.758982355398521,1079.96133599366
-0.767963537491963,1079.97133599366
-0.777360421929729,1079.98133599366
-0.786801292518557,1079.99133599366
-0.795822778804131,1080.00133599366
-0.804408400914739,1080.01133599366
-0.811766523727802,1080.02133599366
-0.817265449874947,1080.03133599366
-0.821106277793057,1080.04133599366
-0.823234623304356,1080.05133599366
-0.82312389240915,1080.06133599366
-0.820900271720123,1080.07133599366
-0.816438995177308,1080.08133599366
-0.810446381353143,1080.09133599366
-0.803265399655604,1080.10133599366
-0.796013129330024,1080.11133599366
-0.78916975807459,1080.12133599366
-0.784055455147149,1080.13133599366
-0.780692258394645,1080.14133599366
-0.77942005135367,1080.15133599366
-0.77994656987217,1080.16133599366
-0.781773557525727,1080.17133599366
-0.784450990161334,1080.18133599366
-0.788156297281711,1080.19133599366
-0.792279089227328,1080.20133599366
-0.796661612861852,1080.21133599366
-0.802132096552957,1080.22133599366
-0.807830525033907,1080.23133599366
-0.814044002614353,1080.24133599366
-0.82026921335664,1080.25133599366
-0.826032679006972,1080.26133599366
-0.832797983065033,1080.27133599366
-0.838962186718329,1080.28133599366
-0.845071358682635,1080.29133599366
-0.851340219412692,1080.30133599366
-0.857277434595252,1080.31133599366
-0.863015776424466,1080.32133599366
-0.867816327336492,1080.33133599366
-0.872259655538017,1080.34133599366
-0.876504890008714,1080.35133599366
-0.880382957037724,1080.36133599366
-0.884702262000193,1080.37133599366
-0.888529176105432,1080.38133599366
-0.892431589657005,1080.39133599366
-0.896208706042571,1080.40133599366
-0.900348779638514,1080.41133599366
-0.904359477457455,1080.42133599366
-0.908903220093849,1080.43133599366
-0.912819677105271,1080.44133599366
-0.916818476871335,1080.45133599366
-0.920777859289018,1080.46133599366
-0.924643257274756,1080.47133599366
-0.92862052436844,1080.48133599366
-0.932482738860752,1080.49133599366
-0.936130384706531,1080.50133599366
-0.94006179762813,1080.51133599366
-0.943474714444653,1080.52133599366
-0.947815817436676,1080.53133599366
-0.95230572903173,1080.54133599366
-0.95652074064095,1080.55133599366
-0.961182511417493,1080.56133599366
-0.965882311599579,1080.57133599366
-0.97077179497063,1080.58133599366
-0.975909220979644,1080.59133599366
-0.981717262406505,1080.60133599366
-0.987160659202183,1080.61133599366
-0.992392795046386,1080.62133599366
-0.997227366491488,1080.63133599366
-1.00115155522567,1080.64133599366
-1.00411008213597,1080.65133599366
-1.00639241665738,1080.66133599366
-1.00682105081165,1080.67133599366
-1.00327952125887,1080.68133599366
-0.995423805281313,1080.69133599366
-0.981921427366778,1080.70133599366
-0.962251558171797,1080.71133599366
-0.93794446850984,1080.72133599366
-0.910088305520992,1080.73133599366
-0.880215576597276,1080.74133599366
-0.85139384509653,1080.75133599366
-0.824979624915719,1080.76133599366
-0.802673103029781,1080.77133599366
-0.785204995185946,1080.78133599366
-0.77349425419978,1080.79133599366
-0.76626776523182,1080.80133599366
-0.763373236754783,1080.81133599366
-0.763695547779781,1080.82133599366
-0.766560109949916,1080.83133599366
-0.771709849588783,1080.84133599366
-0.777700555184704,1080.85133599366
-0.783973202030243,1080.86133599366
-0.789995648998935,1080.87133599366
-0.796126927747312,1080.88133599366
-0.801871752332821,1080.89133599366
-0.807591971302265,1080.90133599366
-0.813909255785443,1080.91133599366
-0.820775102490184,1080.92133599366
-0.828263769109188,1080.93133599366
-0.835979369246653,1080.94133599366
-0.844087656042822,1080.95133599366
-0.851807437008287,1080.96133599366
-0.858972152433934,1080.97133599366
-0.864908930861258,1080.98133599366
-0.869128722877352,1080.99133599366
-0.871818078949161,1081.00133599366
-0.872270629641893,1081.01133599366
-0.870889654916005,1081.02133599366
-0.867166189325403,1081.03133599366
-0.861692940627743,1081.04133599366
-0.85526118188873,1081.05133599366
-0.847822041455951,1081.06133599366
-0.840952701460075,1081.07133599366
-0.834236345666586,1081.08133599366
-0.828929829948377,1081.09133599366
-0.824590499903648,1081.10133599366
-0.822021495056505,1081.11133599366
-0.820652035163405,1081.12133599366
-0.820710096062895,1081.13133599366
-0.822188992324408,1081.14133599366
-0.824540701883991,1081.15133599366
-0.82765948614019,1081.16133599366
-0.830821715972793,1081.17133599366
-0.834258939704846,1081.18133599366
-0.838141544603176,1081.19133599366
-0.842844823790359,1081.20133599366
-0.847665970842943,1081.21133599366
-0.852626464973428,1081.22133599366
-0.857712473065807,1081.23133599366
-0.862904140349251,1081.24133599366
-0.867769898969293,1081.25133599366
-0.871710802558633,1081.26133599366
-0.875457373586524,1081.27133599366
-0.878448480638219,1081.28133599366
-0.881292502503353,1081.29133599366
-0.884135614838212,1081.30133599366
-0.887351826255126,1081.31133599366
-0.890873403000273,1081.32133599366
-0.894170537120403,1081.33133599366
-0.897734940449961,1081.34133599366
-0.901252982064405,1081.35133599366
-0.904584666081782,1081.36133599366
-0.907890705667922,1081.37133599366
-0.911447344956,1081.38133599366
-0.914514632012821,1081.39133599366
-0.918002465671887,1081.40133599366
-0.921598510276081,1081.41133599366
-0.924856036161284,1081.42133599366
-0.928496162324247,1081.43133599366
-0.931391014651876,1081.44133599366
-0.934001101240589,1081.45133599366
-0.936263567088774,1081.46133599366
-0.938486641261517,1081.47133599366
-0.941014724944579,1081.48133599366
-0.943345753467223,1081.49133599366
-0.946574335900458,1081.50133599366
-0.950181243238004,1081.51133599366
-0.953533258923419,1081.52133599366
-0.957179595412221,1081.53133599366
-0.960568068736626,1081.54133599366
-0.963933763485946,1081.55133599366
-0.966963886204961,1081.56133599366
-0.970737006730881,1081.57133599366
-0.973426099861652,1081.58133599366
-0.976351729152264,1081.59133599366
-0.978995353738008,1081.60133599366
-0.982093713191947,1081.61133599366
-0.985586261548233,1081.62133599366
-0.989108187066031,1081.63133599366
-0.993418976077606,1081.64133599366
-0.997346420182613,1081.65133599366
-1.00142948650362,1081.66133599366
-1.004470167976,1081.67133599366
-1.00781026302077,1081.68133599366
-1.01013452742348,1081.69133599366
-1.01053619607124,1081.70133599366
-1.0079013107038,1081.71133599366
-0.999784424227794,1081.72133599366
-0.985627203599249,1081.73133599366
-0.964655584334374,1081.74133599366
-0.937508144508249,1081.75133599366
-0.906588914857409,1081.76133599366
-0.873255499221856,1081.77133599366
-0.839707169410776,1081.78133599366
-0.808973935109098,1081.79133599366
-0.782633637555354,1081.80133599366
-0.761227211075918,1081.81133599366
-0.744676929741868,1081.82133599366
-0.733227413347095,1081.83133599366
-0.726253556107794,1081.84133599366
-0.722744044873954,1081.85133599366
-0.722461306894173,1081.86133599366
-0.724635673293288,1081.87133599366
-0.728920029374337,1081.88133599366
-0.734672162508406,1081.89133599366
-0.740625206580662,1081.90133599366
-0.746230191172196,1081.91133599366
-0.751254303802592,1081.92133599366
-0.755344663332466,1081.93133599366
-0.758022642061193,1081.94133599366
-0.760414389931453,1081.95133599366
-0.762222046994009,1081.96133599366
-0.764488802685847,1081.97133599366
-0.767662958613864,1081.98133599366
-0.771393586344861,1081.99133599366
-0.775687465936769,1082.00133599366
-0.779612055535855,1082.01133599366
-0.783929130287919,1082.02133599366
-0.786864036874502,1082.03133599366
-0.789129130987437,1082.04133599366
-0.789730416319058,1082.05133599366
-0.788538231275879,1082.06133599366
-0.785550360393338,1082.07133599366
-0.780561923810936,1082.08133599366
-0.774114076014809,1082.09133599366
-0.766046160173303,1082.10133599366
-0.757607754316401,1082.11133599366
-0.749315895895379,1082.12133599366
-0.741923915873705,1082.13133599366
-0.735240127294185,1082.14133599366
-0.729679352745984,1082.15133599366
-0.724988011707851,1082.16133599366
-0.721648017444647,1082.17133599366
-0.720040022925459,1082.18133599366
-0.719196989452404,1082.19133599366
-0.719642135111843,1082.20133599366
-0.720899271146504,1082.21133599366
-0.722307184746618,1082.22133599366
-0.724295690946098,1082.23133599366
-0.726236040371794,1082.24133599366
-0.728798459596035,1082.25133599366
-0.731345927399783,1082.26133599366
-0.734284070982896,1082.27133599366
-0.737161139783266,1082.28133599366
-0.740252777358738,1082.29133599366
-0.743464023439381,1082.30133599366
-0.746230523177362,1082.31133599366
-0.749097314459408,1082.32133599366
-0.751324987352179,1082.33133599366
-0.753769431903677,1082.34133599366
-0.755658490769287,1082.35133599366
-0.757736288062412,1082.36133599366
-0.759838912492241,1082.37133599366
-0.761737811823679,1082.38133599366
-0.764014761328788,1082.39133599366
-0.766055008792872,1082.40133599366
-0.76821577565678,1082.41133599366
-0.770089595726317,1082.42133599366
-0.772343145785298,1082.43133599366
-0.775031748109216,1082.44133599366
-0.777327896096639,1082.45133599366
-0.779528032348209,1082.46133599366
-0.781209803383393,1082.47133599366
-0.783124740030077,1082.48133599366
-0.784467845583813,1082.49133599366
-0.786042622571451,1082.50133599366
-0.787087434856464,1082.51133599366
-0.787811384131117,1082.52133599366
-0.789260144886776,1082.53133599366
-0.790900870186632,1082.54133599366
-0.793462487066743,1082.55133599366
-0.796408750713016,1082.56133599366
-0.799667748047074,1082.57133599366
-0.802626030187018,1082.58133599366
-0.805238726675298,1082.59133599366
-0.807493775683731,1082.60133599366
-0.808828526740159,1082.61133599366
-0.810071135582043,1082.62133599366
-0.811622561307636,1082.63133599366
-0.812620431761107,1082.64133599366
-0.814310799271373,1082.65133599366
-0.816099621025844,1082.66133599366
-0.817896024018816,1082.67133599366
-0.820067733781623,1082.68133599366
-0.822334669725885,1082.69133599366
-0.82409478767412,1082.70133599366
-0.826320404689974,1082.71133599366
-0.828790282176297,1082.72133599366
-0.831205784987298,1082.73133599366
-0.833225185620521,1082.74133599366
-0.835425206589889,1082.75133599366
-0.837033195224617,1082.76133599366
-0.838528027688362,1082.77133599366
-0.839870522730535,1082.78133599366
-0.840953968067604,1082.79133599366
-0.840667753439045,1082.80133599366
-0.837816711658104,1082.81133599366
-0.830634880274509,1082.82133599366
-0.817477950634997,1082.83133599366
-0.797933319873297,1082.84133599366
-0.771805763688849,1082.85133599366
-0.740278855587617,1082.86133599366
-0.705611208268997,1082.87133599366
-0.66941325743679,1082.88133599366
-0.633509716222892,1082.89133599366
-0.600072281150974,1082.90133599366
-0.570559864056097,1082.91133599366
-0.546178702873327,1082.92133599366
-0.527417521316312,1082.93133599366
-0.514423707160924,1082.94133599366
-0.50681860335083,1082.95133599366
-0.50285271819318,1082.96133599366
-0.502161334715914,1082.97133599366
-0.503214750309549,1082.98133599366
-0.505464505601545,1082.99133599366
-0.508767920458132,1083.00133599366
-0.511984898535546,1083.01133599366
-0.515048376504387,1083.02133599366
-0.517543708497991,1083.03133599366
-0.519726478468058,1083.04133599366
-0.522335786204296,1083.05133599366
-0.525846287267731,1083.06133599366
-0.529940462171339,1083.07133599366
-0.534860716156638,1083.08133599366
-0.53987950732611,1083.09133599366
-0.545524705943393,1083.10133599366
-0.549628799257187,1083.11133599366
-0.552477530744587,1083.12133599366
-0.553066404810267,1083.13133599366
-0.551784906437118,1083.14133599366
-0.547851814799886,1083.15133599366
-0.541508245314213,1083.16133599366
-0.532994798392147,1083.17133599366
-0.522180887766434,1083.18133599366
-0.509180393027534,1083.19133599366
-0.494483031664774,1083.20133599366
-0.479122743174757,1083.21133599366
-0.464062137741129,1083.22133599366
-0.450553775921108,1083.23133599366
-0.439422243040926,1083.24133599366
-0.430587203775045,1083.25133599366
-0.423537921148989,1083.26133599366
-0.418801411321517,1083.27133599366
-0.415580426835013,1083.28133599366
-0.41281249888175,1083.29133599366
-0.411045198491366,1083.30133599366
-0.41004594873124,1083.31133599366
-0.409774738342007,1083.32133599366
-0.41008268833181,1083.33133599366
-0.411990659142033,1083.34133599366
-0.413704770517535,1083.35133599366
-0.415775257095921,1083.36133599366
-0.417763755449398,1083.37133599366
-0.419241861033991,1083.38133599366
-0.420771276569878,1083.39133599366
-0.421731438203813,1083.40133599366
-0.422157315125626,1083.41133599366
-0.422192891386695,1083.42133599366
-0.422322734634898,1083.43133599366
-0.422769700900197,1083.44133599366
-0.423077013461394,1083.45133599366
-0.423393230280115,1083.46133599366
-0.423009306947693,1083.47133599366
-0.422084538364934,1083.48133599366
-0.421339316126167,1083.49133599366
-0.420120505294466,1083.50133599366
-0.419251144729308,1083.51133599366
-0.41836678324088,1083.52133599366
-0.417717385932937,1083.53133599366
-0.417401638391377,1083.54133599366
-0.417122191819617,1083.55133599366
-0.417098216190227,1083.56133599366
-0.416970057220726,1083.57133599366
-0.416879467891286,1083.58133599366
-0.416121645907432,1083.59133599366
-0.415113077452027,1083.60133599366
-0.414101214489571,1083.61133599366
-0.41326259074216,1083.62133599366
-0.412878545424084,1083.63133599366
-0.412960929163905,1083.64133599366
-0.413292374136405,1083.65133599366
-0.413654238674712,1083.66133599366
-0.414126525635123,1083.67133599366
-0.415483299006247,1083.68133599366
-0.416749015150291,1083.69133599366
-0.418232810282598,1083.70133599366
-0.420476780061722,1083.71133599366
-0.423415240274938,1083.72133599366
-0.426627100478209,1083.73133599366
-0.430019022927863,1083.74133599366
-0.432809941141,1083.75133599366
-0.435446140650135,1083.76133599366
-0.437511663372066,1083.77133599366
-0.43936908246884,1083.78133599366
-0.44071699754992,1083.79133599366
-0.440680823168286,1083.80133599366
-0.43794537621704,1083.81133599366
-0.430650997358624,1083.82133599366
-0.417013201427631,1083.83133599366
-0.395090128506871,1083.84133599366
-0.364069230929376,1083.85133599366
-0.325032208807467,1083.86133599366
-0.279561367158217,1083.87133599366
-0.22904184437168,1083.88133599366
-0.177753480172002,1083.89133599366
-0.128347764326955,1083.90133599366
-0.083581976739172,1083.91133599366
-0.0454092898096586,1083.92133599366
-0.0142212336631134,1083.93133599366
0.00995527509192669,1083.94133599366
0.0288942864626478,1083.95133599366
0.0431485423056416,1083.96133599366
0.0531717447388657,1083.97133599366
0.0602787166696821,1083.98133599366
0.0649467535172978,1083.99133599366
0.0679195996608223,1084.00133599366
0.0703346337433525,1084.01133599366
0.07214569247417,1084.02133599366
0.0740079313336745,1084.03133599366
0.0762348832177299,1084.04133599366
0.0789747823998429,1084.05133599366
0.0811505147707714,1084.06133599366
0.0833029183405267,1084.07133599366
0.0839008511598708,1084.08133599366
0.0838426991329656,1084.09133599366
0.0826929532012533,1084.10133599366
0.0805048185572406,1084.11133599366
0.0779315621519902,1084.12133599366
0.0754667643938933,1084.13133599366
0.0736645398647361,1084.14133599366
0.0734219512035962,1084.15133599366
0.0757790011643196,1084.16133599366
0.0801725568153206,1084.17133599366
0.0868862855216974,1084.18133599366
0.0960592830090241,1084.19133599366
0.107049997420359,1084.20133599366
0.118669488921285,1084.21133599366
0.130605759903425,1084.22133599366
0.142749104301498,1084.23133599366
0.154636023438544,1084.24133599366
0.165743968126381,1084.25133599366
0.175261002539931,1084.26133599366
0.183119409972814,1084.27133599366
0.1887654226735,1084.28133599366
0.192410350150585,1084.29133599366
0.194062793792962,1084.30133599366
0.193919326792549,1084.31133599366
0.192609389285485,1084.32133599366
0.189919082841565,1084.33133599366
0.187188246442731,1084.34133599366
0.184115756278657,1084.35133599366
0.180698888194583,1084.36133599366
0.17682176258347,1084.37133599366
0.172098709445765,1084.38133599366
0.167009181672337,1084.39133599366
0.160863705111498,1084.40133599366
0.153784336307403,1084.41133599366
0.146114495907553,1084.42133599366
0.138750008900316,1084.43133599366
0.131831257687499,1084.44133599366
0.125319729436886,1084.45133599366
0.119482814260258,1084.46133599366
0.113998105050904,1084.47133599366
0.108161976500748,1084.48133599366
0.10258900494764,1084.49133599366
0.0967069603297256,1084.50133599366
0.0909759157463403,1084.51133599366
0.0857491590368926,1084.52133599366
0.0810402436889096,1084.53133599366
0.0763595978607958,1084.54133599366
0.0719190356518726,1084.55133599366
0.0678233620309863,1084.56133599366
0.0636719300176035,1084.57133599366
0.059226236155214,1084.58133599366
0.0545854408238569,1084.59133599366
0.0500276545133731,1084.60133599366
0.044966649166453,1084.61133599366
0.0395106962995333,1084.62133599366
0.0345296368261271,1084.63133599366
0.0294388797524311,1084.64133599366
0.0244245128723361,1084.65133599366
0.0194474416155888,1084.66133599366
0.0137637106767049,1084.67133599366
0.00765088915103608,1084.68133599366
0.00122904399368159,1084.69133599366
-0.00517088010042144,1084.70133599366
-0.0115214217273023,1084.71133599366
-0.0170293894332051,1084.72133599366
-0.0222937381568888,1084.73133599366
-0.0270597815690932,1084.74133599366
-0.0318310053091633,1084.75133599366
-0.0363519580957983,1084.76133599366
-0.0411428415642089,1084.77133599366
-0.0459185516770629,1084.78133599366
-0.0506184245280782,1084.79133599366
-0.0562190146428506,1084.80133599366
-0.0615549031366403,1084.81133599366
-0.0663543582531321,1084.82133599366
-0.0704677789105391,1084.83133599366
-0.0745155665192634,1084.84133599366
-0.0784772652196018,1084.85133599366
-0.0828762167215118,1084.86133599366
-0.0876108130622126,1084.87133599366
-0.0934161941896221,1084.88133599366
-0.0996396752118269,1084.89133599366
-0.106442501645069,1084.90133599366
-0.113644447414503,1084.91133599366
-0.120437624592229,1084.92133599366
-0.127220128372167,1084.93133599366
-0.134228270070741,1084.94133599366
-0.14081907161415,1084.95133599366
-0.147780996125792,1084.96133599366
-0.154623750640033,1084.97133599366
-0.161014971082115,1084.98133599366
-0.165111290265675,1084.99133599366
-0.165165504562769,1085.00133599366
-0.159704212778276,1085.01133599366
-0.145928681746852,1085.02133599366
-0.12178951814643,1085.03133599366
-0.0867023097932404,1085.04133599366
-0.0416444485074174,1085.05133599366
0.0104161683285849,1085.06133599366
0.0649190121321194,1085.07133599366
0.1185519614855,1085.08133599366
0.168600601525234,1085.09133599366
0.212147809879649,1085.10133599366
0.247901062547839,1085.11133599366
0.275367201663228,1085.12133599366
0.295288379669448,1085.13133599366
0.308369353180545,1085.14133599366
0.315103480456588,1085.15133599366
0.316681310890027,1085.16133599366
0.31499825635643,1085.17133599366
0.311188478154615,1085.18133599366
0.306281856155412,1085.19133599366
0.30161391777918,1085.20133599366
0.297091178751197,1085.21133599366
0.293089257565694,1085.22133599366
0.289669470809863,1085.23133599366
0.286384086420412,1085.24133599366
0.283023933679207,1085.25133599366
0.278282146255498,1085.26133599366
0.272760449206044,1085.27133599366
0.26569499396677,1085.28133599366
0.257824095643994,1085.29133599366
0.24884003779611,1085.30133599366
0.239915468468668,1085.31133599366
0.231851452111338,1085.32133599366
0.225459616739781,1085.33133599366
0.221437460232573,1085.34133599366
0.219882063451692,1085.35133599366
0.221092346183378,1085.36133599366
0.224904622934569,1085.37133599366
0.231512524996078,1085.38133599366
0.239721488336328,1085.39133599366
0.248870748696415,1085.40133599366
0.258912264656354,1085.41133599366
0.268565009887312,1085.42133599366
0.278216457673771,1085.43133599366
0.286688633790717,1085.44133599366
0.293751075476564,1085.45133599366
0.299070055341708,1085.46133599366
0.302986832595919,1085.47133599366
0.305296265713416,1085.48133599366
0.305687537741923,1085.49133599366
0.305698604812684,1085.50133599366
0.304493122539978,1085.51133599366
0.302634524598594,1085.52133599366
0.30019955959733,1085.53133599366
0.296816222968707,1085.54133599366
0.293285806508394,1085.55133599366
0.289492187676239,1085.56133599366
0.285282238926732,1085.57133599366
0.281020487727653,1085.58133599366
0.276096228460557,1085.59133599366
0.270814308876551,1085.60133599366
0.265327449017175,1085.61133599366
0.259687179455784,1085.62133599366
0.254146987370745,1085.63133599366
0.248359054468488,1085.64133599366
0.241760382211312,1085.65133599366
0.234632517479166,1085.66133599366
0.22721675257628,1085.67133599366
0.219464082097085,1085.68133599366
0.211938960371525,1085.69133599366
0.204391097302355,1085.70133599366
0.196140403297212,1085.71133599366
0.187578197930197,1085.72133599366
0.179192475735595,1085.73133599366
0.170320025126913,1085.74133599366
0.160589341389462,1085.75133599366
0.150169556234276,1085.76133599366
0.138856357630271,1085.77133599366
0.127180313650615,1085.78133599366
0.115404754112697,1085.79133599366
0.103919333717545,1085.80133599366
0.0926997382420715,1085.81133599366
0.0820066128588116,1085.82133599366
0.0725448994960204,1085.83133599366
0.0633581748579691,1085.84133599366
0.0547024996838488,1085.85133599366
0.0457785515676789,1085.86133599366
0.0363165816334271,1085.87133599366
0.0270528153796578,1085.88133599366
0.0179939225443225,1085.89133599366
0.00951570540526332,1085.90133599366
0.00179676231261224,1085.91133599366
-0.00586820659224471,1085.92133599366
-0.01238398907662,1085.93133599366
-0.0192123686705047,1085.94133599366
-0.0262757815285908,1085.95133599366
-0.0339695600959497,1085.96133599366
-0.0415858384412482,1085.97133599366
-0.0486337939986502,1085.98133599366
-0.0553116533589971,1085.99133599366
-0.0613736160884184,1086.00133599366
-0.0675183038893523,1086.01133599366
-0.0741183634909963,1086.02133599366
-0.0814440337772209,1086.03133599366
-0.0885703549235314,1086.04133599366
-0.0960167419523137,1086.05133599366
-0.103109807413948,1086.06133599366
-0.109771836740003,1086.07133599366
-0.115876973102339,1086.08133599366
-0.122017568824334,1086.09133599366
-0.128488094939438,1086.10133599366
-0.134672792524172,1086.11133599366
-0.140471898742047,1086.12133599366
-0.146396904740943,1086.13133599366
-0.15239689552815,1086.14133599366
-0.158049970539944,1086.15133599366
-0.163487862230845,1086.16133599366
-0.168794226962642,1086.17133599366
-0.174052508235748,1086.18133599366
-0.180126122109786,1086.19133599366
-0.187137301589387,1086.20133599366
-0.194444964527588,1086.21133599366
-0.201608839247425,1086.22133599366
-0.208570950339741,1086.23133599366
-0.213982455516005,1086.24133599366
-0.216628982123555,1086.25133599366
-0.214111692379513,1086.26133599366
-0.204557686830638,1086.27133599366
-0.185385967122585,1086.28133599366
-0.155573730352527,1086.29133599366
-0.11628734880615,1086.30133599366
-0.0696365046012091,1086.31133599366
-0.0192331018069371,1086.32133599366
0.031039588793821,1086.33133599366
0.0783560169042311,1086.34133599366
0.120266044544321,1086.35133599366
0.155600649019345,1086.36133599366
0.183207419415743,1086.37133599366
0.203162236351816,1086.38133599366
0.215825318377683,1086.39133599366
0.222516732509049,1086.40133599366
0.224287034193387,1086.41133599366
0.222856671535694,1086.42133599366
0.218759563018216,1086.43133599366
0.21367073301544,1086.44133599366
0.207879227469,1086.45133599366
0.201214949086724,1086.46133599366
0.194513990626529,1086.47133599366
0.187994748955869,1086.48133599366
0.181482791203585,1086.49133599366
0.175109682490313,1086.50133599366
0.168281671671796,1086.51133599366
0.161133554318256,1086.52133599366
0.153203353382684,1086.53133599366
0.144087456964454,1086.54133599366
0.134346247352494,1086.55133599366
0.124087505370784,1086.56133599366
0.114017571064753,1086.57133599366
0.106077442840375,1086.58133599366
0.0999771908595157,1086.59133599366
0.0962146985626588,1086.60133599366
0.0950392738259919,1086.61133599366
0.09649409746212,1086.62133599366
0.100894394395977,1086.63133599366
0.107424745696187,1086.64133599366
0.115593525287856,1086.65133599366
0.125235985775542,1086.66133599366
0.134555791703654,1086.67133599366
0.143681714697514,1086.68133599366
0.151365139427399,1086.69133599366
0.157254850523135,1086.70133599366
0.160164159525403,1086.71133599366
0.160952001401009,1086.72133599366
0.15963916785791,1086.73133599366
0.156453820069025,1086.74133599366
0.15180992080643,1086.75133599366
0.146062844217759,1086.76133599366
0.139190886525797,1086.77133599366
0.131785512678509,1086.78133599366
0.123912284982815,1086.79133599366
0.116418180202168,1086.80133599366
0.109218266950915,1086.81133599366
0.101785609137753,1086.82133599366
0.0944233216961772,1086.83133599366
0.0868720143917632,1086.84133599366
0.0795461962411115,1086.85133599366
0.0721456628495034,1086.86133599366
0.0648902955663354,1086.87133599366
0.0577199583981054,1086.88133599366
0.0510142588436284,1086.89133599366
0.0446776889623114,1086.90133599366
0.0382326159851613,1086.91133599366
0.0316399940965501,1086.92133599366
0.0249848960769601,1086.93133599366
0.0186315183334106,1086.94133599366
0.0115214922742899,1086.95133599366
0.00468725627166849,1086.96133599366
-0.00228798515303699,1086.97133599366
-0.00900153604463743,1086.98133599366
-0.0152813491711798,1086.99133599366
-0.0217664611603724,1087.00133599366
-0.0286559619541224,1087.01133599366
-0.0365346421129738,1087.02133599366
-0.0445973645184842,1087.03133599366
-0.0533825011717033,1087.04133599366
-0.061763271665891,1087.05133599366
-0.0697114642992491,1087.06133599366
-0.0775520358657824,1087.07133599366
-0.084935193811144,1087.08133599366
-0.0920989283501096,1087.09133599366
-0.0993102146435819,1087.10133599366
-0.105750870103642,1087.11133599366
-0.11228885721179,1087.12133599366
-0.11872107470597,1087.13133599366
-0.12522389383937,1087.14133599366
-0.131963833609768,1087.15133599366
-0.139017029907247,1087.16133599366
-0.145868260917611,1087.17133599366
-0.152762023957939,1087.18133599366
-0.159325456748049,1087.19133599366
-0.166312266597254,1087.20133599366
-0.172941544051891,1087.21133599366
-0.17968277934803,1087.22133599366
-0.185893673273276,1087.23133599366
-0.192169929904247,1087.24133599366
-0.198647020793533,1087.25133599366
-0.205356623780719,1087.26133599366
-0.212222939474607,1087.27133599366
-0.218931850410986,1087.28133599366
-0.22561864637155,1087.29133599366
-0.231995954802865,1087.30133599366
-0.238188426567748,1087.31133599366
-0.244068974887656,1087.32133599366
-0.249761820226433,1087.33133599366
-0.2557994905422,1087.34133599366
-0.262381534419204,1087.35133599366
-0.269120630254792,1087.36133599366
-0.275161706983311,1087.37133599366
-0.280954920923803,1087.38133599366
-0.286834864161121,1087.39133599366
-0.292246166154791,1087.40133599366
-0.29760237094476,1087.41133599366
-0.302884745517543,1087.42133599366
-0.308341277137021,1087.43133599366
-0.313668132742004,1087.44133599366
-0.319190308776006,1087.45133599366
-0.324789404536505,1087.46133599366
-0.330548659609067,1087.47133599366
-0.336727817676994,1087.48133599366
-0.343095683709957,1087.49133599366
-0.349458094231327,1087.50133599366
-0.355796533074568,1087.51133599366
-0.362271124296237,1087.52133599366
-0.368260838669721,1087.53133599366
-0.373488796346477,1087.54133599366
-0.378971878724759,1087.55133599366
-0.383450128164213,1087.56133599366
-0.386480377770039,1087.57133599366
-0.386649926836384,1087.58133599366
-0.381551813552385,1087.59133599366
-0.369409312417856,1087.60133599366
-0.348653867534681,1087.61133599366
-0.318798975614086,1087.62133599366
-0.280021012118012,1087.63133599366
-0.234332708078543,1087.64133599366
-0.185347392553201,1087.65133599366
-0.136645672604081,1087.66133599366
-0.0914948017808113,1087.67133599366
-0.0511086496504447,1087.68133599366
-0.0175944489756394,1087.69133599366
0.00892420636120098,1087.70133599366
0.0286829795795848,1087.71133599366
0.0415077481580326,1087.72133599366
0.0487404695993074,1087.73133599366
0.0520318855043452,1087.74133599366
0.0518201802641976,1087.75133599366
0.0487448336114866,1087.76133599366
0.0437302013932975,1087.77133599366
0.0378636027991982,1087.78133599366
0.0308403554261108,1087.79133599366
0.0236979713356895,1087.80133599366
0.0162582609869295,1087.81133599366
0.0084788346275821,1087.82133599366
0.000664813604030324,1087.83133599366
-0.0072624119771411,1087.84133599366
-0.015383999484318,1087.85133599366
-0.0240593801660045,1087.86133599366
-0.0330398650191224,1087.87133599366
-0.0421415312362892,1087.88133599366
-0.0503644239094943,1087.89133599366
-0.0579065174712486,1087.90133599366
-0.0636579300831489,1087.91133599366
-0.066886736535439,1087.92133599366
-0.0677510056892413,1087.93133599366
-0.0664362205337813,1087.94133599366
-0.062575864811775,1087.95133599366
-0.0551818515149089,1087.96133599366
-0.0446172605577561,1087.97133599366
-0.0321544917966659,1087.98133599366
-0.0189632931426148,1087.99133599366
-0.00598864854488312,1088.00133599366
0.00585843541832022,1088.01133599366
0.0155039740549285,1088.02133599366
0.0227136407344777,1088.03133599366
0.0276184163343641,1088.04133599366
0.0307172328528998,1088.05133599366
0.0316394245351234,1088.06133599366
0.0314927899185734,1088.07133599366
0.0300235334379039,1088.08133599366
0.0272170010198406,1088.09133599366
0.0232469771171834,1088.10133599366
0.0183793876549107,1088.11133599366
0.0129082365263895,1088.12133599366
0.00669708541913699,1088.13133599366
0.000618599037328947,1088.14133599366
-0.0054157416035514,1088.15133599366
-0.0118858283835733,1088.16133599366
-0.0184312078048428,1088.17133599366
-0.0246045720098067,1088.18133599366
-0.0300448356589614,1088.19133599366
-0.0352081911668711,1088.20133599366
-0.0399334057047675,1088.21133599366
-0.0443030659446534,1088.22133599366
-0.0488098929499909,1088.23133599366
-0.0529876070528988,1088.24133599366
-0.0578376161313207,1088.25133599366
-0.0628111374802783,1088.26133599366
-0.0678722938032528,1088.27133599366
-0.0729453130527211,1088.28133599366
-0.0787930261146659,1088.29133599366
-0.0845001847903128,1088.30133599366
-0.0898827345916863,1088.31133599366
-0.0957244201514556,1088.32133599366
-0.10085529757011,1088.33133599366
-0.106002106972597,1088.34133599366
-0.111247265984953,1088.35133599366
-0.115954284103322,1088.36133599366
-0.120741309165423,1088.37133599366
-0.125228950116213,1088.38133599366
-0.129047313366973,1088.39133599366
-0.133234951118163,1088.40133599366
-0.137405870079013,1088.41133599366
-0.141502553180188,1088.42133599366
-0.146512717349511,1088.43133599366
-0.152261722178005,1088.44133599366
-0.158639964221247,1088.45133599366
-0.164857877474975,1088.46133599366
-0.170514479917624,1088.47133599366
-0.175647096386971,1088.48133599366
-0.180086847668122,1088.49133599366
-0.184347584120479,1088.50133599366
-0.189037760021917,1088.51133599366
-0.193721386051204,1088.52133599366
-0.198952944213574,1088.53133599366
-0.204318223038879,1088.54133599366
-0.209804208936461,1088.55133599366
-0.214849250608808,1088.56133599366
-0.220098619659352,1088.57133599366
-0.225174644363449,1088.58133599366
-0.229423041686348,1088.59133599366
-0.23370471737765,1088.60133599366
-0.238192380972501,1088.61133599366
-0.241680340304561,1088.62133599366
-0.245758256443363,1088.63133599366
-0.249582142448262,1088.64133599366
-0.253693930962892,1088.65133599366
-0.258025959912239,1088.66133599366
-0.263132317914345,1088.67133599366
-0.268522110904671,1088.68133599366
-0.274242644379682,1088.69133599366
-0.279941929658762,1088.70133599366
-0.285555752049734,1088.71133599366
-0.290239607590341,1088.72133599366
-0.293485245607211,1088.73133599366
-0.294548024853496,1088.74133599366
-0.291662821077685,1088.75133599366
-0.282630544727964,1088.76133599366
-0.265010180957051,1088.77133599366
-0.237377706640033,1088.78133599366
-0.199773002273936,1088.79133599366
-0.154225570898847,1088.80133599366
-0.10357044917409,1088.81133599366
-0.0507340689690044,1088.82133599366
0.000719739874170017,1088.83133599366
0.0483666749915318,1088.84133599366
0.0899248585770432,1088.85133599366
0.124184193642367,1088.86133599366
0.151631398549773,1088.87133599366
0.17204144322241,1088.88133599366
0.18532139210893,1088.89133599366
0.192889151542655,1088.90133599366
0.195920726206784,1088.91133599366
0.19514576396278,1088.92133599366
0.191858144934322,1088.93133599366
0.187022500861331,1088.94133599366
0.181281230783605,1088.95133599366
0.174876036140234,1088.96133599366
0.16874598653164,1088.97133599366
0.162446795640362,1088.98133599366
0.155483602435,1088.99133599366
0.1488938907174,1089.00133599366
0.142140370991105,1089.01133599366
0.134819875075212,1089.02133599366
0.127107819222341,1089.03133599366
0.11860461984868,1089.04133599366
0.109933872437357,1089.05133599366
0.101305775107283,1089.06133599366
0.0934787107503852,1089.07133599366
0.0874640586625942,1089.08133599366
0.0837890277514107,1089.09133599366
0.0825426115213957,1089.10133599366
0.08397946438888,1089.11133599366
0.0881638718788261,1089.12133599366
0.0940527232192056,1089.13133599366
0.102536245450988,1089.14133599366
0.112664541210828,1089.15133599366
0.123950163622338,1089.16133599366
0.135741984847806,1089.17133599366
0.147154118955657,1089.18133599366
0.156926994839367,1089.19133599366
0.164233413619091,1089.20133599366
0.168998925507831,1089.21133599366
0.170837779179376,1089.22133599366
0.17043354141662,1089.23133599366
0.168187096483472,1089.24133599366
0.16449221791224,1089.25133599366
0.160560731692107,1089.26133599366
0.15591783657774,1089.27133599366
0.150941392284593,1089.28133599366
0.145146078677367,1089.29133599366
0.13884361324908,1089.30133599366
0.132693073270107,1089.31133599366
0.126055487213454,1089.32133599366
0.119847262362698,1089.33133599366
0.113034092854818,1089.34133599366
0.106922539045806,1089.35133599366
0.101049613348073,1089.36133599366
0.095290754220355,1089.37133599366
0.0896542368066773,1089.38133599366
0.0840274717629074,1089.39133599366
0.0790573438402626,1089.40133599366
0.0736190857749228,1089.41133599366
0.0686720692519783,1089.42133599366
0.0635863603660874,1089.43133599366
0.0578141582087675,1089.44133599366
0.0519138526351681,1089.45133599366
0.0455698246450611,1089.46133599366
0.0393252155205694,1089.47133599366
0.0324018309761232,1089.48133599366
0.0259132850658474,1089.49133599366
0.0191604015663799,1089.50133599366
0.0122285077550057,1089.51133599366
0.00558976084246316,1089.52133599366
-0.00112771709334989,1089.53133599366
-0.00724230580149614,1089.54133599366
-0.0133582859230881,1089.55133599366
-0.0196297190518968,1089.56133599366
-0.0257345587470298,1089.57133599366
-0.0318738964696391,1089.58133599366
-0.0377505179748008,1089.59133599366
-0.0437484616407919,1089.60133599366
-0.0497856481927261,1089.61133599366
-0.0561414579273446,1089.62133599366
-0.0626301465390008,1089.63133599366
-0.0689114524441244,1089.64133599366
-0.075304728143587,1089.65133599366
-0.0811139757902838,1089.66133599366
-0.087012453210844,1089.67133599366
-0.0927686855205566,1089.68133599366
-0.0985517984373289,1089.69133599366
-0.104284510581565,1089.70133599366
-0.110015136272727,1089.71133599366
-0.115881153926183,1089.72133599366
-0.121905851744051,1089.73133599366
-0.127071727694127,1089.74133599366
-0.131914139020987,1089.75133599366
-0.136271084020856,1089.76133599366
-0.14074867594309,1089.77133599366
-0.145021577074023,1089.78133599366
-0.150046935829374,1089.79133599366
-0.155073422003933,1089.80133599366
-0.160270550842771,1089.81133599366
-0.165929151854569,1089.82133599366
-0.171710641303119,1089.83133599366
-0.17710421153928,1089.84133599366
-0.182463319448294,1089.85133599366
-0.187485049348008,1089.86133599366
-0.192286259226914,1089.87133599366
-0.197372683365902,1089.88133599366
-0.202181160790813,1089.89133599366
-0.206550936161845,1089.90133599366
-0.210552306133939,1089.91133599366
-0.214958027496091,1089.92133599366
-0.219681445355977,1089.93133599366
-0.225224014576692,1089.94133599366
-0.230718379177218,1089.95133599366
-0.235980003353266,1089.96133599366
-0.241117274670979,1089.97133599366
-0.245852425307413,1089.98133599366
-0.250145220161361,1089.99133599366
-0.25469368222065,1090.00133599366
-0.259619937211572,1090.01133599366
-0.264280315777261,1090.02133599366
-0.269059586428859,1090.03133599366
-0.272856504710891,1090.04133599366
-0.274760584713151,1090.05133599366
-0.271897588388045,1090.06133599366
-0.262071797637869,1090.07133599366
-0.242511820566465,1090.08133599366
-0.211770331205548,1090.09133599366
-0.169557346059208,1090.10133599366
-0.118007818968783,1090.11133599366
-0.059938303890002,1090.12133599366
-9.27571108500856e-05,1090.13133599366
0.0583507646325968,1090.14133599366
0.11222574009482,1090.15133599366
0.160198877827787,1090.16133599366
0.200524557319266,1090.17133599366
0.233676172908742,1090.18133599366
0.259113147201273,1090.19133599366
0.276719273380799,1090.20133599366
0.287512063596385,1090.21133599366
0.292177242426804,1090.22133599366
0.291874043299991,1090.23133599366
0.288327971093822,1090.24133599366
0.28251333221656,1090.25133599366
0.275542008531487,1090.26133599366
0.268000717221414,1090.27133599366
0.260342218915477,1090.28133599366
0.253324413896233,1090.29133599366
0.24631021603435,1090.30133599366
0.239475625175505,1090.31133599366
0.232310109123779,1090.32133599366
0.224913087570747,1090.33133599366
0.216392953732197,1090.34133599366
0.206699492813145,1090.35133599366
0.196442689573121,1090.36133599366
0.186078607137184,1090.37133599366
0.176950050496406,1090.38133599366
0.169803293949805,1090.39133599366
0.165225812734093,1090.40133599366
0.162697628494336,1090.41133599366
0.163185785101073,1090.42133599366
0.16685818450149,1090.43133599366
0.173792298400217,1090.44133599366
0.183690728270179,1090.45133599366
0.195656187727877,1090.46133599366
0.208621562398276,1090.47133599366
0.221534995850489,1090.48133599366
0.23336105536076,1090.49133599366
0.243953250451631,1090.50133599366
0.252267164736931,1090.51133599366
0.258586624714619,1090.52133599366
0.262463769809188,1090.53133599366
0.264761658262683,1090.54133599366
0.264825860317776,1090.55133599366
0.263028297882489,1090.56133599366
0.259750745852172,1090.57133599366
0.254530105175317,1090.58133599366
0.248689517596922,1090.59133599366
0.241900481175215,1090.60133599366
0.234808339738113,1090.61133599366
0.227997758220489,1090.62133599366
0.221357952578732,1090.63133599366
0.214053290636273,1090.64133599366
0.207124116214539,1090.65133599366
0.199747821879519,1090.66133599366
0.192244652834433,1090.67133599366
0.184851523367323,1090.68133599366
0.177628924332978,1090.69133599366
0.170022304436918,1090.70133599366
0.1622272699495,1090.71133599366
0.154639501932663,1090.72133599366
0.14716337906187,1090.73133599366
0.13963227163914,1090.74133599366
0.133177465337159,1090.75133599366
0.126931771643618,1090.76133599366
0.120823714053558,1090.77133599366
0.114496835060588,1090.78133599366
0.107731960392477,1090.79133599366
0.100237807896752,1090.80133599366
0.0931706342820774,1090.81133599366
0.08588597988292,1090.82133599366
0.0791337660572162,1090.83133599366
0.0722961449830259,1090.84133599366
0.0655270639509352,1090.85133599366
0.059006979593389,1090.86133599366
0.052769597286781,1090.87133599366
0.0466662832507148,1090.88133599366
0.0411290081414615,1090.89133599366
0.0350357316819139,1090.90133599366
0.0288804867689111,1090.91133599366
0.0226932846220281,1090.92133599366
0.0163912511972703,1090.93133599366
0.0099484254365824,1090.94133599366
0.00375547804820987,1090.95133599366
-0.00268049021929652,1090.96133599366
-0.00859585010863253,1090.97133599366
-0.0144895415274172,1090.98133599366
-0.0204875254340268,1090.99133599366
-0.0264499040979505,1091.00133599366
-0.0326633364610781,1091.01133599366
-0.0390643380656677,1091.02133599366
-0.0452705795072348,1091.03133599366
-0.0510980072101458,1091.04133599366
-0.0566321784881086,1091.05133599366
-0.0618509945309043,1091.06133599366
-0.0672295388295106,1091.07133599366
-0.0721392458602095,1091.08133599366
-0.0769864034860709,1091.09133599366
-0.0818000963092818,1091.10133599366
-0.0865077056429386,1091.11133599366
-0.0912880095291324,1091.12133599366
-0.0959107084004285,1091.13133599366
-0.100921087591301,1091.14133599366
-0.10600489239938,1091.15133599366
-0.110802360115637,1091.16133599366
-0.11546669407925,1091.17133599366
-0.119448613858085,1091.18133599366
-0.123687285997302,1091.19133599366
-0.128090390156568,1091.20133599366
-0.132561442259856,1091.21133599366
-0.137248684808457,1091.22133599366
-0.1427248323737,1091.23133599366
-0.148324478459176,1091.24133599366
-0.154943976813544,1091.25133599366
-0.161675565563089,1091.26133599366
-0.167667111966134,1091.27133599366
-0.172622847812246,1091.28133599366
-0.175557573750877,1091.29133599366
-0.17606459989093,1091.30133599366
-0.172404633468435,1091.31133599366
-0.162348011629632,1091.32133599366
-0.142847712862733,1091.33133599366
-0.112022522588495,1091.34133599366
-0.0702601582192029,1091.35133599366
-0.0194616906007749,1091.36133599366
0.0371739294085793,1091.37133599366
0.0970194149283031,1091.38133599366
0.156342889000466,1091.39133599366
0.212093005148056,1091.40133599366
0.262158249477499,1091.41133599366
0.30340432881398,1091.42133599366
0.33582297671137,1091.43133599366
0.359057499525377,1091.44133599366
0.373925308301514,1091.45133599366
0.381347956888515,1091.46133599366
0.382396415366607,1091.47133599366
0.379315150902111,1091.48133599366
0.372854280204322,1091.49133599366
0.364923971758758,1091.50133599366
0.355686388038906,1091.51133599366
0.345997412066447,1091.52133599366
0.33534340008204,1091.53133599366
0.324419425120401,1091.54133599366
0.313248784738453,1091.55133599366
0.301806166609596,1091.56133599366
0.289926662055278,1091.57133599366
0.278048082679881,1091.58133599366
0.265632002407655,1091.59133599366
0.253183286686452,1091.60133599366
0.241063374439487,1091.61133599366
0.22982801946834,1091.62133599366
0.220161901487943,1091.63133599366
0.212447805448177,1091.64133599366
0.207590343619143,1091.65133599366
0.206144029775221,1091.66133599366
0.208229402929213,1091.67133599366
0.214301491753901,1091.68133599366
0.224326933810067,1091.69133599366
0.237322212021197,1091.70133599366
0.253116381915625,1091.71133599366
0.269891470977728,1091.72133599366
0.286817953080141,1091.73133599366
0.302135705768265,1091.74133599366
0.314430941105589,1091.75133599366
0.32391460218598,1091.76133599366
0.330086296187419,1091.77133599366
0.333207155469494,1091.78133599366
0.334346494012191,1091.79133599366
0.333456662411467,1091.80133599366
0.330861056546518,1091.81133599366
0.327079312921732,1091.82133599366
0.322229330888932,1091.83133599366
0.315946546102961,1091.84133599366
0.308838248571003,1091.85133599366
0.301527956819058,1091.86133599366
0.294681417168419,1091.87133599366
0.287562302058678,1091.88133599366
0.280633677596542,1091.89133599366
0.273370461448332,1091.90133599366
0.266058190465575,1091.91133599366
0.258483753066046,1091.92133599366
0.251231399928031,1091.93133599366
0.24421770478594,1091.94133599366
0.237106913208206,1091.95133599366
0.23063751526125,1091.96133599366
0.224522017304706,1091.97133599366
0.218328594186244,1091.98133599366
0.212104360730726,1091.99133599366
0.206146351701906,1092.00133599366
0.199980235097759,1092.01133599366
0.194182081271836,1092.02133599366
0.188448787608932,1092.03133599366
0.182702966031843,1092.04133599366
0.177045464445584,1092.05133599366
0.171451647729337,1092.06133599366
0.166315937390556,1092.07133599366
0.160898521706077,1092.08133599366
0.155541323877001,1092.09133599366
0.150484481343039,1092.10133599366
0.145125866635915,1092.11133599366
0.139733354087612,1092.12133599366
0.134330380712783,1092.13133599366
0.128513867713179,1092.14133599366
0.122330749672067,1092.15133599366
0.115936420591572,1092.16133599366
0.109572362144497,1092.17133599366
0.103238361468961,1092.18133599366
0.0973657548997766,1092.19133599366
0.0910653339355877,1092.20133599366
0.0854629531298031,1092.21133599366
0.0800492645508815,1092.22133599366
0.0742279537057403,1092.23133599366
0.0679101748773592,1092.24133599366
0.0607702777520881,1092.25133599366
0.053362752047284,1092.26133599366
0.046212044665895,1092.27133599366
0.0397898133272195,1092.28133599366
0.0335208550348043,1092.29133599366
0.0278817192183623,1092.30133599366
0.0222235851436224,1092.31133599366
0.0171602237217945,1092.32133599366
0.0128360322787548,1092.33133599366
0.00870470808604471,1092.34133599366
0.00466310907010024,1092.35133599366
0.000329710363787379,1092.36133599366
-0.00396935378430209,1092.37133599366
-0.00877452044307504,1092.38133599366
-0.0141249410090027,1092.39133599366
-0.0194080925553613,1092.40133599366
-0.0246652016201442,1092.41133599366
-0.0296501132679704,1092.42133599366
-0.0346040791949115,1092.43133599366
-0.0406645165864837,1092.44133599366
-0.046522196436829,1092.45133599366
-0.052868269595043,1092.46133599366
-0.0587252318087747,1092.47133599366
-0.0631275058601856,1092.48133599366
-0.0650023999763853,1092.49133599366
-0.061313424358194,1092.50133599366
-0.0496269219551876,1092.51133599366
-0.0266276045847059,1092.52133599366
0.00961148771720041,1092.53133599366
0.0588103606359398,1092.54133599366
0.118655298238599,1092.55133599366
0.185601089084806,1092.56133599366
0.255661497630743,1092.57133599366
0.324746612657311,1092.58133599366
0.38902800839443,1092.59133599366
0.446138946669647,1092.60133599366
0.494345422717837,1092.61133599366
0.531744302372713,1092.62133599366
0.558491826657123,1092.63133599366
0.575051665385653,1092.64133599366
0.583012348316518,1092.65133599366
0.58457380258732,1092.66133599366
0.58164001305862,1092.67133599366
0.575074691920289,1092.68133599366
0.566646535801422,1092.69133599366
0.557011822543534,1092.70133599366
0.546467522774256,1092.71133599366
0.535690477926646,1092.72133599366
0.524972711233444,1092.73133599366
0.51482610840656,1092.74133599366
0.504828181935576,1092.75133599366
0.495363900611323,1092.76133599366
0.485969670843812,1092.77133599366
0.475951792734708,1092.78133599366
0.465160479228162,1092.79133599366
0.45396127199554,1092.80133599366
0.442263595085796,1092.81133599366
0.430879079664008,1092.82133599366
0.4209683468256,1092.83133599366
0.412619226156055,1092.84133599366
0.4068975338643,1092.85133599366
0.404210761547975,1092.86133599366
0.404475396851779,1092.87133599366
0.408989008830755,1092.88133599366
0.416478523109566,1092.89133599366
0.426854731359325,1092.90133599366
0.440141759169546,1092.91133599366
0.454432328762226,1092.92133599366
0.468838808051234,1092.93133599366
0.481889700017752,1092.94133599366
0.493018903338409,1092.95133599366
0.501110803081805,1092.96133599366
0.506233480579348,1092.97133599366
0.508357942634889,1092.98133599366
0.509060039883603,1092.99133599366
0.50628521868175,1093.00133599366
0.50201615190193,1093.01133599366
0.496728053975981,1093.02133599366
0.490323836448835,1093.03133599366
0.483023067635138,1093.04133599366
0.475373791528942,1093.05133599366
0.467978660761159,1093.06133599366
0.460246937723258,1093.07133599366
0.452599554972833,1093.08133599366
0.444453530367012,1093.09133599366
0.435802355314468,1093.10133599366
0.426753195439907,1093.11133599366
0.417314500676457,1093.12133599366
0.408338527771225,1093.13133599366
0.399021773638408,1093.14133599366
0.389842064654646,1093.15133599366
0.380854041666554,1093.16133599366
0.371348430248943,1093.17133599366
0.36266717999066,1093.18133599366
0.354593225779491,1093.19133599366
0.34732976812714,1093.20133599366
0.340760411432149,1093.21133599366
0.334016780640383,1093.22133599366
0.327988495610748,1093.23133599366
0.321943163168264,1093.24133599366
0.315549856726226,1093.25133599366
0.308239823745334,1093.26133599366
0.300299544768307,1093.27133599366
0.291320323422456,1093.28133599366
0.282326652275883,1093.29133599366
0.27449394285275,1093.30133599366
0.266694674758654,1093.31133599366
0.25894278362768,1093.32133599366
0.250509854201642,1093.33133599366
0.242184043551134,1093.34133599366
0.23352100935897,1093.35133599366
0.225578718270184,1093.36133599366
0.218977223702647,1093.37133599366
0.212454715956213,1093.38133599366
0.205887037443513,1093.39133599366
0.198797574337233,1093.40133599366
0.19180032840672,1093.41133599366
0.183624063415048,1093.42133599366
0.175725404188223,1093.43133599366
0.168468266844163,1093.44133599366
0.161752507058611,1093.45133599366
0.155081971729446,1093.46133599366
0.148510117296013,1093.47133599366
0.142373298622787,1093.48133599366
0.134493395552645,1093.49133599366
0.126966076032858,1093.50133599366
0.119800256710776,1093.51133599366
0.112513786059543,1093.52133599366
0.105389245448372,1093.53133599366
0.098145908346194,1093.54133599366
0.0918803849413774,1093.55133599366
0.0848634073486345,1093.56133599366
0.0777137556219145,1093.57133599366
0.0708744350032802,1093.58133599366
0.0636418546402888,1093.59133599366
0.0565485530117428,1093.60133599366
0.0495589874113156,1093.61133599366
0.0434485762273567,1093.62133599366
0.0361694480271054,1093.63133599366
0.02941795411691,1093.64133599366
0.0226837128960339,1093.65133599366
0.0154708052221003,1093.66133599366
0.00797547944405023,1093.67133599366
0.000248317325758142,1093.68133599366
-0.00690608429901144,1093.69133599366
-0.0145229989544003,1093.70133599366
-0.0223890368597787,1093.71133599366
-0.0297560514422955,1093.72133599366
-0.0372320558042537,1093.73133599366
-0.0453962209213559,1093.74133599366
-0.053351918241202,1093.75133599366
-0.0596326207291544,1093.76133599366
-0.0637176480412781,1093.77133599366
-0.0629718712475981,1093.78133599366
-0.0531997738064037,1093.79133599366
-0.0326987331312641,1093.80133599366
0.000373026387847519,1093.81133599366
0.0463991259797464,1093.82133599366
0.104071801132519,1093.83133599366
0.169036273506599,1093.84133599366
0.237753409235741,1093.85133599366
0.306623259638721,1093.86133599366
0.370399349033495,1093.87133599366
0.427238566131499,1093.88133599366
0.473703100373393,1093.89133599366
0.510086473122122,1093.90133599366
0.534803677522566,1093.91133599366
0.549583505338304,1093.92133599366
0.556064724403856,1093.93133599366
0.555352512824388,1093.94133599366
0.549421860158275,1093.95133599366
0.538689110662034,1093.96133599366
0.526145295392171,1093.97133599366
0.511420795722377,1093.98133599366
0.496701673322173,1093.99133599366
0.482992480633229,1094.00133599366
0.469315643972582,1094.01133599366
0.455886515213389,1094.02133599366
0.442423286762277,1094.03133599366
0.429624208317713,1094.04133599366
0.41590967473076,1094.05133599366
0.402580446206021,1094.06133599366
0.38850687280354,1094.07133599366
0.373453485818764,1094.08133599366
0.358422740711189,1094.09133599366
0.34347581583507,1094.10133599366
0.330808238337261,1094.11133599366
0.320046494092426,1094.12133599366
0.313077943661071,1094.13133599366
0.311106613074902,1094.14133599366
0.313854817938572,1094.15133599366
0.320663598297109,1094.16133599366
0.331320598320192,1094.17133599366
0.345356476066233,1094.18133599366
0.36032257602271,1094.19133599366
0.376030985716412,1094.20133599366
0.39188654650827,1094.21133599366
0.405676044994165,1094.22133599366
0.417420517695159,1094.23133599366
0.426226018368601,1094.24133599366
0.432063911671929,1094.25133599366
0.434442817402866,1094.26133599366
0.433990164474615,1094.27133599366
0.431578510131531,1094.28133599366
0.427568705238698,1094.29133599366
0.421982889786034,1094.30133599366
0.415640660830614,1094.31133599366
0.408685136992849,1094.32133599366
0.400878746197198,1094.33133599366
0.392673271991004,1094.34133599366
0.384711228954279,1094.35133599366
0.376334138956659,1094.36133599366
0.367614630758209,1094.37133599366
0.358877569777714,1094.38133599366
0.349947829725776,1094.39133599366
0.340459925107615,1094.40133599366
0.330687539330943,1094.41133599366
0.321991150922951,1094.42133599366
0.313703139986112,1094.43133599366
0.30578188863747,1094.44133599366
0.298560430665527,1094.45133599366
0.292237404877695,1094.46133599366
0.285745736417405,1094.47133599366
0.279097902087911,1094.48133599366
0.27306583551066,1094.49133599366
0.265885281057673,1094.50133599366
0.25938460643533,1094.51133599366
0.252887357978723,1094.52133599366
0.247403048697073,1094.53133599366
0.241414717099012,1094.54133599366
0.235229817321954,1094.55133599366
0.229657043212203,1094.56133599366
0.22277940221452,1094.57133599366
0.215718075002551,1094.58133599366
0.208649910798833,1094.59133599366
0.20105633083357,1094.60133599366
0.192871489417786,1094.61133599366
0.18547938019916,1094.62133599366
0.178850113158641,1094.63133599366
0.172374820916117,1094.64133599366
0.166277005060184,1094.65133599366
0.159653422065799,1094.66133599366
0.15323131501479,1094.67133599366
0.145704751180296,1094.68133599366
0.138079563450429,1094.69133599366
0.131302449225035,1094.70133599366
0.124914148928531,1094.71133599366
0.118724839591346,1094.72133599366
0.112742935789247,1094.73133599366
0.10728707134674,1094.74133599366
0.101262896229198,1094.75133599366
0.0952619957669577,1094.76133599366
0.0902427327314419,1094.77133599366
0.085361692231764,1094.78133599366
0.0810845057440892,1094.79133599366
0.0763199008165289,1094.80133599366
0.071616521275561,1094.81133599366
0.0659523569794608,1094.82133599366
0.059446986921885,1094.83133599366
0.0533788796064403,1094.84133599366
0.0475747806324325,1094.85133599366
0.0417779486104047,1094.86133599366
0.0355375118976864,1094.87133599366
0.0299300523373697,1094.88133599366
0.023042147958225,1094.89133599366
0.0165817587938823,1094.90133599366
0.0115512341610075,1094.91133599366
0.00766856158809082,1094.92133599366
0.00676195266981079,1094.93133599366
0.0108285059757101,1094.94133599366
0.0235216217351528,1094.95133599366
0.0468130552931564,1094.96133599366
0.082633020756296,1094.97133599366
0.130950592358388,1094.98133599366
0.189915912447992,1094.99133599366
0.255572202582058,1095.00133599366
0.323517598686064,1095.01133599366
0.390241491908948,1095.02133599366
0.451054159930081,1095.03133599366
0.50363351300158,1095.04133599366
0.547400661889941,1095.05133599366
0.579635783390601,1095.06133599366
0.600884957528439,1095.07133599366
0.612503210842816,1095.08133599366
0.615980752209732,1095.09133599366
0.612498470314181,1095.10133599366
0.604822788803283,1095.11133599366
0.595270814151307,1095.12133599366
0.584056787197492,1095.13133599366
0.571798622370675,1095.14133599366
0.558857289674318,1095.15133599366
0.545904960812427,1095.16133599366
0.532478757690553,1095.17133599366
0.519487698094107,1095.18133599366
0.506623886770357,1095.19133599366
0.493195416174403,1095.20133599366
0.480043881893044,1095.21133599366
0.466832780862088,1095.22133599366
0.453687943520577,1095.23133599366
0.440347218577649,1095.24133599366
0.427014456305526,1095.25133599366
0.414776003264878,1095.26133599366
0.404532558948756,1095.27133599366
0.396705670728751,1095.28133599366
0.391629577991777,1095.29133599366
0.3902739994962,1095.30133599366
0.392809845211364,1095.31133599366
0.399077065792667,1095.32133599366
0.40883020139757,1095.33133599366
0.421634682668239,1095.34133599366
0.435761664412939,1095.35133599366
0.449703253587333,1095.36133599366
0.462756084103746,1095.37133599366
0.473934846916117,1095.38133599366
0.482229642510308,1095.39133599366
0.48908188907041,1095.40133599366
0.492444160420771,1095.41133599366
0.493344382898596,1095.42133599366
0.491380753609459,1095.43133599366
0.487166408703723,1095.44133599366
0.48086925533522,1095.45133599366
0.473004291008292,1095.46133599366
0.464048754066725,1095.47133599366
0.454301080086959,1095.48133599366
0.444024536679043,1095.49133599366
0.433640642143536,1095.50133599366
0.423415011137233,1095.51133599366
0.412968612323763,1095.52133599366
0.402970127811701,1095.53133599366
0.393981034354299,1095.54133599366
0.385140403711834,1095.55133599366
0.376415866818554,1095.56133599366
0.367957602628278,1095.57133599366
0.359399629464144,1095.58133599366
0.35020022534552,1095.59133599366
0.340473303759432,1095.60133599366
0.330945368419207,1095.61133599366
0.321509755294155,1095.62133599366
0.312559325003583,1095.63133599366
0.303994449344079,1095.64133599366
0.296443127100087,1095.65133599366
0.288314589410812,1095.66133599366
0.280609034192819,1095.67133599366
0.273153771836535,1095.68133599366
0.265648627066919,1095.69133599366
0.258485887129071,1095.70133599366
0.251047160460662,1095.71133599366
0.244264720980366,1095.72133599366
0.236168316321497,1095.73133599366
0.228660317327054,1095.74133599366
0.221361105255129,1095.75133599366
0.213766864285134,1095.76133599366
0.205698436012337,1095.77133599366
0.19736055726279,1095.78133599366
0.189455619192915,1095.79133599366
0.180740552059015,1095.80133599366
0.172106717397225,1095.81133599366
0.164244519422091,1095.82133599366
0.156220101651507,1095.83133599366
0.148345019651003,1095.84133599366
0.141059602972328,1095.85133599366
0.134197770062234,1095.86133599366
0.126703233391537,1095.87133599366
0.119136471973286,1095.88133599366
0.112447798527293,1095.89133599366
0.104989420328065,1095.90133599366
0.0972115940882237,1095.91133599366
0.0899417077565588,1095.92133599366
0.082797760734039,1095.93133599366
0.0759391876532718,1095.94133599366
0.0693465153956958,1095.95133599366
0.0624967107114926,1095.96133599366
0.0559338743127814,1095.97133599366
0.0489918996459956,1095.98133599366
0.0434503334529815,1095.99133599366
0.0362017596277324,1096.00133599366
0.028549212330507,1096.01133599366
0.0219311874698119,1096.02133599366
0.0146046776387248,1096.03133599366
0.00693225300166932,1096.04133599366
-0.00153206797129595,1096.05133599366
-0.00848741291407234,1096.06133599366
-0.0173764938994525,1096.07133599366
-0.0265558577236245,1096.08133599366
-0.0343537205368558,1096.09133599366
-0.0427133838909349,1096.10133599366
-0.0510677666554641,1096.11133599366
-0.0606978929555866,1096.12133599366
-0.0682585296443923,1096.13133599366
-0.0772918125717158,1096.14133599366
-0.0851186494271435,1096.15133599366
-0.0877184978758096,1096.16133599366
-0.085481684517181,1096.17133599366
-0.0737105815944058,1096.18133599366
-0.0520327649899188,1096.19133599366
-0.0163977675375584,1096.20133599366
0.0302153686612156,1096.21133599366
0.0866660575649895,1096.22133599366
0.15163999427897,1096.23133599366
0.218955619783712,1096.24133599366
0.284974841005681,1096.25133599366
0.34515732192339,1096.26133599366
0.399026063251948,1096.27133599366
0.441359799602762,1096.28133599366
0.472563707600818,1096.29133599366
0.494893966127321,1096.30133599366
0.506389400052461,1096.31133599366
0.51050010450682,1096.32133599366
0.507186775533662,1096.33133599366
0.50054340684941,1096.34133599366
0.489597191916516,1096.35133599366
0.476355548537867,1096.36133599366
0.463238407068788,1096.37133599366
0.449013376215859,1096.38133599366
0.435282008990388,1096.39133599366
0.421252027066968,1096.40133599366
0.408951146585688,1096.41133599366
0.395981706200705,1096.42133599366
0.382189868612436,1096.43133599366
0.370155652739881,1096.44133599366
0.356813841689743,1096.45133599366
0.342840013303649,1096.46133599366
0.327484972459142,1096.47133599366
0.313325457798076,1096.48133599366
0.297738257858709,1096.49133599366
0.282998142922768,1096.50133599366
0.272361372918233,1096.51133599366
0.263510253507975,1096.52133599366
0.258609912400438,1096.53133599366
0.255991212163425,1096.54133599366
0.259892614753602,1096.55133599366
0.265459605893872,1096.56133599366
0.274245912026821,1096.57133599366
0.287667042112581,1096.58133599366
0.3010540024104,1096.59133599366
0.314988629365798,1096.60133599366
0.326030720316582,1096.61133599366
0.336760146267707,1096.62133599366
0.342452760955086,1096.63133599366
0.344347461987305,1096.64133599366
0.34586649371,1096.65133599366
0.343966604077338,1096.66133599366
0.340568349237072,1096.67133599366
0.334495589284149,1096.68133599366
0.328479828448062,1096.69133599366
0.320290405684589,1096.70133599366
0.310910354368248,1096.71133599366
0.302784724898896,1096.72133599366
0.293126908821975,1096.73133599366
0.283020833922402,1096.74133599366
0.271402338159699,1096.75133599366
0.261064916991852,1096.76133599366
0.248993976736549,1096.77133599366
0.236740859331167,1096.78133599366
0.226213015891646,1096.79133599366
0.215094473834642,1096.80133599366
0.205120160604629,1096.81133599366
0.194523599773833,1096.82133599366
0.186509052440431,1096.83133599366
0.177234140025942,1096.84133599366
0.167413293497835,1096.85133599366
0.159458943467069,1096.86133599366
0.150680973779701,1096.87133599366
0.142164531913515,1096.88133599366
0.132669380199218,1096.89133599366
0.125319219750404,1096.90133599366
0.116721926062639,1096.91133599366
0.108398116448348,1096.92133599366
0.102269998536428,1096.93133599366
0.0959187823818507,1096.94133599366
0.090285832003594,1096.95133599366
0.0832295846796747,1096.96133599366
0.0765468558820571,1096.97133599366
0.0690613058453426,1096.98133599366
0.0628529253062696,1096.99133599366
0.0563250964526566,1097.00133599366
0.0487616034208881,1097.01133599366
0.0425888569560403,1097.02133599366
0.0352646702492305,1097.03133599366
0.0278755792172828,1097.04133599366
0.0191947818305134,1097.05133599366
0.0112235720338376,1097.06133599366
0.00227893689644016,1097.07133599366
-0.00678104973371203,1097.08133599366
-0.0137526314717605,1097.09133599366
-0.0206529522545269,1097.10133599366
-0.0267750214109591,1097.11133599366
-0.0334930040632419,1097.12133599366
-0.0389909046390273,1097.13133599366
-0.0465951867056987,1097.14133599366
-0.0544762196875154,1097.15133599366
-0.0604759399860572,1097.16133599366
-0.0672182007873846,1097.17133599366
-0.0735217353462747,1097.18133599366
-0.0804838972446882,1097.19133599366
-0.0853993369832277,1097.20133599366
-0.0915889286494694,1097.21133599366
-0.0978492983485404,1097.22133599366
-0.102006442257822,1097.23133599366
-0.107829569802974,1097.24133599366
-0.113376056680149,1097.25133599366
-0.120656063499629,1097.26133599366
-0.126897175157079,1097.27133599366
-0.134640136591927,1097.28133599366
-0.143057222706024,1097.29133599366
-0.149587935091683,1097.30133599366
-0.156308774383417,1097.31133599366
-0.162122883973839,1097.32133599366
-0.166956794737522,1097.33133599366
-0.167095343924214,1097.34133599366
-0.162103673386222,1097.35133599366
-0.148003985471304,1097.36133599366
-0.121916771338393,1097.37133599366
-0.0852029232813746,1097.38133599366
-0.0384768737165001,1097.39133599366
0.0151736613347542,1097.40133599366
0.0741457610648988,1097.41133599366
0.131936636148078,1097.42133599366
0.18640305373192,1097.43133599366
0.236959517532685,1097.44133599366
0.2776230694048,1097.45133599366
0.309329985391002,1097.46133599366
0.330436303841191,1097.47133599366
