PPG,time
-0.0294107790355652,2668.26709642444
-0.0605263813215484,2668.27709642444
-0.0565904780028619,2668.28709642444
-0.0639477940952194,2668.29709642444
-0.0658616917574352,2668.30709642444
-0.0717335977348129,2668.31709642444
-0.075452517855134,2668.32709642444
-0.0806527481241378,2668.33709642444
-0.0846807284017389,2668.34709642444
-0.0887082476591373,2668.35709642444
-0.0926194862021148,2668.36709642444
-0.0968407391560524,2668.37709642444
-0.101102005258649,2668.38709642444
-0.105819526879789,2668.39709642444
-0.110447076163417,2668.40709642444
-0.115173408092606,2668.41709642444
-0.120154596532458,2668.42709642444
-0.125298707264431,2668.43709642444
-0.12986445770814,2668.44709642444
-0.134094647701421,2668.45709642444
-0.138036303658987,2668.46709642444
-0.141734234751978,2668.47709642444
-0.145082776283747,2668.48709642444
-0.148581739144638,2668.49709642444
-0.152381000431979,2668.50709642444
-0.15623134437139,2668.51709642444
-0.159853057803402,2668.52709642444
-0.16331369164897,2668.53709642444
-0.166950046087801,2668.54709642444
-0.171150729374578,2668.55709642444
-0.175604251664069,2668.56709642444
-0.179562789228,2668.57709642444
-0.183315525933208,2668.58709642444
-0.187039901300264,2668.59709642444
-0.190939464614944,2668.60709642444
-0.194947184267076,2668.61709642444
-0.198746509272575,2668.62709642444
-0.202304714919558,2668.63709642444
-0.20658881339006,2668.64709642444
-0.210878928530185,2668.65709642444
-0.215131773560284,2668.66709642444
-0.219638669972357,2668.67709642444
-0.224540231334721,2668.68709642444
-0.229280186505265,2668.69709642444
-0.234225398745653,2668.70709642444
-0.239617667498218,2668.71709642444
-0.244734492438084,2668.72709642444
-0.249813282212146,2668.73709642444
-0.252786673137403,2668.74709642444
-0.253075854893741,2668.75709642444
-0.249665985036213,2668.76709642444
-0.24115081552365,2668.77709642444
-0.227504264493923,2668.78709642444
-0.210050072756941,2668.79709642444
-0.191122850502187,2668.80709642444
-0.172022874749469,2668.81709642444
-0.154803419038359,2668.82709642444
-0.14124324352559,2668.83709642444
-0.131691835831644,2668.84709642444
-0.126299700893003,2668.85709642444
-0.124768315053746,2668.86709642444
-0.126083020803557,2668.87709642444
-0.129793616016187,2668.88709642444
-0.135336961685519,2668.89709642444
-0.141374490646248,2668.90709642444
-0.147973309276071,2668.91709642444
-0.154517492290493,2668.92709642444
-0.160591323439848,2668.93709642444
-0.16673663830744,2668.94709642444
-0.172671778985344,2668.95709642444
-0.178412176487481,2668.96709642444
-0.183738416062021,2668.97709642444
-0.187777409832132,2668.98709642444
-0.191453329276277,2668.99709642444
-0.194124293295704,2669.00709642444
-0.196579951866624,2669.01709642444
-0.199518502422816,2669.02709642444
-0.20289000040497,2669.03709642444
-0.20650498833937,2669.04709642444
-0.210622578303797,2669.05709642444
-0.214984858394831,2669.06709642444
-0.219417436431368,2669.07709642444
-0.223494681606969,2669.08709642444
-0.227280573984557,2669.09709642444
-0.229599381213566,2669.10709642444
-0.230706245176052,2669.11709642444
-0.231560705380847,2669.12709642444
-0.231320599616154,2669.13709642444
-0.230912695644119,2669.14709642444
-0.230536924948419,2669.15709642444
-0.230044543117766,2669.16709642444
-0.229985627268622,2669.17709642444
-0.229992008754509,2669.18709642444
-0.229761958522747,2669.19709642444
-0.230975461074432,2669.20709642444
-0.232758991088979,2669.21709642444
-0.23580285465498,2669.22709642444
-0.239776241522077,2669.23709642444
-0.243689213049114,2669.24709642444
-0.248503157720026,2669.25709642444
-0.253224961908221,2669.26709642444
-0.257416513032877,2669.27709642444
-0.261026477622095,2669.28709642444
-0.264782045552517,2669.29709642444
-0.26866789154998,2669.30709642444
-0.272398319046859,2669.31709642444
-0.276182934687757,2669.32709642444
-0.279730053508676,2669.33709642444
-0.282943302555806,2669.34709642444
-0.28609710188654,2669.35709642444
-0.289498927043577,2669.36709642444
-0.293743138945819,2669.37709642444
-0.298386776832354,2669.38709642444
-0.303383572198341,2669.39709642444
-0.308481325880659,2669.40709642444
-0.313250884338411,2669.41709642444
-0.31832701862847,2669.42709642444
-0.323425696847042,2669.43709642444
-0.32851390222679,2669.44709642444
-0.333168761232607,2669.45709642444
-0.337509493516777,2669.46709642444
-0.3416427053201,2669.47709642444
-0.345875691716177,2669.48709642444
-0.349714816861526,2669.49709642444
-0.353275875204668,2669.50709642444
-0.356640811729337,2669.51709642444
-0.360177916214576,2669.52709642444
-0.363572531983052,2669.53709642444
-0.367164742173231,2669.54709642444
-0.371145951492923,2669.55709642444
-0.374988682671578,2669.56709642444
-0.378665210638483,2669.57709642444
-0.381962071205178,2669.58709642444
-0.384540670894387,2669.59709642444
-0.387119341273791,2669.60709642444
-0.390023665614827,2669.61709642444
-0.393499191829311,2669.62709642444
-0.397055048484071,2669.63709642444
-0.400671679637958,2669.64709642444
-0.404769077316575,2669.65709642444
-0.408168410194497,2669.66709642444
-0.411400911490617,2669.67709642444
-0.414440740192574,2669.68709642444
-0.417477304205539,2669.69709642444
-0.420544416941103,2669.70709642444
-0.423972939799179,2669.71709642444
-0.4273124424573,2669.72709642444
-0.430684623093347,2669.73709642444
-0.434299256086067,2669.74709642444
-0.437729276598664,2669.75709642444
-0.441638345401907,2669.76709642444
-0.445107024870086,2669.77709642444
-0.448747284534015,2669.78709642444
-0.452583026437515,2669.79709642444
-0.456219388690183,2669.80709642444
-0.460152244477383,2669.81709642444
-0.46489346245675,2669.82709642444
-0.469411448791084,2669.83709642444
-0.473971408178068,2669.84709642444
-0.477874799993588,2669.85709642444
-0.480755553174519,2669.86709642444
-0.483170450920426,2669.87709642444
-0.484736476021217,2669.88709642444
-0.485441784909714,2669.89709642444
-0.483997139870569,2669.90709642444
-0.479472242157995,2669.91709642444
-0.470684586369141,2669.92709642444
-0.458367772551465,2669.93709642444
-0.4429400785552,2669.94709642444
-0.426484706607671,2669.95709642444
-0.41070538429673,2669.96709642444
-0.397340913010742,2669.97709642444
-0.387497323340509,2669.98709642444
-0.381591806320206,2669.99709642444
-0.379302384594205,2670.00709642444
-0.380096539745423,2670.01709642444
-0.383151464215069,2670.02709642444
-0.387688437913744,2670.03709642444
-0.393423369700877,2670.04709642444
-0.399427408237615,2670.05709642444
-0.405993667669905,2670.06709642444
-0.412249676700985,2670.07709642444
-0.418064560880966,2670.08709642444
-0.423310745896614,2670.09709642444
-0.427142787987436,2670.10709642444
-0.43104254742562,2670.11709642444
-0.434514397751812,2670.12709642444
-0.437443959079521,2670.13709642444
-0.439795007253926,2670.14709642444
-0.441635624972509,2670.15709642444
-0.443174722421462,2670.16709642444
-0.44453438558983,2670.17709642444
-0.446583879498275,2670.18709642444
-0.449228544309714,2670.19709642444
-0.452625669155436,2670.20709642444
-0.456775961993894,2670.21709642444
-0.460598269400163,2670.22709642444
-0.463584669170294,2670.23709642444
-0.465785622249831,2670.24709642444
-0.466787066050643,2670.25709642444
-0.466642530361743,2670.26709642444
-0.465661944558298,2670.27709642444
-0.464198364090343,2670.28709642444
-0.462151260421244,2670.29709642444
-0.459991274247016,2670.30709642444
-0.45762226327089,2670.31709642444
-0.455055761223129,2670.32709642444
-0.453026397620763,2670.33709642444
-0.451724683306277,2670.34709642444
-0.451247250383714,2670.35709642444
-0.451662875655391,2670.36709642444
-0.45297408752573,2670.37709642444
-0.454665697697467,2670.38709642444
-0.457051574869001,2670.39709642444
-0.459293727165384,2670.40709642444
-0.461524363248727,2670.41709642444
-0.463852964374461,2670.42709642444
-0.46617198642557,2670.43709642444
-0.468930164589183,2670.44709642444
-0.472125626128156,2670.45709642444
-0.475054765203511,2670.46709642444
-0.478151393225325,2670.47709642444
-0.480655941115607,2670.48709642444
-0.482780147080596,2670.49709642444
-0.484950077273186,2670.50709642444
-0.486705187874439,2670.51709642444
-0.488852879716049,2670.52709642444
-0.490840034417063,2670.53709642444
-0.492775776794159,2670.54709642444
-0.495212665028504,2670.55709642444
-0.497192691950176,2670.56709642444
-0.499440188876861,2670.57709642444
-0.50165821564626,2670.58709642444
-0.503397659937446,2670.59709642444
-0.505115236095385,2670.60709642444
-0.506587340507174,2670.61709642444
-0.50824651356691,2670.62709642444
-0.510486061149443,2670.63709642444
-0.512361601442007,2670.64709642444
-0.514140343636734,2670.65709642444
-0.515749439321041,2670.66709642444
-0.517763197793956,2670.67709642444
-0.520135356270051,2670.68709642444
-0.522480765719547,2670.69709642444
-0.525180714880303,2670.70709642444
-0.527648643674048,2670.71709642444
-0.529748468052742,2670.72709642444
-0.531836371121011,2670.73709642444
-0.533851834688298,2670.74709642444
-0.535296466718145,2670.75709642444
-0.536708765962407,2670.76709642444
-0.537882385482861,2670.77709642444
-0.53865080194948,2670.78709642444
-0.539646174538291,2670.79709642444
-0.540659284930473,2670.80709642444
-0.541702271348478,2670.81709642444
-0.543446323231959,2670.82709642444
-0.545436332709142,2670.83709642444
-0.547911431145118,2670.84709642444
-0.550331444545442,2670.85709642444
-0.552085279136006,2670.86709642444
-0.553719906259341,2670.87709642444
-0.555025555402601,2670.88709642444
-0.556481853708511,2670.89709642444
-0.557721784294382,2670.90709642444
-0.558741898827326,2670.91709642444
-0.560253217456016,2670.92709642444
-0.56150297654331,2670.93709642444
-0.562797409493564,2670.94709642444
-0.56395376978073,2670.95709642444
-0.565238246974556,2670.96709642444
-0.566959868791749,2670.97709642444
-0.568094877058443,2670.98709642444
-0.569111744812057,2670.99709642444
-0.570128066400463,2671.00709642444
-0.571015679433489,2671.01709642444
-0.572212351843007,2671.02709642444
-0.573262945965816,2671.03709642444
-0.572767371964348,2671.04709642444
-0.569792670530756,2671.05709642444
-0.562884327872619,2671.06709642444
-0.552058383810213,2671.07709642444
-0.537833768831148,2671.08709642444
-0.521634148575225,2671.09709642444
-0.504913089789499,2671.10709642444
-0.489189274989994,2671.11709642444
-0.476303304609293,2671.12709642444
-0.467026294136948,2671.13709642444
-0.461662172331192,2671.14709642444
-0.459617265237977,2671.15709642444
-0.459427968807921,2671.16709642444
-0.461237439851485,2671.17709642444
-0.464328394250555,2671.18709642444
-0.468616797741955,2671.19709642444
-0.473699201505132,2671.20709642444
-0.478826149735224,2671.21709642444
-0.484086308264431,2671.22709642444
-0.489096160407313,2671.23709642444
-0.493126264663694,2671.24709642444
-0.496549311981615,2671.25709642444
-0.499480772058158,2671.26709642444
-0.501493286277533,2671.27709642444
-0.502362184328334,2671.28709642444
-0.503190882741784,2671.29709642444
-0.503859908648542,2671.30709642444
-0.504566389022851,2671.31709642444
-0.50586241142452,2671.32709642444
-0.507057217078694,2671.33709642444
-0.508745191773003,2671.34709642444
-0.510663718973318,2671.35709642444
-0.512096545505062,2671.36709642444
-0.512882232389936,2671.37709642444
-0.51255621396937,2671.38709642444
-0.511547002927518,2671.39709642444
-0.509509249206927,2671.40709642444
-0.506519193886685,2671.41709642444
-0.503617408780471,2671.42709642444
-0.500190476078205,2671.43709642444
-0.496490357721967,2671.44709642444
-0.492665973795345,2671.45709642444
-0.489377908466971,2671.46709642444
-0.486105940033759,2671.47709642444
-0.483880284083843,2671.48709642444
-0.482630500950486,2671.49709642444
-0.481727701599478,2671.50709642444
-0.481622989232024,2671.51709642444
-0.481984376230082,2671.52709642444
-0.482898349292718,2671.53709642444
-0.484489385641552,2671.54709642444
-0.486589268312663,2671.55709642444
-0.488727721606382,2671.56709642444
-0.49133241754942,2671.57709642444
-0.493693629338668,2671.58709642444
-0.495268989915955,2671.59709642444
-0.496347180741208,2671.60709642444
-0.497210602297164,2671.61709642444
-0.498577824475235,2671.62709642444
-0.499615784733903,2671.63709642444
-0.500762002012902,2671.64709642444
-0.501637181823508,2671.65709642444
-0.502082342035065,2671.66709642444
-0.502812693275048,2671.67709642444
-0.503403022352484,2671.68709642444
-0.504409486743005,2671.69709642444
-0.505784033415759,2671.70709642444
-0.507175986123213,2671.71709642444
-0.508799412085446,2671.72709642444
-0.510174169533972,2671.73709642444
-0.510846741694962,2671.74709642444
-0.511815969834071,2671.75709642444
-0.512467775703621,2671.76709642444
-0.513725560234849,2671.77709642444
-0.51492011587233,2671.78709642444
-0.515750279226379,2671.79709642444
-0.516546039965981,2671.80709642444
-0.516457457468267,2671.81709642444
-0.516345397774518,2671.82709642444
-0.51667109711745,2671.83709642444
-0.517449686647689,2671.84709642444
-0.517941097112755,2671.85709642444
-0.518872858572939,2671.86709642444
-0.519457594680745,2671.87709642444
-0.520119054083851,2671.88709642444
-0.521052717375813,2671.89709642444
-0.522346580098298,2671.90709642444
-0.523663830333821,2671.91709642444
-0.524843354596759,2671.92709642444
-0.526230707551052,2671.93709642444
-0.526909444285796,2671.94709642444
-0.526925892783715,2671.95709642444
-0.526430787576996,2671.96709642444
-0.526115234487194,2671.97709642444
-0.525963690909229,2671.98709642444
-0.526401266669473,2671.99709642444
-0.52717637013934,2672.00709642444
-0.528093011534647,2672.01709642444
-0.529109620751819,2672.02709642444
-0.530381876486994,2672.03709642444
-0.531662544024855,2672.04709642444
-0.532602050645558,2672.05709642444
-0.534149146478268,2672.06709642444
-0.535083587290493,2672.07709642444
-0.536231076915938,2672.08709642444
-0.53710464430918,2672.09709642444
-0.537297190664678,2672.10709642444
-0.537336595010689,2672.11709642444
-0.53629631964693,2672.12709642444
-0.53291475979731,2672.13709642444
-0.525502661915336,2672.14709642444
-0.513686233288583,2672.15709642444
-0.498221915984925,2672.16709642444
-0.479571729231121,2672.17709642444
-0.459625485509452,2672.18709642444
-0.440195279416927,2672.19709642444
-0.423157414026249,2672.20709642444
-0.409386084455074,2672.21709642444
-0.399522855006263,2672.22709642444
-0.393384419238594,2672.23709642444
-0.389861359106912,2672.24709642444
-0.388593846402677,2672.25709642444
-0.388538978605585,2672.26709642444
-0.390141040451942,2672.27709642444
-0.392493091132472,2672.28709642444
-0.3945549307155,2672.29709642444
-0.39715287201039,2672.30709642444
-0.399299798010998,2672.31709642444
-0.40094264396554,2672.32709642444
-0.402313277989836,2672.33709642444
-0.403612078655868,2672.34709642444
-0.403395426837685,2672.35709642444
-0.402679446786333,2672.36709642444
-0.40124747009477,2672.37709642444
-0.399628910570432,2672.38709642444
-0.397707954537262,2672.39709642444
-0.395722468865882,2672.40709642444
-0.394420152706661,2672.41709642444
-0.394020854255044,2672.42709642444
-0.394092985834033,2672.43709642444
-0.394236739155833,2672.44709642444
-0.394633701766812,2672.45709642444
-0.39394720922709,2672.46709642444
-0.392336173938796,2672.47709642444
-0.389677881980935,2672.48709642444
-0.386031711490842,2672.49709642444
-0.381253270671116,2672.50709642444
-0.376829274542018,2672.51709642444
-0.372317785117064,2672.52709642444
-0.367248687659595,2672.53709642444
-0.361964138029693,2672.54709642444
-0.357220403622421,2672.55709642444
-0.353017315322964,2672.56709642444
-0.34990286019048,2672.57709642444
-0.346789946168414,2672.58709642444
-0.344590084858998,2672.59709642444
-0.342934321326074,2672.60709642444
-0.341377716632745,2672.61709642444
-0.340049839740881,2672.62709642444
-0.339091862945307,2672.63709642444
-0.338046137752539,2672.64709642444
-0.337349075037136,2672.65709642444
-0.336179003604149,2672.66709642444
-0.33524397412975,2672.67709642444
-0.334687608561874,2672.68709642444
-0.334325356509442,2672.69709642444
-0.334496970725085,2672.70709642444
-0.334814887470797,2672.71709642444
-0.334959899045291,2672.72709642444
-0.335292313299849,2672.73709642444
-0.335543761377305,2672.74709642444
-0.334761134696123,2672.75709642444
-0.33371931717061,2672.76709642444
-0.33232069810544,2672.77709642444
-0.331060685805631,2672.78709642444
-0.330473420253807,2672.79709642444
-0.330352944282498,2672.80709642444
-0.330294123866863,2672.81709642444
-0.330168011198312,2672.82709642444
-0.330592568960919,2672.83709642444
-0.331011348664094,2672.84709642444
-0.331447482159809,2672.85709642444
-0.331481153946011,2672.86709642444
-0.331585396277589,2672.87709642444
-0.331206230450239,2672.88709642444
-0.331243934045081,2672.89709642444
-0.331264338740394,2672.90709642444
-0.331226206148198,2672.91709642444
-0.331515692509911,2672.92709642444
-0.331564832738447,2672.93709642444
-0.331688870303208,2672.94709642444
-0.332081824250748,2672.95709642444
-0.332089289872171,2672.96709642444
-0.332885320400842,2672.97709642444
-0.333823134546707,2672.98709642444
-0.33462532423519,2672.99709642444
-0.334827001397422,2673.00709642444
-0.334986186898813,2673.01709642444
-0.334228933812957,2673.02709642444
-0.333732303817553,2673.03709642444
-0.333178600132092,2673.04709642444
-0.332794108565124,2673.05709642444
-0.331932385185339,2673.06709642444
-0.330976164711605,2673.07709642444
-0.330144096923,2673.08709642444
-0.329240454330118,2673.09709642444
-0.328416012565069,2673.10709642444
-0.327605044916121,2673.11709642444
-0.327454970180404,2673.12709642444
-0.327624165104833,2673.13709642444
-0.327614674949167,2673.14709642444
-0.327941367066156,2673.15709642444
-0.328073407216443,2673.16709642444
-0.327642052493525,2673.17709642444
-0.327764431369396,2673.18709642444
-0.327508029007681,2673.19709642444
-0.32763862902106,2673.20709642444
-0.328011805635828,2673.21709642444
-0.328579157595675,2673.22709642444
-0.329262443411374,2673.23709642444
-0.329769449767288,2673.24709642444
-0.330534810432389,2673.25709642444
-0.330924068029526,2673.26709642444
-0.330242504473353,2673.27709642444
-0.327036870089798,2673.28709642444
-0.320096523958926,2673.29709642444
-0.308212469645947,2673.30709642444
-0.291942923577711,2673.31709642444
-0.271435004160728,2673.32709642444
-0.248767606037982,2673.33709642444
-0.225324920297556,2673.34709642444
-0.202548394565659,2673.35709642444
-0.181971374223689,2673.36709642444
-0.164607399014375,2673.37709642444
-0.15114654976147,2673.38709642444
-0.141820110431354,2673.39709642444
-0.135443804296039,2673.40709642444
-0.131243534368685,2673.41709642444
-0.129092721360487,2673.42709642444
-0.127535477930808,2673.43709642444
-0.127604495403328,2673.44709642444
-0.127936763008272,2673.45709642444
-0.128516665203937,2673.46709642444
-0.129118443851928,2673.47709642444
-0.129846064238207,2673.48709642444
-0.130047872080806,2673.49709642444
-0.129780634233053,2673.50709642444
-0.128529025164398,2673.51709642444
-0.126629758436775,2673.52709642444
-0.123622081996437,2673.53709642444
-0.119940220485706,2673.54709642444
-0.115967165341001,2673.55709642444
-0.112383600494731,2673.56709642444
-0.109892754374312,2673.57709642444
-0.108194145560547,2673.58709642444
-0.108054171398462,2673.59709642444
-0.108162226193793,2673.60709642444
-0.108130879991561,2673.61709642444
-0.107036973437842,2673.62709642444
-0.103918042859928,2673.63709642444
-0.0989346388401299,2673.64709642444
-0.0929402898133986,2673.65709642444
-0.0859811907420179,2673.66709642444
-0.0785099686138906,2673.67709642444
-0.0707926975534089,2673.68709642444
-0.0631022570182069,2673.69709642444
-0.0557483383203724,2673.70709642444
-0.0492062658478692,2673.71709642444
-0.0429318183502747,2673.72709642444
-0.0373586747989622,2673.73709642444
-0.0323004182112078,2673.74709642444
-0.0275602425421571,2673.75709642444
-0.0238086411097902,2673.76709642444
-0.0211974755069205,2673.77709642444
-0.0193981378294374,2673.78709642444
-0.0185705139048019,2673.79709642444
-0.0177621059727842,2673.80709642444
-0.017373826546467,2673.81709642444
-0.0166361502660842,2673.82709642444
-0.0156252553299703,2673.83709642444
-0.0141638835442145,2673.84709642444
-0.0126510415969862,2673.85709642444
-0.0115224029927944,2673.86709642444
-0.0108122785062594,2673.87709642444
-0.0103309652597978,2673.88709642444
-0.0102802396625069,2673.89709642444
-0.0101398305651732,2673.90709642444
-0.00980673244383897,2673.91709642444
-0.0095985732684147,2673.92709642444
-0.00976166771375867,2673.93709642444
-0.0101989219655847,2673.94709642444
-0.0108590238064056,2673.95709642444
-0.0116169785876922,2673.96709642444
-0.0122699628468606,2673.97709642444
-0.0125693918829549,2673.98709642444
-0.012795606981353,2673.99709642444
-0.0127078050291909,2674.00709642444
-0.0123113403641256,2674.01709642444
-0.0127230065776547,2674.02709642444
-0.0134356818444607,2674.03709642444
-0.0139961559700766,2674.04709642444
-0.0146983350463584,2674.05709642444
-0.0155332307732151,2674.06709642444
-0.0164086373441254,2674.07709642444
-0.0166700703387776,2674.08709642444
-0.0168308577913357,2674.09709642444
-0.0167023520369861,2674.10709642444
-0.0162497077428742,2674.11709642444
-0.0157953986576697,2674.12709642444
-0.014779276103016,2674.13709642444
-0.0140827575928401,2674.14709642444
-0.0137824952529864,2674.15709642444
-0.014019531975174,2674.16709642444
-0.0142688163644388,2674.17709642444
-0.0147007255431932,2674.18709642444
-0.015297213482517,2674.19709642444
-0.0156839016491385,2674.20709642444
-0.0166104930861369,2674.21709642444
-0.0173928246495621,2674.22709642444
-0.018187649756492,2674.23709642444
-0.019089556949763,2674.24709642444
-0.0199800993238419,2674.25709642444
-0.0205962297442703,2674.26709642444
-0.0205066274710032,2674.27709642444
-0.0201830047753293,2674.28709642444
-0.0197853545007656,2674.29709642444
-0.0197908484627056,2674.30709642444
-0.0208396409059379,2674.31709642444
-0.0213840661939365,2674.32709642444
-0.0227731912334998,2674.33709642444
-0.0236088904084611,2674.34709642444
-0.024306375489813,2674.35709642444
-0.024985008092737,2674.36709642444
-0.0256501402210721,2674.37709642444
-0.0267161573935682,2674.38709642444
-0.0284991757397085,2674.39709642444
-0.0301348660678562,2674.40709642444
-0.0320228342599781,2674.41709642444
-0.0336553135761641,2674.42709642444
-0.0349516284977327,2674.43709642444
-0.0343904566986657,2674.44709642444
-0.0315962563843901,2674.45709642444
-0.0241673464828759,2674.46709642444
-0.0121656002532746,2674.47709642444
0.00523621246211598,2674.48709642444
0.027126182373003,2674.49709642444
0.0524686602902372,2674.50709642444
0.0792893212119989,2674.51709642444
0.105560243872835,2674.52709642444
0.130237647619463,2674.53709642444
0.151820522132714,2674.54709642444
0.169003493059343,2674.55709642444
0.182890826524109,2674.56709642444
0.193299248501905,2674.57709642444
0.200756584973567,2674.58709642444
0.205760340662647,2674.59709642444
0.207982228502863,2674.60709642444
0.20921576550059,2674.61709642444
0.209455482197492,2674.62709642444
0.208557998583308,2674.63709642444
0.207398103712676,2674.64709642444
0.206387047754302,2674.65709642444
0.206206302930766,2674.66709642444
0.206771091393812,2674.67709642444
0.208427358840636,2674.68709642444
0.210896281318784,2674.69709642444
0.213530684007253,2674.70709642444
0.21632500778981,2674.71709642444
0.21810361500918,2674.72709642444
0.219330735494865,2674.73709642444
0.219147822897619,2674.74709642444
0.21839884530099,2674.75709642444
0.217100992088037,2674.76709642444
0.216166211898567,2674.77709642444
0.216146748200068,2674.78709642444
0.217497024522828,2674.79709642444
0.219865570885259,2674.80709642444
0.223466138962986,2674.81709642444
0.22721020414825,2674.82709642444
0.232550172932476,2674.83709642444
0.238814896380755,2674.84709642444
0.24583163319107,2674.85709642444
0.253221601221294,2674.86709642444
0.260775183487634,2674.87709642444
0.268295117600957,2674.88709642444
0.275933857109828,2674.89709642444
0.282720195179884,2674.90709642444
0.288499104246148,2674.91709642444
0.29312694003675,2674.92709642444
0.296826038588275,2674.93709642444
0.299913628108614,2674.94709642444
0.302068225904232,2674.95709642444
0.303706841745678,2674.96709642444
0.304269682305391,2674.97709642444
0.304015228063244,2674.98709642444
0.302999922621626,2674.99709642444
0.301677465848471,2675.00709642444
0.300942308642852,2675.01709642444
0.300659600258476,2675.02709642444
0.301139696770234,2675.03709642444
0.301617346751606,2675.04709642444
0.301723590382513,2675.05709642444
0.301205446411786,2675.06709642444
0.300174740349154,2675.07709642444
0.29885603761234,2675.08709642444
0.297465796340731,2675.09709642444
0.296584767904667,2675.10709642444
0.295569539605858,2675.11709642444
0.294117994850208,2675.12709642444
0.291780917652162,2675.13709642444
0.289743541145263,2675.14709642444
0.28766948239791,2675.15709642444
0.285542502386801,2675.16709642444
0.283987426709167,2675.17709642444
0.281982855855102,2675.18709642444
0.280644553265631,2675.19709642444
0.2789245242586,2675.20709642444
0.277559043223656,2675.21709642444
0.275793711985975,2675.22709642444
0.274558267044252,2675.23709642444
0.272911211492384,2675.24709642444
0.270820736848547,2675.25709642444
0.268397203936126,2675.26709642444
0.266185987013275,2675.27709642444
0.263880398486431,2675.28709642444
0.261963793830376,2675.29709642444
0.25997703459885,2675.30709642444
0.257578930247504,2675.31709642444
0.254440728290627,2675.32709642444
0.250777275485681,2675.33709642444
0.24725761063797,2675.34709642444
0.243739901399537,2675.35709642444
0.241325715763688,2675.36709642444
0.239496980856353,2675.37709642444
0.238142108136418,2675.38709642444
0.236658234231309,2675.39709642444
0.234531624924396,2675.40709642444
0.232276493581691,2675.41709642444
0.230074554325156,2675.42709642444
0.227634718051741,2675.43709642444
0.225698825627439,2675.44709642444
0.223206112330578,2675.45709642444
0.220493000319279,2675.46709642444
0.21781031281866,2675.47709642444
0.215292327576982,2675.48709642444
0.212177838262951,2675.49709642444
0.209150243882788,2675.50709642444
0.206854681634899,2675.51709642444
0.204665814554715,2675.52709642444
0.202145710969532,2675.53709642444
0.199702142507231,2675.54709642444
0.197145316384577,2675.55709642444
0.194415118552858,2675.56709642444
0.1930099891958,2675.57709642444
0.192817166501208,2675.58709642444
0.194858791300917,2675.59709642444
0.200571204627202,2675.60709642444
0.211585431969706,2675.61709642444
0.229130166113809,2675.62709642444
0.2523213105483,2675.63709642444
0.279442033531524,2675.64709642444
0.308608620535439,2675.65709642444
0.338040848718664,2675.66709642444
0.365261846181926,2675.67709642444
0.389761390919497,2675.68709642444
0.410368426701447,2675.69709642444
0.426424807387855,2675.70709642444
0.439246963908569,2675.71709642444
0.447924191017321,2675.72709642444
0.453915095638059,2675.73709642444
0.457268160496296,2675.74709642444
0.458435925433458,2675.75709642444
0.458309091204715,2675.76709642444
0.456578307104457,2675.77709642444
0.454458260958313,2675.78709642444
0.452431291322073,2675.79709642444
0.450268086818598,2675.80709642444
0.44866418365738,2675.81709642444
0.446934317799035,2675.82709642444
0.446318968969846,2675.83709642444
0.446582434477233,2675.84709642444
0.446615443890327,2675.85709642444
0.446795630467881,2675.86709642444
0.446546058503722,2675.87709642444
0.44572333352612,2675.88709642444
0.44363454317593,2675.89709642444
0.440844642924217,2675.90709642444
0.437906040660937,2675.91709642444
0.43536669001588,2675.92709642444
0.433347836158129,2675.93709642444
0.432117201331876,2675.94709642444
0.432237114431383,2675.95709642444
0.43403138310214,2675.96709642444
0.437560973078831,2675.97709642444
0.442062914711832,2675.98709642444
0.448009905651246,2675.99709642444
0.454434382760494,2676.00709642444
0.461010975936586,2676.01709642444
0.467845680385588,2676.02709642444
0.474322548866376,2676.03709642444
0.479783595949806,2676.04709642444
0.484444647269664,2676.05709642444
0.487965945709722,2676.06709642444
0.490199438809396,2676.07709642444
0.491244995420299,2676.08709642444
0.491728830879752,2676.09709642444
0.491693560041295,2676.10709642444
0.491204975483033,2676.11709642444
0.489998727452634,2676.12709642444
0.488116244185304,2676.13709642444
0.485519184221513,2676.14709642444
0.483216395295435,2676.15709642444
0.48046722593864,2676.16709642444
0.477546265125131,2676.17709642444
0.474338231185782,2676.18709642444
0.471335527403141,2676.19709642444
0.46844034407287,2676.20709642444
0.46530353915965,2676.21709642444
0.462436991897254,2676.22709642444
0.459213944908394,2676.23709642444
0.455697369593978,2676.24709642444
0.452291075562879,2676.25709642444
0.448449105520596,2676.26709642444
0.444845197670962,2676.27709642444
0.44174266820087,2676.28709642444
0.438482614918064,2676.29709642444
0.434751456693327,2676.30709642444
0.430530999003437,2676.31709642444
0.425839095356025,2676.32709642444
0.420944450616122,2676.33709642444
0.416153913352092,2676.34709642444
0.411612918816168,2676.35709642444
0.407101385422628,2676.36709642444
0.402453509551866,2676.37709642444
0.398813057852481,2676.38709642444
0.394694019228699,2676.39709642444
0.390995720707129,2676.40709642444
0.386846972838174,2676.41709642444
0.382923142199202,2676.42709642444
0.378469552231127,2676.43709642444
0.374110617807238,2676.44709642444
0.369524092394527,2676.45709642444
0.364490683523438,2676.46709642444
0.359439631029248,2676.47709642444
0.354113856392859,2676.48709642444
0.349241349878838,2676.49709642444
0.34488811176844,2676.50709642444
0.340487063758727,2676.51709642444
0.336763815432857,2676.52709642444
0.332584553110542,2676.53709642444
0.32820903879546,2676.54709642444
0.323802367175568,2676.55709642444
0.319506235453601,2676.56709642444
0.315288832459872,2676.57709642444
0.311488774543767,2676.58709642444
0.30799614413443,2676.59709642444
0.304219884549752,2676.60709642444
0.299802621579578,2676.61709642444
0.295029928945593,2676.62709642444
0.290215431825537,2676.63709642444
0.285357778831582,2676.64709642444
0.280546038979756,2676.65709642444
0.275925518658366,2676.66709642444
0.2712034069859,2676.67709642444
0.267202497793215,2676.68709642444
0.265686783357328,2676.69709642444
0.268731908787351,2676.70709642444
0.277762106790011,2676.71709642444
0.293730446970204,2676.72709642444
0.316007730992761,2676.73709642444
0.343392156878057,2676.74709642444
0.373343151555643,2676.75709642444
0.403684067691619,2676.76709642444
0.431931489327783,2676.77709642444
0.456701088627061,2676.78709642444
0.477220180414688,2676.79709642444
0.492356794343353,2676.80709642444
0.502168086586574,2676.81709642444
0.507993063891233,2676.82709642444
0.510590931101689,2676.83709642444
0.510299348880454,2676.84709642444
0.50792761556861,2676.85709642444
0.504725274460674,2676.86709642444
0.500514689111616,2676.87709642444
0.496052839090704,2676.88709642444
0.491729899756422,2676.89709642444
0.487199605120257,2676.90709642444
0.483542014117246,2676.91709642444
0.480517007607075,2676.92709642444
0.477038948056082,2676.93709642444
0.473549742748207,2676.94709642444
0.47024437468321,2676.95709642444
0.466395390288761,2676.96709642444
0.46313709089422,2676.97709642444
0.459175442583018,2676.98709642444
0.45531681089745,2676.99709642444
0.450267888649294,2677.00709642444
0.44516080741563,2677.01709642444
0.439943500738022,2677.02709642444
0.43531889431968,2677.03709642444
0.431542734038462,2677.04709642444
0.429171841407794,2677.05709642444
0.4285246537526,2677.06709642444
0.428974013971074,2677.07709642444
0.431127777900147,2677.08709642444
0.433925968148619,2677.09709642444
0.43768264255439,2677.10709642444
0.441060865534523,2677.11709642444
0.444307732492412,2677.12709642444
0.446813276924398,2677.13709642444
0.448506595615126,2677.14709642444
0.449693977475564,2677.15709642444
0.44990311258388,2677.16709642444
0.449405251922474,2677.17709642444
0.447888545705599,2677.18709642444
0.445191499395242,2677.19709642444
0.441482309477496,2677.20709642444
0.43685557140632,2677.21709642444
0.432173837072268,2677.22709642444
0.427795408715736,2677.23709642444
0.423253979308391,2677.24709642444
0.418847729130573,2677.25709642444
0.414335587510407,2677.26709642444
0.410000586433026,2677.27709642444
0.405546789654237,2677.28709642444
0.4009651736335,2677.29709642444
0.396031708420063,2677.30709642444
0.391100245853446,2677.31709642444
0.38626841398448,2677.32709642444
0.381866981014609,2677.33709642444
0.377905511719484,2677.34709642444
0.3737709101009,2677.35709642444
0.369419151086346,2677.36709642444
0.364678018622563,2677.37709642444
0.359247198785696,2677.38709642444
0.353014675308805,2677.39709642444
0.346620838330062,2677.40709642444
0.339922190229447,2677.41709642444
0.333246692680758,2677.42709642444
0.326531083014227,2677.43709642444
0.320464130079066,2677.44709642444
0.31431780932396,2677.45709642444
0.308421320900019,2677.46709642444
0.302448313292061,2677.47709642444
0.29660250689837,2677.48709642444
0.291391284621879,2677.49709642444
0.286180181792865,2677.50709642444
0.281546623259756,2677.51709642444
0.27659774218701,2677.52709642444
0.271402717260673,2677.53709642444
0.266010223295078,2677.54709642444
0.260588928472658,2677.55709642444
0.255088048958065,2677.56709642444
0.249272958517529,2677.57709642444
0.243845467188543,2677.58709642444
0.238009104163166,2677.59709642444
0.232228519935724,2677.60709642444
0.226141005056883,2677.61709642444
0.22058328877989,2677.62709642444
0.215250422519037,2677.63709642444
0.20934428767591,2677.64709642444
0.204015825187346,2677.65709642444
0.198657584199733,2677.66709642444
0.193428199765842,2677.67709642444
0.188656658480514,2677.68709642444
0.184262095052305,2677.69709642444
0.179865626725935,2677.70709642444
0.17554837032783,2677.71709642444
0.170906833299893,2677.72709642444
0.166497171825626,2677.73709642444
0.161382348455223,2677.74709642444
0.15626159560557,2677.75709642444
0.150322009251965,2677.76709642444
0.144653736417977,2677.77709642444
0.139448414470032,2677.78709642444
0.135032045032705,2677.79709642444
0.132832480055272,2677.80709642444
0.134044555466673,2677.81709642444
0.140191465864733,2677.82709642444
0.151909094462715,2677.83709642444
0.169617697961294,2677.84709642444
0.191896854829298,2677.85709642444
0.216303581065932,2677.86709642444
0.240539183205246,2677.87709642444
0.262425842298741,2677.88709642444
0.279876309022972,2677.89709642444
0.29224758776893,2677.90709642444
0.299946779049478,2677.91709642444
0.303030838615274,2677.92709642444
0.303306333096549,2677.93709642444
0.300487733079978,2677.94709642444
0.296346161780126,2677.95709642444
0.291032655559185,2677.96709642444
0.284877618207662,2677.97709642444
0.278001516309824,2677.98709642444
0.271229306044331,2677.99709642444
0.264418155419048,2678.00709642444
0.258440234293701,2678.01709642444
0.252857183135027,2678.02709642444
0.247713994237099,2678.03709642444
0.243490125061959,2678.04709642444
0.240205399663883,2678.05709642444
0.237212345403075,2678.06709642444
0.233911495141438,2678.07709642444
0.229770566450875,2678.08709642444
0.225727890165639,2678.09709642444
0.220505217762741,2678.10709642444
0.215278382708916,2678.11709642444
0.210182733309523,2678.12709642444
0.205401446477747,2678.13709642444
0.20108718421854,2678.14709642444
0.197866536779051,2678.15709642444
0.195421002163971,2678.16709642444
0.193834660280811,2678.17709642444
0.192911899324308,2678.18709642444
0.192784071372396,2678.19709642444
0.193372463102141,2678.20709642444
0.19428104749824,2678.21709642444
0.196203220842464,2678.22709642444
0.197927813509485,2678.23709642444
0.198697904678911,2678.24709642444
0.198853073259688,2678.25709642444
0.198300604256035,2678.26709642444
0.196572501149653,2678.27709642444
0.194599281440245,2678.28709642444
0.19208482532828,2678.29709642444
0.189266353969309,2678.30709642444
0.186574692919079,2678.31709642444
0.183649267323826,2678.32709642444
0.180048762264804,2678.33709642444
0.176087831249107,2678.34709642444
0.171604091839995,2678.35709642444
0.167307823692651,2678.36709642444
0.162959802383715,2678.37709642444
0.158406070026577,2678.38709642444
0.154006129584328,2678.39709642444
0.149989237789477,2678.40709642444
0.145640926428248,2678.41709642444
0.141420620989095,2678.42709642444
0.136855579769041,2678.43709642444
0.131759306372564,2678.44709642444
0.126941289894639,2678.45709642444
0.122387393815093,2678.46709642444
0.117248773578785,2678.47709642444
0.112635769931986,2678.48709642444
0.107620267261162,2678.49709642444
0.102839176611141,2678.50709642444
0.0981850419068745,2678.51709642444
0.0935987865284016,2678.52709642444
0.089493083307409,2678.53709642444
0.0852921196831615,2678.54709642444
0.0810571457046087,2678.55709642444
0.0765821312301777,2678.56709642444
0.0720445053103615,2678.57709642444
0.0671010306102583,2678.58709642444
0.0626699286194208,2678.59709642444
0.0583779163043307,2678.60709642444
0.0543928638700438,2678.61709642444
0.0500697621629321,2678.62709642444
0.0455084068256091,2678.63709642444
0.0403020373182726,2678.64709642444
0.0352137838833,2678.65709642444
0.0299903163094474,2678.66709642444
0.0251556605844225,2678.67709642444
0.0203073865569281,2678.68709642444
0.0160844521629871,2678.69709642444
0.0120757754745871,2678.70709642444
0.00774659639144095,2678.71709642444
0.00365634319003992,2678.72709642444
-0.000313779346556184,2678.73709642444
-0.00460272347298191,2678.74709642444
-0.00868227931647594,2678.75709642444
-0.0126625359239322,2678.76709642444
-0.0162399455388109,2678.77709642444
-0.0199652538588753,2678.78709642444
-0.0240403130979505,2678.79709642444
-0.0284328749635822,2678.80709642444
-0.0332065555123007,2678.81709642444
-0.0383813904752416,2678.82709642444
-0.0437384463915465,2678.83709642444
-0.0482044165980427,2678.84709642444
-0.0525323357729355,2678.85709642444
-0.0558698901666874,2678.86709642444
-0.0582147381324525,2678.87709642444
-0.0585964875640386,2678.88709642444
-0.0553907254896179,2678.89709642444
-0.0478004949284828,2678.90709642444
-0.0357346396736065,2678.91709642444
-0.0196139814476262,2678.92709642444
-0.000933256349987667,2678.93709642444
0.0183234995390308,2678.94709642444
0.036407747106599,2678.95709642444
0.0517342782547848,2678.96709642444
0.0637790944002831,2678.97709642444
0.0716136992161684,2678.98709642444
0.0759580588800177,2678.99709642444
0.0765238828731916,2679.00709642444
0.0743005085560572,2679.01709642444
0.0699554212679436,2679.02709642444
0.0644934810580062,2679.03709642444
0.0576161467514358,2679.04709642444
0.0506343291560161,2679.05709642444
0.0436889211704073,2679.06709642444
0.036403546085064,2679.07709642444
0.0294673835319461,2679.08709642444
0.0227405681542887,2679.09709642444
0.0173529254179089,2679.10709642444
0.0122970025924359,2679.11709642444
0.00745898230634663,2679.12709642444
0.00292691439523652,2679.13709642444
-0.00112335285634087,2679.14709642444
-0.00457575394740194,2679.15709642444
-0.00820192380789331,2679.16709642444
-0.012242254290321,2679.17709642444
-0.0165893921765609,2679.18709642444
-0.0216258014883953,2679.19709642444
-0.0263838281032174,2679.20709642444
-0.0298410655890857,2679.21709642444
-0.0323543979946708,2679.22709642444
-0.0336796117160037,2679.23709642444
-0.0343477465702637,2679.24709642444
-0.0340831889178811,2679.25709642444
-0.0328601669865093,2679.26709642444
-0.0306420882564058,2679.27709642444
-0.0281689456819857,2679.28709642444
-0.0256050730412269,2679.29709642444
-0.0236847710365159,2679.30709642444
-0.0230373736523102,2679.31709642444
-0.0233173181832131,2679.32709642444
-0.0245429506752144,2679.33709642444
-0.0267782895701895,2679.34709642444
-0.0294609246053282,2679.35709642444
-0.0326331091114762,2679.36709642444
-0.0353783659366623,2679.37709642444
-0.0392144024049735,2679.38709642444
-0.0430601757126278,2679.39709642444
-0.0478568498071927,2679.40709642444
-0.0521395579804439,2679.41709642444
-0.0565383825346617,2679.42709642444
-0.0604124104050308,2679.43709642444
-0.063557142039573,2679.44709642444
-0.0660687687675104,2679.45709642444
-0.0684268827372875,2679.46709642444
-0.0706190022765137,2679.47709642444
-0.0733053912721539,2679.48709642444
-0.0763744246211583,2679.49709642444
-0.0795301169145438,2679.50709642444
-0.0834730296347066,2679.51709642444
-0.0872827335179217,2679.52709642444
-0.0913529726345208,2679.53709642444
-0.0953408828991046,2679.54709642444
-0.0992438363768297,2679.55709642444
-0.102631640772222,2679.56709642444
-0.105585964896909,2679.57709642444
-0.108464998652908,2679.58709642444
-0.111129996531389,2679.59709642444
-0.114391056093741,2679.60709642444
-0.117678757827146,2679.61709642444
-0.12060450305936,2679.62709642444
-0.123263847723162,2679.63709642444
-0.125563454914825,2679.64709642444
-0.128123555301354,2679.65709642444
-0.130418577603813,2679.66709642444
-0.133503045823148,2679.67709642444
-0.136632530179072,2679.68709642444
-0.140398119753614,2679.69709642444
-0.144302582035438,2679.70709642444
-0.148335285729755,2679.71709642444
-0.151994122066486,2679.72709642444
-0.154737295752457,2679.73709642444
-0.15710553136099,2679.74709642444
-0.159603551323628,2679.75709642444
-0.162121982684543,2679.76709642444
-0.164989586895703,2679.77709642444
-0.168529379905896,2679.78709642444
-0.172451056031531,2679.79709642444
-0.177107713789531,2679.80709642444
-0.181747166631574,2679.81709642444
-0.186310533370371,2679.82709642444
-0.190148140472318,2679.83709642444
-0.193826380484906,2679.84709642444
-0.19767003771937,2679.85709642444
-0.201057388858662,2679.86709642444
-0.203857357077991,2679.87709642444
-0.205349342011094,2679.88709642444
-0.204096396919233,2679.89709642444
-0.198482925600701,2679.90709642444
-0.187821517343806,2679.91709642444
-0.172036180709049,2679.92709642444
-0.152989284574531,2679.93709642444
-0.132272479963742,2679.94709642444
-0.11265054380591,2679.95709642444
-0.0958120709234116,2679.96709642444
-0.0829367765995708,2679.97709642444
-0.0742950910771068,2679.98709642444
-0.0696654907562263,2679.99709642444
-0.0679422300022535,2680.00709642444
-0.0686741256461416,2680.01709642444
-0.0713664326242587,2680.02709642444
-0.0749842371041099,2680.03709642444
-0.0797082074022387,2680.04709642444
-0.0841719585503556,2680.05709642444
-0.0888206328037692,2680.06709642444
-0.0934154015852777,2680.07709642444
-0.0975774937301701,2680.08709642444
-0.10121348894792,2680.09709642444
-0.104689816782903,2680.10709642444
-0.107661577427295,2680.11709642444
-0.109887889981123,2680.12709642444
-0.112131377052174,2680.13709642444
-0.113309859557251,2680.14709642444
-0.114192842013054,2680.15709642444
-0.115085860684151,2680.16709642444
-0.115775970004081,2680.17709642444
-0.117155597520014,2680.18709642444
-0.118862788080901,2680.19709642444
-0.120758204610008,2680.20709642444
-0.123248418132427,2680.21709642444
-0.125812883918764,2680.22709642444
-0.127832464948401,2680.23709642444
-0.129168868490937,2680.24709642444
-0.128993433166216,2680.25709642444
-0.12764131952719,2680.26709642444
-0.126052763797577,2680.27709642444
-0.123967033858922,2680.28709642444
-0.121889102291219,2680.29709642444
-0.1189401768356,2680.30709642444
-0.115223191558476,2680.31709642444
-0.111533960049805,2680.32709642444
-0.108168666293686,2680.33709642444
-0.105415712248195,2680.34709642444
-0.104225795786909,2680.35709642444
-0.103633501122918,2680.36709642444
-0.104119741326014,2680.37709642444
-0.105443020838906,2680.38709642444
-0.107582714099778,2680.39709642444
-0.109637371788899,2680.40709642444
-0.111565149259674,2680.41709642444
-0.113192901177565,2680.42709642444
-0.114890851203753,2680.43709642444
-0.116386289571343,2680.44709642444
-0.117765653393494,2680.45709642444
-0.119375259735048,2680.46709642444
-0.1205995527218,2680.47709642444
-0.121487168166241,2680.48709642444
-0.122590773250942,2680.49709642444
-0.12390481581648,2680.50709642444
-0.124783710769248,2680.51709642444
-0.126005797029083,2680.52709642444
-0.127252111959512,2680.53709642444
-0.128842126815959,2680.54709642444
-0.130533495065047,2680.55709642444
-0.132705199875823,2680.56709642444
-0.13493606640875,2680.57709642444
-0.137781373474869,2680.58709642444
-0.140096881726527,2680.59709642444
-0.142374812152265,2680.60709642444
-0.144523394219201,2680.61709642444
-0.145820167334516,2680.62709642444
-0.146965003098545,2680.63709642444
-0.147480842415808,2680.64709642444
-0.148058156572337,2680.65709642444
-0.148978723613069,2680.66709642444
-0.150397510145941,2680.67709642444
-0.151707487625458,2680.68709642444
-0.153287585922944,2680.69709642444
-0.15445531671291,2680.70709642444
-0.156097567774979,2680.71709642444
-0.157704607795542,2680.72709642444
-0.159966732887327,2680.73709642444
-0.162291316601945,2680.74709642444
-0.164478104414359,2680.75709642444
-0.167483225161077,2680.76709642444
-0.170624404287874,2680.77709642444
-0.173691315998473,2680.78709642444
-0.176083425454457,2680.79709642444
-0.177769713301042,2680.80709642444
-0.178949974411133,2680.81709642444
-0.179894931767229,2680.82709642444
-0.180847229459316,2680.83709642444
-0.181785367015852,2680.84709642444
-0.183066221698491,2680.85709642444
-0.184831843680909,2680.86709642444
-0.186944509440282,2680.87709642444
-0.188735062890846,2680.88709642444
-0.19072662962731,2680.89709642444
-0.192719232456823,2680.90709642444
-0.194117015413839,2680.91709642444
-0.195954380251745,2680.92709642444
-0.197472603592492,2680.93709642444
-0.198160786601,2680.94709642444
-0.196971060145007,2680.95709642444
-0.192162309403398,2680.96709642444
-0.182591162111503,2680.97709642444
-0.168421660635599,2680.98709642444
-0.149901622129468,2680.99709642444
-0.127980481183322,2681.00709642444
-0.105725938117195,2681.01709642444
-0.0849974474313731,2681.02709642444
-0.0673607657809766,2681.03709642444
-0.0538213898840802,2681.04709642444
-0.0446871470296985,2681.05709642444
-0.0395161837398809,2681.06709642444
-0.0381663627599579,2681.07709642444
-0.0392522400500421,2681.08709642444
-0.0418135637690026,2681.09709642444
-0.0451941050609549,2681.10709642444
-0.048760036423805,2681.11709642444
-0.0518036952996048,2681.12709642444
-0.0553144076560925,2681.13709642444
-0.0587177294859728,2681.14709642444
-0.0617765231868824,2681.15709642444
-0.0646756026466468,2681.16709642444
-0.0670435125200362,2681.17709642444
-0.0681747611893604,2681.18709642444
-0.0686886726810172,2681.19709642444
-0.068547909555627,2681.20709642444
-0.0676320353939514,2681.21709642444
-0.0669523684183469,2681.22709642444
-0.0673791065647789,2681.23709642444
-0.0686355907603572,2681.24709642444
-0.0703500172676816,2681.25709642444
-0.0729509798941178,2681.26709642444
-0.0754050457267663,2681.27709642444
-0.0770669787217087,2681.28709642444
-0.0780843748846939,2681.29709642444
-0.0780565314255425,2681.30709642444
-0.0769678681161794,2681.31709642444
-0.074690844686159,2681.32709642444
-0.0722421950187841,2681.33709642444
-0.0699575363573711,2681.34709642444
-0.0672004828582971,2681.35709642444
-0.064352891593076,2681.36709642444
-0.0611313255676539,2681.37709642444
-0.0578864135786632,2681.38709642444
-0.0552301198904238,2681.39709642444
-0.0527215911494989,2681.40709642444
-0.0505724604544358,2681.41709642444
-0.0488128122406968,2681.42709642444
-0.0480024776535709,2681.43709642444
-0.0483784736075649,2681.44709642444
-0.0497547025309854,2681.45709642444
-0.0514525853684035,2681.46709642444
-0.054128052624305,2681.47709642444
-0.0566485123069006,2681.48709642444
-0.0589303437188463,2681.49709642444
-0.0607276567965472,2681.50709642444
-0.0619316411205693,2681.51709642444
-0.062649145308262,2681.52709642444
-0.0636363036297743,2681.53709642444
-0.0646517737374424,2681.54709642444
-0.065950882349228,2681.55709642444
-0.0676775243588932,2681.56709642444
-0.069815333508388,2681.57709642444
-0.0712482507041417,2681.58709642444
-0.072536997956144,2681.59709642444
-0.0737793142365448,2681.60709642444
-0.0744029247349058,2681.61709642444
-0.0752599288329669,2681.62709642444
-0.0762885677072661,2681.63709642444
-0.0780949006857795,2681.64709642444
-0.0804771175447808,2681.65709642444
-0.0832512594911946,2681.66709642444
-0.0859294237859872,2681.67709642444
-0.0887445651403761,2681.68709642444
-0.0911297448110814,2681.69709642444
-0.0932221394220562,2681.70709642444
-0.0948711799526486,2681.71709642444
-0.0964796234427929,2681.72709642444
-0.0975833338900011,2681.73709642444
-0.0988373102478671,2681.74709642444
-0.100191779527194,2681.75709642444
-0.101540376977416,2681.76709642444
-0.10408475716679,2681.77709642444
-0.106612023571522,2681.78709642444
-0.109308215285787,2681.79709642444
-0.112270269644909,2681.80709642444
-0.114704619254167,2681.81709642444
-0.117215664548938,2681.82709642444
-0.120284376185702,2681.83709642444
-0.123262100276296,2681.84709642444
-0.126652124890615,2681.85709642444
-0.129981848782106,2681.86709642444
-0.133088862436888,2681.87709642444
-0.135963547983036,2681.88709642444
-0.138525629458982,2681.89709642444
-0.140629400117055,2681.90709642444
-0.142857801243474,2681.91709642444
-0.144471439250343,2681.92709642444
-0.146172101545766,2681.93709642444
-0.147280050964346,2681.94709642444
-0.14776675996963,2681.95709642444
-0.145911539750232,2681.96709642444
-0.140653124376151,2681.97709642444
-0.130990200710246,2681.98709642444
-0.116564075120613,2681.99709642444
-0.0985214613462502,2682.00709642444
-0.0791195360625771,2682.01709642444
-0.0602195417430781,2682.02709642444
-0.0435325287438362,2682.03709642444
-0.0302255990499977,2682.04709642444
-0.0205144220187667,2682.05709642444
-0.0140807827468302,2682.06709642444
-0.0108186095677084,2682.07709642444
-0.00978133279401867,2682.08709642444
-0.0110998355043154,2682.09709642444
-0.0136653545659927,2682.10709642444
-0.0173782285259468,2682.11709642444
-0.0216252938780212,2682.12709642444
-0.0254366820647307,2682.13709642444
-0.0287481639944413,2682.14709642444
-0.0315519534900283,2682.15709642444
-0.0342957521300983,2682.16709642444
-0.0371086550871643,2682.17709642444
-0.0396265201124569,2682.18709642444
-0.041597819079381,2682.19709642444
-0.0430966013467664,2682.20709642444
-0.0447925960841979,2682.21709642444
-0.0463616232797782,2682.22709642444
-0.0479827163536151,2682.23709642444
-0.0497305471707566,2682.24709642444
-0.0522560611292714,2682.25709642444
-0.0553540201519853,2682.26709642444
-0.058989899438876,2682.27709642444
-0.0621627078722217,2682.28709642444
-0.0649865488143326,2682.29709642444
-0.0668882791977533,2682.30709642444
-0.0671423504653975,2682.31709642444
-0.0660045769778871,2682.32709642444
-0.0636804161705898,2682.33709642444
-0.060953646707442,2682.34709642444
-0.0578628300104339,2682.35709642444
-0.0544699570863213,2682.36709642444
-0.0513438534882747,2682.37709642444
-0.0487223896517262,2682.38709642444
-0.0458717036603283,2682.39709642444
-0.0437622991171808,2682.40709642444
-0.0422608500708585,2682.41709642444
-0.0409759843905122,2682.42709642444
-0.0406068701651392,2682.43709642444
-0.0406447663140287,2682.44709642444
-0.041170154144944,2682.45709642444
-0.0417060155344713,2682.46709642444
-0.0421603049551377,2682.47709642444
-0.0425734143711403,2682.48709642444
-0.0436038824736402,2682.49709642444
-0.0452693889280317,2682.50709642444
-0.0472981883269555,2682.51709642444
-0.0497274814212921,2682.52709642444
-0.0524806702609928,2682.53709642444
-0.0553345945875162,2682.54709642444
-0.057265442041345,2682.55709642444
-0.0589978421249093,2682.56709642444
-0.0606239093624343,2682.57709642444
-0.0619198211643445,2682.58709642444
-0.0627278568225782,2682.59709642444
-0.0640555529864006,2682.60709642444
-0.0658838273441337,2682.61709642444
-0.0682772464584436,2682.62709642444
-0.0712784670309783,2682.63709642444
-0.0746588263766921,2682.64709642444
-0.0780006526962551,2682.65709642444
-0.0814519792529006,2682.66709642444
-0.0842820715115299,2682.67709642444
-0.0862474256115861,2682.68709642444
-0.0882107719754769,2682.69709642444
-0.0901902099147032,2682.70709642444
-0.0920766624245887,2682.71709642444
-0.0940324659656647,2682.72709642444
-0.0960342069716429,2682.73709642444
-0.0979825174114402,2682.74709642444
-0.100521421204543,2682.75709642444
-0.103207959099886,2682.76709642444
-0.105605093541518,2682.77709642444
-0.108438518770443,2682.78709642444
-0.110584655489633,2682.79709642444
-0.112667225527458,2682.80709642444
-0.114829089751841,2682.81709642444
-0.117304488859961,2682.82709642444
-0.119370402740462,2682.83709642444
-0.120688069133769,2682.84709642444
-0.120406179198918,2682.85709642444
-0.116932341829577,2682.86709642444
-0.110437267474821,2682.87709642444
-0.0999631683904405,2682.88709642444
-0.0858074659585479,2682.89709642444
-0.0691864354620171,2682.90709642444
-0.0516894176051642,2682.91709642444
-0.0357168723372014,2682.92709642444
-0.0213348340714069,2682.93709642444
-0.0108374680098978,2682.94709642444
-0.00399345582074789,2682.95709642444
-0.000252584358786527,2682.96709642444
0.000866808978158037,2682.97709642444
-0.00056093790298407,2682.98709642444
-0.00341413502055514,2682.99709642444
-0.007297420689684,2683.00709642444
-0.0115834805019225,2683.01709642444
-0.0161989166646486,2683.02709642444
-0.0205145976394599,2683.03709642444
-0.0248835936768605,2683.04709642444
-0.0289372019561325,2683.05709642444
-0.032338848046242,2683.06709642444
-0.0352254901288557,2683.07709642444
-0.0376540628847669,2683.08709642444
-0.0398755328273481,2683.09709642444
-0.0416669501098527,2683.10709642444
-0.0431108713007709,2683.11709642444
-0.0453177911108717,2683.12709642444
-0.0476955141679275,2683.13709642444
-0.0505262346516584,2683.14709642444
-0.0538922430561594,2683.15709642444
-0.056833218169644,2683.16709642444
-0.059364466864202,2683.17709642444
-0.0606939247550724,2683.18709642444
-0.0609807671966119,2683.19709642444
-0.0596754104789767,2683.20709642444
-0.0575193391693503,2683.21709642444
-0.0550352417567264,2683.22709642444
-0.0522713247838503,2683.23709642444
-0.0497007265768653,2683.24709642444
-0.0469318756577146,2683.25709642444
-0.0445400005724126,2683.26709642444
-0.0422214764881886,2683.27709642444
-0.0408304681848826,2683.28709642444
-0.0406128899890374,2683.29709642444
-0.0410906829652462,2683.30709642444
-0.0423210201058518,2683.31709642444
-0.0438531979088365,2683.32709642444
-0.0453753785710218,2683.33709642444
-0.0467524336926729,2683.34709642444
-0.0481987386026006,2683.35709642444
-0.0504630541768962,2683.36709642444
-0.0522154392802454,2683.37709642444
-0.0548519022976286,2683.38709642444
-0.0570184229490133,2683.39709642444
-0.0595511043885755,2683.40709642444
-0.0616276059582493,2683.41709642444
-0.063992625114941,2683.42709642444
-0.066546286866464,2683.43709642444
-0.0691580994668928,2683.44709642444
-0.0720602992584939,2683.45709642444
-0.0749286896748736,2683.46709642444
-0.0779390575941428,2683.47709642444
-0.0806220263095344,2683.48709642444
-0.0826483368541032,2683.49709642444
-0.0844187096237266,2683.50709642444
-0.0862351052553882,2683.51709642444
-0.0881961548654966,2683.52709642444
-0.0904224385158247,2683.53709642444
-0.0924148733035595,2683.54709642444
-0.0949003519407116,2683.55709642444
-0.0971619939153072,2683.56709642444
-0.0996143200523709,2683.57709642444
-0.102129197507007,2683.58709642444
-0.105119886098678,2683.59709642444
-0.108488797122592,2683.60709642444
-0.111541426936278,2683.61709642444
-0.114531254440599,2683.62709642444
-0.116375719588671,2683.63709642444
-0.116243900503711,2683.64709642444
-0.113276335629069,2683.65709642444
-0.106191340313109,2683.66709642444
-0.09573462507389,2683.67709642444
-0.0822334194914497,2683.68709642444
-0.0665618252446453,2683.69709642444
-0.0504855975927593,2683.70709642444
-0.0353144526895338,2683.71709642444
-0.0227799496003516,2683.72709642444
-0.0134382896140403,2683.73709642444
-0.00751890660367684,2683.74709642444
-0.00430066001182373,2683.75709642444
-0.00358280419428068,2683.76709642444
-0.00423332853537078,2683.77709642444
-0.00599139030430918,2683.78709642444
-0.00822265254414616,2683.79709642444
-0.0115510577139824,2683.80709642444
-0.0157770908416963,2683.81709642444
-0.0198850519294314,2683.82709642444
-0.0249856771122118,2683.83709642444
-0.0290977344547463,2683.84709642444
-0.0324947574355083,2683.85709642444
-0.0348082808556352,2683.86709642444
-0.036324849656036,2683.87709642444
-0.0377131149914905,2683.88709642444
-0.0385693076028493,2683.89709642444
-0.0405532130835945,2683.90709642444
-0.0418966975813236,2683.91709642444
-0.0443893387680623,2683.92709642444
-0.0468116715155704,2683.93709642444
-0.0499681692970253,2683.94709642444
-0.052685397620248,2683.95709642444
-0.0547690164793225,2683.96709642444
-0.0561223120914794,2683.97709642444
-0.0559924750101338,2683.98709642444
-0.0552791219924408,2683.99709642444
-0.05350927075603,2684.00709642444
-0.0508881156991798,2684.01709642444
-0.0476830882559189,2684.02709642444
-0.0438166521854071,2684.03709642444
-0.0403519300528227,2684.04709642444
-0.0372355637127401,2684.05709642444
-0.0342726323722963,2684.06709642444
-0.032332323897599,2684.07709642444
-0.0312485691274356,2684.08709642444
-0.0310098522493177,2684.09709642444
-0.0314859179819534,2684.10709642444
-0.0326389498622054,2684.11709642444
-0.0341799598688156,2684.12709642444
-0.0359918623241656,2684.13709642444
-0.0382045037284401,2684.14709642444
-0.0403995546561595,2684.15709642444
-0.0425705210058838,2684.16709642444
-0.0451132879968481,2684.17709642444
-0.0471724417797422,2684.18709642444
-0.0491113944475226,2684.19709642444
-0.0509741643386097,2684.20709642444
-0.0528576522429932,2684.21709642444
-0.0548506075731205,2684.22709642444
-0.0568452155031713,2684.23709642444
-0.0589425927441463,2684.24709642444
-0.0613363126717282,2684.25709642444
-0.0638069285557658,2684.26709642444
-0.0663438206863258,2684.27709642444
-0.0686367074018054,2684.28709642444
-0.0709790976233922,2684.29709642444
-0.0729778907763588,2684.30709642444
-0.0753056114781092,2684.31709642444
-0.0774778242375696,2684.32709642444
-0.079681679359333,2684.33709642444
-0.0815669418493896,2684.34709642444
-0.0835243502731145,2684.35709642444
-0.085559202223639,2684.36709642444
-0.0875054044202546,2684.37709642444
-0.0891762964337115,2684.38709642444
-0.0909915898228591,2684.39709642444
-0.0923204664164643,2684.40709642444
-0.0940652173924462,2684.41709642444
-0.0955364104629293,2684.42709642444
-0.0980349734395444,2684.43709642444
-0.100629894807713,2684.44709642444
-0.103428657128727,2684.45709642444
-0.106422108743798,2684.46709642444
-0.109031897868834,2684.47709642444
-0.110291238090276,2684.48709642444
-0.10938837253502,2684.49709642444
-0.105896508315272,2684.50709642444
-0.0980938048013709,2684.51709642444
-0.0856677520298225,2684.52709642444
-0.0693270673424879,2684.53709642444
-0.0505028948512136,2684.54709642444
-0.0316666061667025,2684.55709642444
-0.0140443782537315,2684.56709642444
0.000617583719759266,2684.57709642444
0.0113942525475221,2684.58709642444
0.0185895650141159,2684.59709642444
0.0220751376287556,2684.60709642444
0.0236357786266764,2684.61709642444
0.0230483225179202,2684.62709642444
0.0214178671341607,2684.63709642444
0.0183701406324884,2684.64709642444
0.0143123179910697,2684.65709642444
0.00952160926420131,2684.66709642444
0.00435780845365134,2684.67709642444
-0.000770754790092854,2684.68709642444
-0.00476202075084839,2684.69709642444
-0.00786278181524484,2684.70709642444
-0.0103207467888926,2684.71709642444
-0.0110955983746929,2684.72709642444
-0.0116317445519119,2684.73709642444
-0.0119515647025141,2684.74709642444
-0.0126540148506593,2684.75709642444
-0.0140535595717463,2684.76709642444
-0.0163206656779385,2684.77709642444
-0.0194454144959919,2684.78709642444
-0.0236303912178931,2684.79709642444
-0.0282505560554288,2684.80709642444
-0.0332481490025757,2684.81709642444
-0.0383535298723433,2684.82709642444
-0.042485303845785,2684.83709642444
-0.0458000167169133,2684.84709642444
-0.0477766801394888,2684.85709642444
-0.0486604262926122,2684.86709642444
-0.0485289142279121,2684.87709642444
-0.0477357958323793,2684.88709642444
-0.0458115550040926,2684.89709642444
-0.0433998059657041,2684.90709642444
-0.04092904773859,2684.91709642444
-0.0379186151729547,2684.92709642444
-0.0355358113255824,2684.93709642444
-0.0336691727514328,2684.94709642444
-0.0330375742262982,2684.95709642444
-0.0332992853063486,2684.96709642444
-0.034472574888485,2684.97709642444
-0.0358205323396805,2684.98709642444
-0.0372271819341039,2684.99709642444
-0.0391516083749678,2685.00709642444
-0.0416691126560428,2685.01709642444
-0.0442429149019005,2685.02709642444
-0.0466608768597025,2685.03709642444
-0.0486053678055873,2685.04709642444
-0.0498854639911434,2685.05709642444
-0.0512055478086453,2685.06709642444
-0.0532604100862333,2685.07709642444
-0.0553089629048537,2685.08709642444
-0.0577767543165267,2685.09709642444
-0.0599629808082499,2685.10709642444
-0.0623856042073952,2685.11709642444
-0.0646859869042527,2685.12709642444
-0.0662274068080361,2685.13709642444
-0.0669907287046744,2685.14709642444
-0.0679098100077056,2685.15709642444
-0.0689175654651637,2685.16709642444
-0.0705317139175963,2685.17709642444
-0.0725007162834894,2685.18709642444
-0.0748823301074112,2685.19709642444
-0.0773362116051678,2685.20709642444
-0.079680205709286,2685.21709642444
-0.0814804704053223,2685.22709642444
-0.0826075869846284,2685.23709642444
-0.0837490259070046,2685.24709642444
-0.0848832677721175,2685.25709642444
-0.0869233625198018,2685.26709642444
-0.0896297374973252,2685.27709642444
-0.0926310505025272,2685.28709642444
-0.0959484176512836,2685.29709642444
-0.0992208507016126,2685.30709642444
-0.102730884508835,2685.31709642444
-0.106167873127358,2685.32709642444
-0.109276092995057,2685.33709642444
-0.11168167592286,2685.34709642444
-0.112513022363745,2685.35709642444
-0.110161906012728,2685.36709642444
-0.103789382369647,2685.37709642444
-0.0924188669192142,2685.38709642444
-0.0767994545259223,2685.39709642444
-0.0585280741173623,2685.40709642444
-0.0391741243353944,2685.41709642444
-0.0208601009071736,2685.42709642444
-0.00494239653232164,2685.43709642444
0.00774199733372167,2685.44709642444
0.0163275324772072,2685.45709642444
0.021777870220392,2685.46709642444
0.0237628375573707,2685.47709642444
0.0231552475690064,2685.48709642444
0.0207067489971671,2685.49709642444
0.0168872307286416,2685.50709642444
0.0124557116021081,2685.51709642444
0.00805664405756888,2685.52709642444
0.00405478247916794,2685.53709642444
0.000402926136288192,2685.54709642444
-0.00251905087995236,2685.55709642444
-0.00456372626521813,2685.56709642444
-0.00577903511804703,2685.57709642444
-0.00654619396885586,2685.58709642444
-0.00668997388064212,2685.59709642444
-0.00675730631920528,2685.60709642444
-0.00700836347742073,2685.61709642444
-0.00710694196856344,2685.62709642444
-0.00820426634289462,2685.63709642444
-0.0100253307930722,2685.64709642444
-0.0125375501339557,2685.65709642444
-0.0160732528452225,2685.66709642444
-0.019453696528519,2685.67709642444
-0.0228782091079566,2685.68709642444
-0.0258584620345074,2685.69709642444
-0.0280535379542496,2685.70709642444
-0.0292795897369469,2685.71709642444
-0.0296554778051298,2685.72709642444
-0.0292821767379684,2685.73709642444
-0.0275887885579324,2685.74709642444
-0.0252285826269742,2685.75709642444
-0.021888062555906,2685.76709642444
-0.0184255094691279,2685.77709642444
-0.0151359091286869,2685.78709642444
-0.0127463993670104,2685.79709642444
-0.0107717759246336,2685.80709642444
-0.0099594691659727,2685.81709642444
-0.0101429916422039,2685.82709642444
-0.0117224953708728,2685.83709642444
-0.0144382170878684,2685.84709642444
-0.0175212609570011,2685.85709642444
-0.0204218139589662,2685.86709642444
-0.0232680755892422,2685.87709642444
-0.0262664068610507,2685.88709642444
-0.0290815640487856,2685.89709642444
-0.0321810319455435,2685.90709642444
-0.0347951638254399,2685.91709642444
-0.0373792822831994,2685.92709642444
-0.0398090224135811,2685.93709642444
-0.0420125555822684,2685.94709642444
-0.0443511168549743,2685.95709642444
-0.0464706893029186,2685.96709642444
-0.0491535094607316,2685.97709642444
-0.0512277453490829,2685.98709642444
-0.0526642816918205,2685.99709642444
-0.0543434028700219,2686.00709642444
-0.0550899574993731,2686.01709642444
-0.056633226575664,2686.02709642444
-0.0587280213583583,2686.03709642444
-0.061150607431599,2686.04709642444
-0.0638510896532845,2686.05709642444
-0.0665758677328891,2686.06709642444
-0.0697132997409924,2686.07709642444
-0.0724640133147093,2686.08709642444
-0.0750428213793377,2686.09709642444
-0.0780551381041472,2686.10709642444
-0.0811119089778925,2686.11709642444
-0.0838772673962042,2686.12709642444
-0.0862326026072749,2686.13709642444
-0.0882598533894306,2686.14709642444
-0.0899350373182135,2686.15709642444
-0.0911899185895165,2686.16709642444
-0.0929593168439673,2686.17709642444
-0.0944109329348354,2686.18709642444
-0.0966284217477292,2686.19709642444
-0.0988201548978406,2686.20709642444
-0.101598538633486,2686.21709642444
-0.105112859719844,2686.22709642444
-0.108732743237138,2686.23709642444
-0.112534101140654,2686.24709642444
-0.115548311805159,2686.25709642444
-0.118578822785365,2686.26709642444
-0.120921558755658,2686.27709642444
-0.122388756530997,2686.28709642444
-0.122432274920111,2686.29709642444
-0.119985733993813,2686.30709642444
-0.113479701523584,2686.31709642444
-0.102168008721336,2686.32709642444
-0.086940278245793,2686.33709642444
-0.0684911051711976,2686.34709642444
-0.0490403487639703,2686.35709642444
-0.030265522096383,2686.36709642444
-0.0144456431277524,2686.37709642444
-0.00284292092637055,2686.38709642444
0.00455457869805681,2686.39709642444
0.00830683129120672,2686.40709642444
0.00932027759398407,2686.41709642444
0.00825515420347089,2686.42709642444
0.00561308929421217,2686.43709642444
0.00154321236329209,2686.44709642444
-0.00334495171522957,2686.45709642444
-0.00863272263029478,2686.46709642444
-0.0146455186331095,2686.47709642444
-0.0201075525404501,2686.48709642444
-0.0246222090054879,2686.49709642444
-0.0285259870093804,2686.50709642444
-0.0315120619773645,2686.51709642444
-0.0333115670921882,2686.52709642444
-0.0344775737143541,2686.53709642444
-0.0353122553847136,2686.54709642444
-0.0362243841487366,2686.55709642444
-0.0376877495574926,2686.56709642444
-0.039699836836023,2686.57709642444
-0.0421065112074388,2686.58709642444
-0.0451132540694043,2686.59709642444
-0.0481670058231039,2686.60709642444
-0.0510018510378711,2686.61709642444
-0.0532718646602485,2686.62709642444
-0.0548980095756646,2686.63709642444
-0.0554524955366061,2686.64709642444
-0.0550952565078361,2686.65709642444
-0.054291836592653,2686.66709642444
-0.0531126856876339,2686.67709642444
-0.0508052541040689,2686.68709642444
-0.0485548487136169,2686.69709642444
-0.0467140867093243,2686.70709642444
-0.0442312443594605,2686.71709642444
-0.0420180861623685,2686.72709642444
-0.0408167246747519,2686.73709642444
-0.0397089129416065,2686.74709642444
-0.038833103745685,2686.75709642444
-0.0392575635239276,2686.76709642444
-0.0408892746789379,2686.77709642444
-0.0428411449088146,2686.78709642444
-0.0451942662435895,2686.79709642444
-0.0476240652924177,2686.80709642444
-0.0496572783333037,2686.81709642444
-0.0513296392272796,2686.82709642444
-0.0532407221197104,2686.83709642444
-0.0550468970595856,2686.84709642444
-0.057471394147164,2686.85709642444
-0.0598649530377038,2686.86709642444
-0.0624333715706418,2686.87709642444
-0.0651989579993036,2686.88709642444
-0.0678023163597965,2686.89709642444
-0.0698550121877334,2686.90709642444
-0.071914873992253,2686.91709642444
-0.074095189002239,2686.92709642444
-0.0762493908241781,2686.93709642444
-0.0783513518073737,2686.94709642444
-0.0806907297420387,2686.95709642444
-0.0830008048706551,2686.96709642444
-0.0857167514203455,2686.97709642444
-0.0885204522985306,2686.98709642444
-0.0912732799946385,2686.99709642444
-0.093687023740746,2687.00709642444
-0.0954869091929597,2687.01709642444
-0.097594676115022,2687.02709642444
-0.0996556634902408,2687.03709642444
-0.101208088152204,2687.04709642444
-0.102417275321203,2687.05709642444
-0.104105093752737,2687.06709642444
-0.10553837992734,2687.07709642444
-0.107588490002298,2687.08709642444
-0.110174911374306,2687.09709642444
-0.112881373336187,2687.10709642444
-0.115708169300909,2687.11709642444
-0.11879052336041,2687.12709642444
-0.121857997154494,2687.13709642444
-0.124752944028924,2687.14709642444
-0.127422641113579,2687.15709642444
-0.129714676155699,2687.16709642444
-0.131831142830241,2687.17709642444
-0.134446638959369,2687.18709642444
-0.137421464495029,2687.19709642444
-0.140022249492998,2687.20709642444
-0.142876326134766,2687.21709642444
-0.145498925057715,2687.22709642444
-0.148095942013561,2687.23709642444
-0.149926449036203,2687.24709642444
-0.151838560220357,2687.25709642444
-0.153497112833954,2687.26709642444
-0.15449422646517,2687.27709642444
-0.153496053295928,2687.28709642444
-0.149053693533197,2687.29709642444
-0.140652905230277,2687.30709642444
-0.127859251575881,2687.31709642444
-0.111701816319178,2687.32709642444
-0.0934483694395232,2687.33709642444
-0.0742284287063587,2687.34709642444
-0.0564032015833867,2687.35709642444
-0.041371329518099,2687.36709642444
-0.0304010045329248,2687.37709642444
-0.0225860611829941,2687.38709642444
-0.0186260210697999,2687.39709642444
-0.0175848409039865,2687.40709642444
-0.0187888962845556,2687.41709642444
-0.0217192224768781,2687.42709642444
-0.0254202920413176,2687.43709642444
-0.0299599019500411,2687.44709642444
-0.0343974506420581,2687.45709642444
-0.0389005412977371,2687.46709642444
-0.0433803658875173,2687.47709642444
-0.0471835953254919,2687.48709642444
-0.0502814425577549,2687.49709642444
-0.0524007684751295,2687.50709642444
-0.0542811074405239,2687.51709642444
-0.0555553648627178,2687.52709642444
-0.056486459488854,2687.53709642444
-0.0576010019695092,2687.54709642444
-0.0595287240296138,2687.55709642444
-0.0615082352151743,2687.56709642444
-0.0642039796696579,2687.57709642444
-0.0675043649198134,2687.58709642444
-0.0708515317399476,2687.59709642444
-0.0742932247200643,2687.60709642444
-0.0768070954579241,2687.61709642444
-0.0789047933054851,2687.62709642444
-0.079663506635952,2687.63709642444
-0.0791755124407152,2687.64709642444
-0.0774861064334731,2687.65709642444
-0.0749326651413749,2687.66709642444
-0.0719238479496976,2687.67709642444
-0.0682220861269709,2687.68709642444
-0.0636349394363505,2687.69709642444
-0.0595803652233161,2687.70709642444
-0.0563582607438174,2687.71709642444
-0.0537045648861654,2687.72709642444
-0.0521390948568794,2687.73709642444
-0.0513531173836285,2687.74709642444
-0.0515183700344956,2687.75709642444
-0.0525191499910023,2687.76709642444
-0.0536398986895869,2687.77709642444
-0.0550479372097365,2687.78709642444
-0.0569002638886585,2687.79709642444
-0.0588948167627482,2687.80709642444
-0.0609168121011426,2687.81709642444
-0.0628111474651793,2687.82709642444
-0.064910909317408,2687.83709642444
-0.0668285581142967,2687.84709642444
-0.0686152440822085,2687.85709642444
-0.0705253668754297,2687.86709642444
-0.0723422543398178,2687.87709642444
-0.0749431309268746,2687.88709642444
-0.0775452333128876,2687.89709642444
-0.0807803503744483,2687.90709642444
-0.0829933083133164,2687.91709642444
-0.085730682093608,2687.92709642444
-0.0879757974977002,2687.93709642444
-0.0908267389398265,2687.94709642444
-0.0935994720131057,2687.95709642444
-0.0959696941333018,2687.96709642444
-0.0978585976600223,2687.97709642444
-0.0993363832689593,2687.98709642444
-0.100748415463428,2687.99709642444
-0.102654866159714,2688.00709642444
-0.104323244277608,2688.01709642444
-0.106225902980919,2688.02709642444
-0.108650510866904,2688.03709642444
-0.110844217059158,2688.04709642444
-0.11407209973757,2688.05709642444
-0.116607359922441,2688.06709642444
-0.119383971795784,2688.07709642444
-0.121403638923395,2688.08709642444
-0.123178324654639,2688.09709642444
-0.124986583221018,2688.10709642444
-0.126352673991223,2688.11709642444
-0.127707948913332,2688.12709642444
-0.129239147674049,2688.13709642444
-0.131295038129937,2688.14709642444
-0.133523080111198,2688.15709642444
-0.136175647348084,2688.16709642444
-0.138559066658596,2688.17709642444
-0.140760283394912,2688.18709642444
-0.142978058651202,2688.19709642444
-0.144531661190713,2688.20709642444
-0.144627767736026,2688.21709642444
-0.142404910749033,2688.22709642444
-0.136163535163023,2688.23709642444
-0.125380087154401,2688.24709642444
-0.109871898658067,2688.25709642444
-0.0908473928972333,2688.26709642444
-0.069951057371851,2688.27709642444
-0.0494430370788088,2688.28709642444
-0.0300995384380634,2688.29709642444
-0.0138037657401104,2688.30709642444
-0.00122963605607688,2688.31709642444
0.0072134091558245,2688.32709642444
0.0128632580044323,2688.33709642444
0.015533979287437,2688.34709642444
0.0158706895187811,2688.35709642444
0.0145499585924583,2688.36709642444
0.0118094380155539,2688.37709642444
0.00870643213310814,2688.38709642444
0.00529263637788021,2688.39709642444
0.00283936114900856,2688.40709642444
0.000740306362920155,2688.41709642444
-0.00117128354099039,2688.42709642444
-0.00256641331002365,2688.43709642444
-0.00398368543717213,2688.44709642444
-0.00543745451197611,2688.45709642444
-0.00679142925996613,2688.46709642444
-0.00769195241345632,2688.47709642444
-0.00873361161459854,2688.48709642444
-0.00997171599958708,2688.49709642444
-0.0118442229595736,2688.50709642444
-0.0142495542529111,2688.51709642444
-0.0169380040030174,2688.52709642444
-0.0194712700323106,2688.53709642444
-0.021944388610417,2688.54709642444
-0.0236897588111056,2688.55709642444
-0.0246786818230517,2688.56709642444
-0.0246454488529523,2688.57709642444
-0.0230618555396992,2688.58709642444
-0.0204074364890647,2688.59709642444
-0.0167783286021983,2688.60709642444
-0.0125654180515683,2688.61709642444
-0.00851717602759494,2688.62709642444
-0.00464303168314364,2688.63709642444
-0.00111515310485044,2688.64709642444
0.00167929460931885,2688.65709642444
0.00403177088325879,2688.66709642444
0.0057931549571263,2688.67709642444
0.00692207045837948,2688.68709642444
0.00730213576566029,2688.69709642444
0.00767321692422356,2688.70709642444
0.00706898570296024,2688.71709642444
0.00611334886627653,2688.72709642444
0.00486571707667896,2688.73709642444
0.00368168318528983,2688.74709642444
0.00272183745371429,2688.75709642444
0.00204650378117897,2688.76709642444
0.00132263677601792,2688.77709642444
0.00053261484663161,2688.78709642444
-0.000452919706580473,2688.79709642444
-0.00202154993154841,2688.80709642444
-0.00353534073730507,2688.81709642444
-0.00557632526417555,2688.82709642444
-0.00721906490815004,2688.83709642444
-0.00863633344129392,2688.84709642444
-0.0101327584060391,2688.85709642444
-0.0114853311449471,2688.86709642444
-0.0127158446950277,2688.87709642444
-0.0136203068087987,2688.88709642444
-0.0148540691582751,2688.89709642444
-0.0166054049445698,2688.90709642444
-0.0187707624762605,2688.91709642444
-0.0211026391955734,2688.92709642444
-0.0236996698532983,2688.93709642444
-0.0257665750054709,2688.94709642444
-0.0276568424563963,2688.95709642444
-0.0296737699094773,2688.96709642444
-0.0315432205127629,2688.97709642444
-0.0339327718897128,2688.98709642444
-0.0365809241243887,2688.99709642444
-0.0393606258621622,2689.00709642444
-0.042345793565533,2689.01709642444
-0.0446757237486325,2689.02709642444
-0.0469836115539811,2689.03709642444
-0.0486353298535706,2689.04709642444
-0.0502917500784878,2689.05709642444
-0.0516744736704868,2689.06709642444
-0.0529964020095312,2689.07709642444
-0.0550585936717438,2689.08709642444
-0.0575036098328827,2689.09709642444
-0.0601816155037364,2689.10709642444
-0.0626978358034387,2689.11709642444
-0.0647450416904393,2689.12709642444
-0.0661833120036432,2689.13709642444
-0.0670118739103835,2689.14709642444
-0.0685271557477212,2689.15709642444
-0.0702310676113881,2689.16709642444
-0.0720061572077767,2689.17709642444
-0.0739206181673412,2689.18709642444
-0.0754260673475887,2689.19709642444
-0.0767495346744184,2689.20709642444
-0.0784225643741897,2689.21709642444
-0.0802885929889489,2689.22709642444
-0.0825713184497856,2689.23709642444
-0.0851354053311121,2689.24709642444
-0.0872249747626025,2689.25709642444
-0.0884475197699328,2689.26709642444
-0.0867129501070035,2689.27709642444
-0.0812256661058899,2689.28709642444
-0.0701478601161814,2689.29709642444
-0.0537497344441493,2689.30709642444
-0.0325564072390113,2689.31709642444
-0.00871146547330289,2689.32709642444
0.0170304196875381,2689.33709642444
0.0419786848691018,2689.34709642444
0.0649890133149281,2689.35709642444
0.084123087575273,2689.36709642444
0.0987530674918718,2689.37709642444
0.108766510402357,2689.38709642444
0.114223486087608,2689.39709642444
0.117214021380283,2689.40709642444
0.117670855452602,2689.41709642444
0.117138058645711,2689.42709642444
0.115977014037507,2689.43709642444
0.114635483444113,2689.44709642444
0.113398506904768,2689.45709642444
0.112195526850846,2689.46709642444
0.111024124193547,2689.47709642444
0.110515509247276,2689.48709642444
0.110015135373319,2689.49709642444
0.109850385665221,2689.50709642444
0.109545861562127,2689.51709642444
0.109156915423698,2689.52709642444
0.108483373396348,2689.53709642444
0.10765334994266,2689.54709642444
0.106376483729411,2689.55709642444
0.105144786114882,2689.56709642444
0.103885820850527,2689.57709642444
0.102446414435138,2689.58709642444
0.101060667359653,2689.59709642444
0.0995232917327372,2689.60709642444
0.0987270934239393,2689.61709642444
0.0987930463526142,2689.62709642444
0.099305279909153,2689.63709642444
0.100819029474813,2689.64709642444
0.102860827176384,2689.65709642444
0.106195193387866,2689.66709642444
0.110359916058002,2689.67709642444
0.115433931265744,2689.68709642444
0.121472410993355,2689.69709642444
0.127356404451931,2689.70709642444
0.133053661499441,2689.71709642444
0.137463117835377,2689.72709642444
0.140898066455954,2689.73709642444
0.142855309699896,2689.74709642444
0.143416908665911,2689.75709642444
0.143702625286338,2689.76709642444
0.143635362019492,2689.77709642444
0.143700897973286,2689.78709642444
0.143402966433659,2689.79709642444
0.142575543707416,2689.80709642444
0.141448908215585,2689.81709642444
0.140467353255236,2689.82709642444
0.139254472890494,2689.83709642444
0.138243229524202,2689.84709642444
0.136650608062493,2689.85709642444
0.135220582641113,2689.86709642444
0.133630084026415,2689.87709642444
0.132246182809743,2689.88709642444
0.131308423774541,2689.89709642444
0.130635749671464,2689.90709642444
0.130336890177503,2689.91709642444
0.129938692291398,2689.92709642444
0.129082766459813,2689.93709642444
0.127570712813968,2689.94709642444
0.125760821311457,2689.95709642444
0.123191055045853,2689.96709642444
0.120550359732542,2689.97709642444
0.117755905867079,2689.98709642444
0.115590243295969,2689.99709642444
0.113395498697635,2690.00709642444
0.111121596053513,2690.01709642444
0.109128244665843,2690.02709642444
0.107061144780335,2690.03709642444
0.105163503667787,2690.04709642444
0.103106724562801,2690.05709642444
0.100869933497821,2690.06709642444
0.0984580567709908,2690.07709642444
0.0958352837252532,2690.08709642444
0.0932890040587565,2690.09709642444
0.0907025901918409,2690.10709642444
0.0885148336441672,2690.11709642444
0.0857969361314827,2690.12709642444
0.0834375136490145,2690.13709642444
0.0810059661642184,2690.14709642444
0.080021647269227,2690.15709642444
0.0784886806113571,2690.16709642444
0.0766237642487738,2690.17709642444
0.0751991540665241,2690.18709642444
0.0732469272579036,2690.19709642444
0.0716967263585582,2690.20709642444
0.0696004618806137,2690.21709642444
0.0672221837746188,2690.22709642444
0.0644914733764611,2690.23709642444
0.0617410315207999,2690.24709642444
0.0595410119780225,2690.25709642444
0.0573650206880855,2690.26709642444
0.0552066720828221,2690.27709642444
0.0530709903360084,2690.28709642444
0.0507090410535267,2690.29709642444
0.0491818548319412,2690.30709642444
0.0496836998168625,2690.31709642444
0.0543680863038883,2690.32709642444
0.0651222219933676,2690.33709642444
0.0824261833785345,2690.34709642444
0.105277890012533,2690.35709642444
0.132080006191382,2690.36709642444
0.16070198371726,2690.37709642444
0.188576221846701,2690.38709642444
0.214759844179171,2690.39709642444
0.237500426530016,2690.40709642444
0.256615919437654,2690.41709642444
0.271865963504004,2690.42709642444
0.283336552000534,2690.43709642444
0.291264258846218,2690.44709642444
0.295896427359135,2690.45709642444
0.297938840993219,2690.46709642444
0.297925490219163,2690.47709642444
0.296576810620618,2690.48709642444
0.29471603841773,2690.49709642444
0.29292681278985,2690.50709642444
0.291715923989106,2690.51709642444
0.290821775529228,2690.52709642444
0.289920051568295,2690.53709642444
0.289502114618175,2690.54709642444
0.288772167043966,2690.55709642444
0.288288439472344,2690.56709642444
0.28846221955066,2690.57709642444
0.288429961291976,2690.58709642444
0.288080647021982,2690.59709642444
0.286946295247092,2690.60709642444
0.285215076852645,2690.61709642444
0.283193558522986,2690.62709642444
0.281129467038117,2690.63709642444
0.279667219171796,2690.64709642444
0.27922559373586,2690.65709642444
0.27900256768988,2690.66709642444
0.279304713417,2690.67709642444
0.280802698189485,2690.68709642444
0.283108167422472,2690.69709642444
0.286126034246658,2690.70709642444
0.289844495774485,2690.71709642444
0.29416946439592,2690.72709642444
0.298764020539194,2690.73709642444
0.303175078013892,2690.74709642444
0.307598273875643,2690.75709642444
0.311966945224848,2690.76709642444
0.316234930403318,2690.77709642444
0.31922806000919,2690.78709642444
0.321192935944426,2690.79709642444
0.322331520743923,2690.80709642444
0.322057103653076,2690.81709642444
0.321129344264949,2690.82709642444
0.319834648394891,2690.83709642444
0.31834268400793,2690.84709642444
0.316756182865346,2690.85709642444
0.315218501508247,2690.86709642444
0.313413004555841,2690.87709642444
0.312022767415053,2690.88709642444
0.310100724787024,2690.89709642444
0.308197115988428,2690.90709642444
0.306541033029952,2690.91709642444
0.304474588503034,2690.92709642444
0.301898410814281,2690.93709642444
0.299833063393244,2690.94709642444
0.297489400299508,2690.95709642444
0.295058503629684,2690.96709642444
0.293117744384078,2690.97709642444
0.291098561628539,2690.98709642444
0.289302000929086,2690.99709642444
0.287492931472169,2691.00709642444
0.285452826670483,2691.01709642444
0.283053292784594,2691.02709642444
0.279556424904457,2691.03709642444
0.27594055626561,2691.04709642444
0.27226687814531,2691.05709642444
0.268679827182521,2691.06709642444
0.265508553355607,2691.07709642444
0.262375722234533,2691.08709642444
0.259446217949136,2691.09709642444
0.256220955838381,2691.10709642444
0.252831422436055,2691.11709642444
0.249141492769111,2691.12709642444
0.245553766012658,2691.13709642444
0.241753845100966,2691.14709642444
0.238029169775347,2691.15709642444
0.234215851643168,2691.16709642444
0.230690670506353,2691.17709642444
0.227737531516303,2691.18709642444
0.225110700258617,2691.19709642444
0.22248988981316,2691.20709642444
0.21978879276612,2691.21709642444
0.21660798895741,2691.22709642444
0.213467455760278,2691.23709642444
0.21004209616826,2691.24709642444
0.205976340037957,2691.25709642444
0.202544117963875,2691.26709642444
0.198895581615332,2691.27709642444
0.195544656935099,2691.28709642444
0.192878456664528,2691.29709642444
0.190098194910928,2691.30709642444
0.187995814670981,2691.31709642444
0.187447726061311,2691.32709642444
0.190430749393122,2691.33709642444
0.198423247907218,2691.34709642444
0.212427120986336,2691.35709642444
0.232662681656572,2691.36709642444
0.257747323449364,2691.37709642444
0.2854740532513,2691.38709642444
0.314175561509088,2691.39709642444
0.342404577570839,2691.40709642444
0.367447758694809,2691.41709642444
0.389603483405001,2691.42709642444
0.407060645431549,2691.43709642444
0.420231002072067,2691.44709642444
0.429620857411828,2691.45709642444
0.435574680551279,2691.46709642444
0.438902950826378,2691.47709642444
0.440464843772643,2691.48709642444
0.440585754539428,2691.49709642444
0.440012945278489,2691.50709642444
0.438487191655989,2691.51709642444
0.436757325159641,2691.52709642444
0.434392895688787,2691.53709642444
0.431179459444284,2691.54709642444
0.427717351851942,2691.55709642444
0.424411703410035,2691.56709642444
0.421533143285061,2691.57709642444
0.419062429318021,2691.58709642444
0.416383495368574,2691.59709642444
0.413696272772852,2691.60709642444
0.410255899045311,2691.61709642444
0.40612915981926,2691.62709642444
0.401754340461076,2691.63709642444
0.397743893154319,2691.64709642444
0.394239289266146,2691.65709642444
0.39191535353967,2691.66709642444
0.389884340387879,2691.67709642444
0.388359359005407,2691.68709642444
0.38773326352311,2691.69709642444
0.388170422678531,2691.70709642444
0.390911328758521,2691.71709642444
0.395349146825078,2691.72709642444
0.400993119684479,2691.73709642444
0.407038010997498,2691.74709642444
0.412126940074359,2691.75709642444
0.416607378416429,2691.76709642444
0.420113138196363,2691.77709642444
0.422786133691234,2691.78709642444
0.424862154314962,2691.79709642444
0.425719026401662,2691.80709642444
0.426132138118385,2691.81709642444
0.425668996245868,2691.82709642444
0.424111010849659,2691.83709642444
0.422406308528541,2691.84709642444
0.419953946753167,2691.85709642444
0.417662818633277,2691.86709642444
0.415556206526623,2691.87709642444
0.41327343139532,2691.88709642444
0.411063060605149,2691.89709642444
0.408671216068799,2691.90709642444
0.406076935393518,2691.91709642444
0.403241964135103,2691.92709642444
0.400143624483208,2691.93709642444
0.396779440295537,2691.94709642444
0.39347182725444,2691.95709642444
0.390119881059881,2691.96709642444
0.386559828782075,2691.97709642444
0.383284527494186,2691.98709642444
0.379707891178169,2691.99709642444
0.375728516795849,2692.00709642444
0.371235778900152,2692.01709642444
0.366570563905514,2692.02709642444
0.362094350545292,2692.03709642444
0.357747596933718,2692.04709642444
0.353554612495453,2692.05709642444
0.349730558113908,2692.06709642444
0.345470748918844,2692.07709642444
0.340945361965537,2692.08709642444
0.336373764298651,2692.09709642444
0.331242105588287,2692.10709642444
0.326409998900608,2692.11709642444
0.321862760905556,2692.12709642444
0.317590443691634,2692.13709642444
0.313542981070184,2692.14709642444
0.310172748892242,2692.15709642444
0.307132574266199,2692.16709642444
0.304466193946204,2692.17709642444
0.301105568682116,2692.18709642444
0.297768430433949,2692.19709642444
0.293836752709799,2692.20709642444
0.289464915931788,2692.21709642444
0.284837422153355,2692.22709642444
0.280124232952695,2692.23709642444
0.275962574206674,2692.24709642444
0.271904000884943,2692.25709642444
0.26940081540256,2692.26709642444
0.269260864881242,2692.27709642444
0.27289928626289,2692.28709642444
0.28216280227743,2692.29709642444
0.297348389693489,2692.30709642444
0.319176747069809,2692.31709642444
0.346119071729364,2692.32709642444
0.375533235358873,2692.33709642444
0.405400814142016,2692.34709642444
0.433677330409229,2692.35709642444
0.458528564102408,2692.36709642444
0.479681299112726,2692.37709642444
0.496318816409357,2692.38709642444
0.508584869358187,2692.39709642444
0.517264706206424,2692.40709642444
0.522166371912755,2692.41709642444
0.524286606976346,2692.42709642444
0.525009729722903,2692.43709642444
0.524286736266859,2692.44709642444
0.522333678309521,2692.45709642444
0.520125519042526,2692.46709642444
0.517238015837785,2692.47709642444
0.514012722586033,2692.48709642444
0.51090949850532,2692.49709642444
0.507256707824939,2692.50709642444
0.50332849123184,2692.51709642444
0.499059641077663,2692.52709642444
0.494581443727153,2692.53709642444
0.490061336785066,2692.54709642444
0.484933255535689,2692.55709642444
0.479998406919024,2692.56709642444
0.474421162308376,2692.57709642444
0.469091459219791,2692.58709642444
0.464132023060674,2692.59709642444
0.460035224035472,2692.60709642444
0.457648458277262,2692.61709642444
0.456956370381874,2692.62709642444
0.457974059481254,2692.63709642444
0.460778478912733,2692.64709642444
0.464631199014211,2692.65709642444
0.46941675636751,2692.66709642444
0.47453329446818,2692.67709642444
0.479411869920903,2692.68709642444
0.484131245321859,2692.69709642444
0.488310365085361,2692.70709642444
0.491800576545882,2692.71709642444
0.494418450738899,2692.72709642444
0.496275475835141,2692.73709642444
0.497167909399929,2692.74709642444
0.497484305926103,2692.75709642444
0.496665892597403,2692.76709642444
0.495293133390803,2692.77709642444
0.493717459164361,2692.78709642444
0.492173832849992,2692.79709642444
0.490694065220722,2692.80709642444
0.488254710948598,2692.81709642444
0.485266273210254,2692.82709642444
0.482309911129935,2692.83709642444
0.479202335407931,2692.84709642444
0.476261435736918,2692.85709642444
0.473177687887565,2692.86709642444
0.470208391203985,2692.87709642444
0.466512787985795,2692.88709642444
0.462106870236396,2692.89709642444
0.457547225777668,2692.90709642444
0.452844390792161,2692.91709642444
0.44813032566722,2692.92709642444
0.443264179389936,2692.93709642444
0.438560785937851,2692.94709642444
0.434267892084623,2692.95709642444
0.43014784284071,2692.96709642444
0.425894676248108,2692.97709642444
0.422005342708398,2692.98709642444
0.417279682768526,2692.99709642444
0.41267927752369,2693.00709642444
0.407389088133837,2693.01709642444
0.402337487544459,2693.02709642444
0.397465074346488,2693.03709642444
0.392995671854497,2693.04709642444
0.388821826163076,2693.05709642444
0.384928356913011,2693.06709642444
0.381089554706682,2693.07709642444
0.376915914615325,2693.08709642444
0.372576066881791,2693.09709642444
0.367468850447012,2693.10709642444
0.362711648785221,2693.11709642444
0.357323273767492,2693.12709642444
0.351786916861341,2693.13709642444
0.346463389922102,2693.14709642444
0.341941815236119,2693.15709642444
0.339728509678827,2693.16709642444
0.340934102160987,2693.17709642444
0.346970570404254,2693.18709642444
0.3590663491535,2693.19709642444
0.377458665146901,2693.20709642444
0.402076198830084,2693.21709642444
0.431774036479993,2693.22709642444
0.464997260035279,2693.23709642444
0.498683173029619,2693.24709642444
0.531515925216619,2693.25709642444
0.561157232050741,2693.26709642444
0.586430727750791,2693.27709642444
0.60723724751254,2693.28709642444
0.623215858185374,2693.29709642444
0.635196663106265,2693.30709642444
0.643417996597223,2693.31709642444
0.648893393264685,2693.32709642444
0.651585882570422,2693.33709642444
0.652474078420433,2693.34709642444
0.652688033908153,2693.35709642444
0.652602486139802,2693.36709642444
0.652040868473791,2693.37709642444
0.651041358375789,2693.38709642444
0.649367013456232,2693.39709642444
0.6478371280468,2693.40709642444
0.645923968878246,2693.41709642444
0.64333495156082,2693.42709642444
0.640649163879338,2693.43709642444
0.636936215643164,2693.44709642444
0.632893790811399,2693.45709642444
0.627602849442639,2693.46709642444
0.621976857248477,2693.47709642444
0.616682634589503,2693.48709642444
0.611729763846696,2693.49709642444
0.607973014305183,2693.50709642444
0.604754741988663,2693.51709642444
0.602676399383541,2693.52709642444
0.601940092129771,2693.53709642444
0.602791986694111,2693.54709642444
0.605255632190665,2693.55709642444
0.609053756097753,2693.56709642444
0.613840672768163,2693.57709642444
0.619842605165865,2693.58709642444
0.625681486660981,2693.59709642444
0.631096921026464,2693.60709642444
0.636271636684965,2693.61709642444
0.639576974510417,2693.62709642444
0.642627000271657,2693.63709642444
0.644507767464103,2693.64709642444
0.645293648360485,2693.65709642444
0.645538490663771,2693.66709642444
0.644803692156254,2693.67709642444
0.643049198228335,2693.68709642444
0.640861835902933,2693.69709642444
0.637935743045287,2693.70709642444
0.634824443989213,2693.71709642444
0.631084098451129,2693.72709642444
0.627007803189954,2693.73709642444
0.622506164672095,2693.74709642444
0.618530304193267,2693.75709642444
0.614283229308244,2693.76709642444
0.610220678403512,2693.77709642444
0.606602644004225,2693.78709642444
0.602193446655239,2693.79709642444
0.597603928412947,2693.80709642444
0.592897760722033,2693.81709642444
0.588285625535448,2693.82709642444
0.583611435409094,2693.83709642444
0.579048217242098,2693.84709642444
0.573821684878885,2693.85709642444
0.567907631871357,2693.86709642444
0.561683671374265,2693.87709642444
0.554981090357717,2693.88709642444
0.549190305929502,2693.89709642444
0.542897705975177,2693.90709642444
0.537398122287365,2693.91709642444
0.531952827837962,2693.92709642444
0.526912321162012,2693.93709642444
0.522139199920252,2693.94709642444
0.517242121380739,2693.95709642444
0.512258501161511,2693.96709642444
0.506986006160574,2693.97709642444
0.501865034384837,2693.98709642444
0.496711025779451,2693.99709642444
0.491724691773327,2694.00709642444
0.487114077763075,2694.01709642444
0.48248888429272,2694.02709642444
0.477686028487678,2694.03709642444
0.472837650186801,2694.04709642444
0.468648703679407,2694.05709642444
0.466477588212125,2694.06709642444
0.468858493127007,2694.07709642444
0.477777611406887,2694.08709642444
0.494802688267923,2694.09709642444
0.519653045178417,2694.10709642444
0.550655629132683,2694.11709642444
0.586033218360263,2694.12709642444
0.622766182413948,2694.13709642444
0.658483420136187,2694.14709642444
0.691323357402021,2694.15709642444
0.720132700491383,2694.16709642444
0.743549987073127,2694.17709642444
0.761880318642098,2694.18709642444
0.775118507844833,2694.19709642444
0.784114845517823,2694.20709642444
0.789528983769753,2694.21709642444
0.792434331966136,2694.22709642444
0.793393778972025,2694.23709642444
0.793113330012837,2694.24709642444
0.791870335077521,2694.25709642444
0.789395435118816,2694.26709642444
0.786375095954125,2694.27709642444
0.782750240909613,2694.28709642444
0.778299734578511,2694.29709642444
0.774174217378717,2694.30709642444
0.76993839501619,2694.31709642444
0.765518057865079,2694.32709642444
0.761113957771663,2694.33709642444
0.756073414525534,2694.34709642444
0.750593004936682,2694.35709642444
0.744371711165842,2694.36709642444
0.73762343772349,2694.37709642444
0.730855602123825,2694.38709642444
0.724860309336544,2694.39709642444
0.719631759984996,2694.40709642444
0.715204711418942,2694.41709642444
0.711621359962662,2694.42709642444
0.709476101216317,2694.43709642444
0.708895629866862,2694.44709642444
0.709770257297984,2694.45709642444
0.712029953742039,2694.46709642444
0.715311874219102,2694.47709642444
0.719486370662403,2694.48709642444
0.723402547138186,2694.49709642444
0.726038379022692,2694.50709642444
0.727806845542206,2694.51709642444
0.727988379612399,2694.52709642444
0.72703633252878,2694.53709642444
0.724847559380987,2694.54709642444
0.721120481429848,2694.55709642444
0.716603896472427,2694.56709642444
0.711588055563709,2694.57709642444
0.70593735941076,2694.58709642444
0.69946431084839,2694.59709642444
0.692747994651344,2694.60709642444
0.686133176217407,2694.61709642444
0.680190227826234,2694.62709642444
0.674688266793236,2694.63709642444
0.669258009681728,2694.64709642444
0.663866240407734,2694.65709642444
0.657939854185203,2694.66709642444
0.651594093137964,2694.67709642444
0.644905705380257,2694.68709642444
0.637712845760965,2694.69709642444
0.63013736777799,2694.70709642444
0.622474739191051,2694.71709642444
0.614758184507766,2694.72709642444
0.607617144011267,2694.73709642444
0.600346091787883,2694.74709642444
0.59311854607119,2694.75709642444
0.586040694923943,2694.76709642444
0.579037207687423,2694.77709642444
0.571490643672378,2694.78709642444
0.563671601920798,2694.79709642444
0.555792018409372,2694.80709642444
0.547974263140404,2694.81709642444
0.540010125988938,2694.82709642444
0.532590953731978,2694.83709642444
0.525050644997179,2694.84709642444
0.517349340002453,2694.85709642444
0.510291772011996,2694.86709642444
0.502963389484949,2694.87709642444
0.496040341136343,2694.88709642444
0.489138711420835,2694.89709642444
0.482023685084928,2694.90709642444
0.474908033428813,2694.91709642444
0.467280435809814,2694.92709642444
0.459243067120726,2694.93709642444
0.451262151011874,2694.94709642444
0.443170760311893,2694.95709642444
0.434948847352759,2694.96709642444
0.42627210271481,2694.97709642444
0.418165913806833,2694.98709642444
0.412709167217769,2694.99709642444
0.410965542540743,2695.00709642444
0.415639149026275,2695.01709642444
0.427717071552222,2695.02709642444
0.448144224179662,2695.03709642444
0.475086279067306,2695.04709642444
0.507053491042911,2695.05709642444
0.541416435509201,2695.06709642444
0.574732479767953,2695.07709642444
0.605666300655987,2695.08709642444
0.632003482506092,2695.09709642444
0.653448956152018,2695.10709642444
0.669108657656838,2695.11709642444
0.679458906588429,2695.12709642444
0.68508704446879,2695.13709642444
0.687512486504016,2695.14709642444
0.68757677179212,2695.15709642444
0.685941537033002,2695.16709642444
0.683658647651937,2695.17709642444
0.680306204380255,2695.18709642444
0.676159057406164,2695.19709642444
0.671193314437695,2695.20709642444
0.665577207303095,2695.21709642444
0.659857241924761,2695.22709642444
0.654046732315705,2695.23709642444
0.64850776028262,2695.24709642444
0.643158156544796,2695.25709642444
0.638356979734638,2695.26709642444
0.633503625531693,2695.27709642444
0.627983042352452,2695.28709642444
0.621697895265768,2695.29709642444
0.614498693879052,2695.30709642444
0.606195516191083,2695.31709642444
0.597682974181535,2695.32709642444
0.589863009761807,2695.33709642444
0.583677110762889,2695.34709642444
0.578981361219121,2695.35709642444
0.576206818477046,2695.36709642444
0.574615242040182,2695.37709642444
0.574750365353804,2695.38709642444
0.576453510643537,2695.39709642444
0.578779354763023,2695.40709642444
0.581861499539427,2695.41709642444
0.585045735187338,2695.42709642444
0.587931401753793,2695.43709642444
0.590544627531161,2695.44709642444
0.592177368245328,2695.45709642444
0.592253025791413,2695.46709642444
0.590348916783057,2695.47709642444
0.587189008854565,2695.48709642444
0.583054059680694,2695.49709642444
0.577588070856162,2695.50709642444
0.572082481559432,2695.51709642444
0.566466373351996,2695.52709642444
0.560929086447226,2695.53709642444
0.554758897193684,2695.54709642444
0.547601853794811,2695.55709642444
0.539963346967223,2695.56709642444
0.531763524858598,2695.57709642444
0.523781254804987,2695.58709642444
0.516138142986081,2695.59709642444
0.509546024431087,2695.60709642444
0.502983428647412,2695.61709642444
0.497347441678226,2695.62709642444
0.491946438476013,2695.63709642444
0.486468398195405,2695.64709642444
0.480435636673518,2695.65709642444
0.474176583312596,2695.66709642444
0.466558297745833,2695.67709642444
0.458476490467726,2695.68709642444
0.450551003813011,2695.69709642444
0.442902860323355,2695.70709642444
0.435158739728911,2695.71709642444
0.427999903475895,2695.72709642444
0.421279787500579,2695.73709642444
0.414915937783465,2695.74709642444
0.408190624500107,2695.75709642444
0.40144501849587,2695.76709642444
0.394252421048291,2695.77709642444
0.386408719487043,2695.78709642444
0.378930629014129,2695.79709642444
0.372012199150998,2695.80709642444
0.365441602183466,2695.81709642444
0.359100905398684,2695.82709642444
0.353098962225685,2695.83709642444
0.346744428888219,2695.84709642444
0.340102586235295,2695.85709642444
0.333133048252916,2695.86709642444
0.325794184445384,2695.87709642444
0.318413206230336,2695.88709642444
0.310746573868531,2695.89709642444
0.302550783518332,2695.90709642444
0.294633234165381,2695.91709642444
0.288023776149884,2695.92709642444
0.282659460057814,2695.93709642444
0.280240845781313,2695.94709642444
0.282494903898166,2695.95709642444
0.290112481416771,2695.96709642444
0.305071331198491,2695.97709642444
0.326542912501525,2695.98709642444
0.353719146598742,2695.99709642444
0.384362080677498,2696.00709642444
0.41553340478749,2696.01709642444
0.44445537689892,2696.02709642444
0.469479848955368,2696.03709642444
0.490001552437797,2696.04709642444
0.50514914937618,2696.05709642444
0.515644856777387,2696.06709642444
0.52255588235513,2696.07709642444
0.52645495210115,2696.08709642444
0.527451880795292,2696.09709642444
0.526545691410661,2696.10709642444
0.523769802106049,2696.11709642444
0.519757886464632,2696.12709642444
0.514868963804093,2696.13709642444
0.509835380836322,2696.14709642444
0.50492825274916,2696.15709642444
0.500779727255938,2696.16709642444
0.496469003579819,2696.17709642444
0.49206830076058,2696.18709642444
0.487899366882696,2696.19709642444
0.482975705978002,2696.20709642444
0.478253814608649,2696.21709642444
0.472807675177305,2696.22709642444
0.466695823420984,2696.23709642444
0.460195400898008,2696.24709642444
0.453639345055739,2696.25709642444
0.447406029763884,2696.26709642444
0.441763599327902,2696.27709642444
0.436782676545135,2696.28709642444
0.432884543713361,2696.29709642444
0.430519272894455,2696.30709642444
0.429564063771309,2696.31709642444
0.430340958806932,2696.32709642444
0.431801691299094,2696.33709642444
0.433751241282973,2696.34709642444
0.436657714636379,2696.35709642444
0.439840002427679,2696.36709642444
0.442990033071293,2696.37709642444
0.445581041315879,2696.38709642444
0.447572956196886,2696.39709642444
0.448187188769285,2696.40709642444
0.448043051113878,2696.41709642444
0.44650348652981,2696.42709642444
0.443435530061134,2696.43709642444
0.43940573414249,2696.44709642444
0.434853858721068,2696.45709642444
0.429865466515521,2696.46709642444
0.424854864921346,2696.47709642444
0.420428720436977,2696.48709642444
0.416556046255051,2696.49709642444
0.41295245995761,2696.50709642444
0.408925657609416,2696.51709642444
0.404262404687073,2696.52709642444
0.398980745050185,2696.53709642444
0.393210804582174,2696.54709642444
0.386919498603498,2696.55709642444
0.381230190662877,2696.56709642444
0.375453811093584,2696.57709642444
0.369663961368691,2696.58709642444
0.363150553015328,2696.59709642444
0.355969616353178,2696.60709642444
0.349281181543508,2696.61709642444
0.342602093464699,2696.62709642444
0.336125399057214,2696.63709642444
0.329420796782349,2696.64709642444
0.322972933359351,2696.65709642444
0.316952953795046,2696.66709642444
0.310872561784082,2696.67709642444
0.304826148609767,2696.68709642444
0.298371748217986,2696.69709642444
0.29174401652309,2696.70709642444
0.284789084287712,2696.71709642444
0.277768973158935,2696.72709642444
0.27042179568213,2696.73709642444
0.263551276384111,2696.74709642444
0.257432759031595,2696.75709642444
0.251877422271169,2696.76709642444
0.246283535161222,2696.77709642444
0.241058386240057,2696.78709642444
0.235313388129985,2696.79709642444
0.229294088547414,2696.80709642444
0.223630191770246,2696.81709642444
0.217081229198608,2696.82709642444
0.210225651175028,2696.83709642444
0.20319838706819,2696.84709642444
0.19639906231638,2696.85709642444
0.190376342248866,2696.86709642444
0.185032740143511,2696.87709642444
0.18158011665624,2696.88709642444
0.180862384821038,2696.89709642444
0.18382962723465,2696.90709642444
0.192656345350437,2696.91709642444
0.208303597377237,2696.92709642444
0.230477767765758,2696.93709642444
0.257766436361908,2696.94709642444
0.28756107642248,2696.95709642444
0.317802858211415,2696.96709642444
0.345580078568024,2696.97709642444
0.369599103584777,2696.98709642444
0.389111915456601,2696.99709642444
0.403591214331993,2697.00709642444
0.413597277262234,2697.01709642444
0.419660737176514,2697.02709642444
0.422997345523882,2697.03709642444
0.423538579062996,2697.04709642444
0.422433307840904,2697.05709642444
0.420188075731352,2697.06709642444
0.41686610956441,2697.07709642444
0.413771852647204,2697.08709642444
0.41061209210981,2697.09709642444
0.407674355901359,2697.10709642444
0.404767106689615,2697.11709642444
0.402056366583697,2697.12709642444
0.399463638995451,2697.13709642444
0.397045126592863,2697.14709642444
0.394327935570427,2697.15709642444
0.390570828387547,2697.16709642444
0.38557442510288,2697.17709642444
0.379599170633622,2697.18709642444
0.372792219013563,2697.19709642444
0.365932712066076,2697.20709642444
0.359815473902734,2697.21709642444
0.354840852730175,2697.22709642444
0.350527570119701,2697.23709642444
0.348022092120749,2697.24709642444
0.347015449307535,2697.25709642444
0.347612919818524,2697.26709642444
0.350291254172271,2697.27709642444
0.353354115065807,2697.28709642444
0.357217410100963,2697.29709642444
0.360930702428141,2697.30709642444
0.364893858210901,2697.31709642444
0.368626450519299,2697.32709642444
0.371810962052679,2697.33709642444
0.374010718909452,2697.34709642444
0.3755493726937,2697.35709642444
0.376158413508843,2697.36709642444
0.375351347662967,2697.37709642444
0.373923314924172,2697.38709642444
0.371450154628304,2697.39709642444
0.368602665004889,2697.40709642444
0.365052900040048,2697.41709642444
0.361118710833985,2697.42709642444
0.357082326062679,2697.43709642444
0.352908351821565,2697.44709642444
0.348904884553214,2697.45709642444
0.344848526893495,2697.46709642444
0.340482203475294,2697.47709642444
0.335859615119743,2697.48709642444
0.33076442678552,2697.49709642444
0.325667381936613,2697.50709642444
0.320607129266478,2697.51709642444
0.315340456789474,2697.52709642444
0.310164207661654,2697.53709642444
0.305244906006103,2697.54709642444
0.300159562126061,2697.55709642444
0.294630798211436,2697.56709642444
0.288550984105283,2697.57709642444
0.282158867816464,2697.58709642444
0.275729930760085,2697.59709642444
0.269317754825307,2697.60709642444
0.263048254141198,2697.61709642444
0.257186759879959,2697.62709642444
0.251159113272262,2697.63709642444
0.245336319319196,2697.64709642444
0.239479632331135,2697.65709642444
0.233490226111221,2697.66709642444
0.227396908657975,2697.67709642444
0.221770990486219,2697.68709642444
0.216289458345509,2697.69709642444
0.211020073500178,2697.70709642444
0.205820427652545,2697.71709642444
0.201182490120372,2697.72709642444
0.196307040748626,2697.73709642444
0.19102612823657,2697.74709642444
0.185487027801447,2697.75709642444
0.179983236980085,2697.76709642444
0.174166631747852,2697.77709642444
0.168595307677917,2697.78709642444
0.16303358046431,2697.79709642444
0.157571828495743,2697.80709642444
0.152283810910445,2697.81709642444
0.146800312067762,2697.82709642444
0.141804379647144,2697.83709642444
0.137569556311474,2697.84709642444
0.135255010923289,2697.85709642444
0.13672595429378,2697.86709642444
0.143803541251166,2697.87709642444
0.158351465180229,2697.88709642444
0.178960171540541,2697.89709642444
0.205680116363423,2697.90709642444
0.235643359713626,2697.91709642444
0.266018808396664,2697.92709642444
0.29555972110894,2697.93709642444
0.321971833045833,2697.94709642444
0.344349686318256,2697.95709642444
0.362027229809402,2697.96709642444
0.374638907825639,2697.97709642444
0.382764288687018,2697.98709642444
0.387162040515127,2697.99709642444
0.388568624661445,2698.00709642444
0.387389306627225,2698.01709642444
0.384669981313144,2698.02709642444
0.381505960224171,2698.03709642444
0.377308338339852,2698.04709642444
0.373101936636039,2698.05709642444
0.368852870597275,2698.06709642444
0.364233755488076,2698.07709642444
0.360467540705149,2698.08709642444
0.356600222326779,2698.09709642444
0.353047144102743,2698.10709642444
0.349773838983921,2698.11709642444
0.34581052159539,2698.12709642444
0.341292649112055,2698.13709642444
0.335715648257358,2698.14709642444
0.329364380161189,2698.15709642444
0.322505607456481,2698.16709642444
0.315993232394165,2698.17709642444
0.31033570559828,2698.18709642444
0.305791658807217,2698.19709642444
0.303278779056574,2698.20709642444
0.302068837434569,2698.21709642444
0.303351492852309,2698.22709642444
0.306330921201505,2698.23709642444
0.310670225454078,2698.24709642444
0.315407310399588,2698.25709642444
0.320710474208994,2698.26709642444
0.325972097999204,2698.27709642444
0.330435311172925,2698.28709642444
0.334817830325336,2698.29709642444
0.338232060791727,2698.30709642444
0.340166675478039,2698.31709642444
0.34074582412819,2698.32709642444
0.340106494473487,2698.33709642444
0.338102328541433,2698.34709642444
0.335377545155252,2698.35709642444
0.332245561736434,2698.36709642444
0.32875280768763,2698.37709642444
0.325218504782466,2698.38709642444
0.321231698388151,2698.39709642444
0.31740380877269,2698.40709642444
0.313450938691931,2698.41709642444
0.309580898784437,2698.42709642444
0.306132252993818,2698.43709642444
0.302517723275042,2698.44709642444
0.298027913924715,2698.45709642444
0.293500622796698,2698.46709642444
0.289342083861077,2698.47709642444
0.284853671972822,2698.48709642444
0.280411211916845,2698.49709642444
0.27572895583101,2698.50709642444
0.270943765690238,2698.51709642444
0.266176663648012,2698.52709642444
0.261487325987579,2698.53709642444
0.256699435992145,2698.54709642444
0.251799638183363,2698.55709642444
0.24701758305242,2698.56709642444
0.242524523268216,2698.57709642444
0.237686369232416,2698.58709642444
0.232903439987232,2698.59709642444
0.227834775443897,2698.60709642444
0.222818445953183,2698.61709642444
0.217880919873325,2698.62709642444
0.212324051974119,2698.63709642444
0.206946562384606,2698.64709642444
0.201651668391183,2698.65709642444
0.196168433877471,2698.66709642444
0.190864165741481,2698.67709642444
0.184889710202852,2698.68709642444
0.178831248567994,2698.69709642444
0.173177467528059,2698.70709642444
0.168197874514834,2698.71709642444
0.164446796868253,2698.72709642444
0.162575336560173,2698.73709642444
0.163903616636215,2698.74709642444
0.170132877503705,2698.75709642444
0.182808154529617,2698.76709642444
0.202402761446452,2698.77709642444
0.228781314766527,2698.78709642444
0.259345057609241,2698.79709642444
0.292202410505464,2698.80709642444
0.324489146320291,2698.81709642444
0.353857318340885,2698.82709642444
0.378548460857996,2698.83709642444
0.397718846372327,2698.84709642444
0.411663547226967,2698.85709642444
0.420560272680159,2698.86709642444
0.426385852056369,2698.87709642444
0.428922979835273,2698.88709642444
0.430062595195561,2698.89709642444
0.429808228321268,2698.90709642444
0.428213309832103,2698.91709642444
0.426397069507873,2698.92709642444
0.424166150080767,2698.93709642444
0.421667222490806,2698.94709642444
0.419102387500568,2698.95709642444
0.416474806422247,2698.96709642444
0.414259527978576,2698.97709642444
0.411903788439756,2698.98709642444
0.409006325601768,2698.99709642444
0.405311466813469,2699.00709642444
0.400836755106482,2699.01709642444
0.395750584312613,2699.02709642444
0.389653186913611,2699.03709642444
0.383234441525022,2699.04709642444
0.376689074982237,2699.05709642444
0.37064704637556,2699.06709642444
0.365154923036524,2699.07709642444
0.360827616765134,2699.08709642444
0.359230994946683,2699.09709642444
0.359773277279394,2699.10709642444
0.362001842191158,2699.11709642444
0.365960523029936,2699.12709642444
0.371347598269194,2699.13709642444
0.377560912522144,2699.14709642444
0.383668319640888,2699.15709642444
0.389276953370381,2699.16709642444
0.393625992095178,2699.17709642444
0.396245342813705,2699.18709642444
0.397466621436355,2699.19709642444
0.397434678210028,2699.20709642444
0.396451527281914,2699.21709642444
0.394485869163752,2699.22709642444
0.391772285459847,2699.23709642444
0.388344465816072,2699.24709642444
0.384575505695889,2699.25709642444
0.380485686051604,2699.26709642444
0.37662832704886,2699.27709642444
0.372410611821419,2699.28709642444
0.368430466219574,2699.29709642444
0.364178099274018,2699.30709642444
0.359946788194647,2699.31709642444
0.35622934182006,2699.32709642444
0.351955099406629,2699.33709642444
0.346888088643797,2699.34709642444
0.341893051603613,2699.35709642444
0.336633114522628,2699.36709642444
0.330855984018281,2699.37709642444
0.325819436389844,2699.38709642444
0.320261096751249,2699.39709642444
0.314336092858105,2699.40709642444
0.308245239775872,2699.41709642444
0.301748674123137,2699.42709642444
0.295550201287618,2699.43709642444
0.289341450448262,2699.44709642444
0.282757682427975,2699.45709642444
0.276740437452178,2699.46709642444
0.270354218279282,2699.47709642444
0.264460774465067,2699.48709642444
0.259126575731847,2699.49709642444
0.253069055659809,2699.50709642444
0.247284196296861,2699.51709642444
0.241645600464752,2699.52709642444
0.236661099160752,2699.53709642444
0.232156607699983,2699.54709642444
0.226962962508875,2699.55709642444
0.221634645636119,2699.56709642444
0.216224525246352,2699.57709642444
0.210758332256262,2699.58709642444
0.205116290213217,2699.59709642444
0.199254669889995,2699.60709642444
0.193220244567524,2699.61709642444
0.187553383546021,2699.62709642444
0.182865078897322,2699.63709642444
0.181241407685479,2699.64709642444
0.183619100222674,2699.65709642444
0.192721922712655,2699.66709642444
0.2099404887382,2699.67709642444
0.234663477182149,2699.68709642444
0.265865827499852,2699.69709642444
0.300882550099617,2699.70709642444
0.336458369384526,2699.71709642444
0.370781681602126,2699.72709642444
0.401913287856003,2699.73709642444
0.427912586119841,2699.74709642444
0.448381959139228,2699.75709642444
0.463563305939105,2699.76709642444
0.473856916065895,2699.77709642444
0.480112726561628,2699.78709642444
0.483130648656628,2699.79709642444
0.48427265158338,2699.80709642444
0.48335006196952,2699.81709642444
0.481409899565415,2699.82709642444
0.478842824265881,2699.83709642444
0.476276735440707,2699.84709642444
0.473193387364017,2699.85709642444
0.470740085547345,2699.86709642444
0.468363584078253,2699.87709642444
0.466202195991482,2699.88709642444
0.463766864122182,2699.89709642444
0.461328064167431,2699.90709642444
0.458107999305391,2699.91709642444
0.453882047347059,2699.92709642444
0.448686400379689,2699.93709642444
0.442835343491588,2699.94709642444
0.43716408625048,2699.95709642444
0.431480110516904,2699.96709642444
0.426886515350594,2699.97709642444
0.423552626631506,2699.98709642444
0.421478926253375,2699.99709642444
0.421135175954066,2700.00709642444
0.422255245854631,2700.01709642444
0.425284778245776,2700.02709642444
0.429602224972007,2700.03709642444
0.434527175780077,2700.04709642444
0.440181085453733,2700.05709642444
0.445602647312462,2700.06709642444
0.450545292339215,2700.07709642444
0.455013518187828,2700.08709642444
0.458251715930343,2700.09709642444
0.460256036097386,2700.10709642444
0.461309122036774,2700.11709642444
0.460597809774672,2700.12709642444
0.458960820926522,2700.13709642444
0.455896330603199,2700.14709642444
0.452343072808467,2700.15709642444
0.448627866460244,2700.16709642444
0.443979692743909,2700.17709642444
0.440223024561701,2700.18709642444
0.435321434756611,2700.19709642444
0.430204874013108,2700.20709642444
0.424941374358092,2700.21709642444
0.420010683659358,2700.22709642444
0.414792001780739,2700.23709642444
0.409100069007769,2700.24709642444
0.403504092747179,2700.25709642444
0.397653451479338,2700.26709642444
0.391963980053745,2700.27709642444
0.385927252885883,2700.28709642444
0.380083240861457,2700.29709642444
0.374331541676003,2700.30709642444
0.368842033748977,2700.31709642444
0.363304216271199,2700.32709642444
0.357143824532997,2700.33709642444
0.35084283672123,2700.34709642444
0.344212622455083,2700.35709642444
0.337384665944946,2700.36709642444
0.330210574902471,2700.37709642444
0.323643243414366,2700.38709642444
0.316796669211284,2700.39709642444
0.309562316302116,2700.40709642444
0.303468461630576,2700.41709642444
0.29753348616306,2700.42709642444
0.291789925957661,2700.43709642444
0.286529470953606,2700.44709642444
0.281248615922233,2700.45709642444
0.27615214411663,2700.46709642444
0.271066038102212,2700.47709642444
0.265828219061421,2700.48709642444
0.260185970409201,2700.49709642444
0.25428789604886,2700.50709642444
0.247937598630073,2700.51709642444
0.241134664877582,2700.52709642444
0.234208479694082,2700.53709642444
0.226724516848629,2700.54709642444
0.219596664805078,2700.55709642444
0.213042546643297,2700.56709642444
0.207012397628718,2700.57709642444
0.2025535520586,2700.58709642444
0.200911113108174,2700.59709642444
0.203859198580933,2700.60709642444
0.213958346504257,2700.61709642444
0.231703276481482,2700.62709642444
0.256957911641675,2700.63709642444
0.288371057953745,2700.64709642444
0.324300895166812,2700.65709642444
0.361969955352387,2700.66709642444
0.397722523362245,2700.67709642444
0.429500451122903,2700.68709642444
0.455977040653301,2700.69709642444
0.476726945235348,2700.70709642444
0.492208113043291,2700.71709642444
0.503229739121494,2700.72709642444
0.51045391053262,2700.73709642444
0.514488305120863,2700.74709642444
0.516292371225638,2700.75709642444
0.516378727040505,2700.76709642444
0.51451157863175,2700.77709642444
0.512179917375376,2700.78709642444
0.509799373665879,2700.79709642444
0.507484106977468,2700.80709642444
0.505342458749263,2700.81709642444
0.503259932593343,2700.82709642444
0.500875970176576,2700.83709642444
0.498283338555701,2700.84709642444
0.495406474835828,2700.85709642444
0.492656669866098,2700.86709642444
0.489209744677544,2700.87709642444
0.484944116442849,2700.88709642444
0.479897116967792,2700.89709642444
0.472989398704346,2700.90709642444
0.465046623070183,2700.91709642444
0.457370826276924,2700.92709642444
0.451012166209358,2700.93709642444
0.446535150218461,2700.94709642444
0.444939195229812,2700.95709642444
0.444893830188211,2700.96709642444
0.44662879994648,2700.97709642444
0.450383669362687,2700.98709642444
0.454925722027537,2700.99709642444
0.460095015308738,2701.00709642444
0.465390356884127,2701.01709642444
0.470847350623519,2701.02709642444
0.474892029168541,2701.03709642444
0.477867134413067,2701.04709642444
0.479522756979545,2701.05709642444
0.479464557602783,2701.06709642444
0.478654889377323,2701.07709642444
0.476338512940478,2701.08709642444
0.473286561132098,2701.09709642444
0.470085653113883,2701.10709642444
0.466465116212474,2701.11709642444
0.462369890297161,2701.12709642444
0.458235243221943,2701.13709642444
0.453639202430158,2701.14709642444
0.449187612222858,2701.15709642444
0.444404977021676,2701.16709642444
0.439516947134713,2701.17709642444
0.434393989799718,2701.18709642444
0.42856884399877,2701.19709642444
0.422286822966808,2701.20709642444
0.415854167852171,2701.21709642444
0.409201713753899,2701.22709642444
0.40299082868614,2701.23709642444
0.396555568754402,2701.24709642444
0.390015109536882,2701.25709642444
0.383797225771613,2701.26709642444
0.377567736417397,2701.27709642444
0.370725621390408,2701.28709642444
0.363891433373829,2701.29709642444
0.357235110761474,2701.30709642444
0.350999102850774,2701.31709642444
0.344615087301564,2701.32709642444
0.338470716701111,2701.33709642444
0.331846483056022,2701.34709642444
0.324809159588325,2701.35709642444
0.317900896001385,2701.36709642444
0.31141274174666,2701.37709642444
0.304703690023082,2701.38709642444
0.297847062070214,2701.39709642444
0.290908643018365,2701.40709642444
0.283380602249083,2701.41709642444
0.276259609165847,2701.42709642444
0.26930386581959,2701.43709642444
0.262651770303601,2701.44709642444
0.256592051161147,2701.45709642444
0.25092088573442,2701.46709642444
0.245952000577891,2701.47709642444
0.240861902182759,2701.48709642444
0.235889078876569,2701.49709642444
0.229924146308901,2701.50709642444
0.223855183145217,2701.51709642444
0.21721240324116,2701.52709642444
0.210017967155226,2701.53709642444
0.202436107607953,2701.54709642444
0.195134687669129,2701.55709642444
0.187839413858321,2701.56709642444
0.180944144623033,2701.57709642444
0.174637510107828,2701.58709642444
0.169678328844178,2701.59709642444
0.167828317859984,2701.60709642444
0.170630106528699,2701.61709642444
0.179647770584001,2701.62709642444
0.196563894596942,2701.63709642444
0.220907355550295,2701.64709642444
0.25067361682621,2701.65709642444
0.283406941514009,2701.66709642444
0.316815695023335,2701.67709642444
0.34782719193946,2701.68709642444
0.374794253379466,2701.69709642444
0.396955893334547,2701.70709642444
0.413896504844613,2701.71709642444
0.426008487513594,2701.72709642444
0.433000797812018,2701.73709642444
0.435688899413586,2701.74709642444
0.435326394048928,2701.75709642444
0.43317115305842,2701.76709642444
0.429236775556878,2701.77709642444
0.42532087459545,2701.78709642444
0.421148228483221,2701.79709642444
0.417171967562954,2701.80709642444
0.413444850151123,2701.81709642444
0.409944378194295,2701.82709642444
0.40678424378028,2701.83709642444
0.403363805823665,2701.84709642444
0.40015234184935,2701.85709642444
0.396852150289891,2701.86709642444
