PPG,time
0.131975034130091,1662.70008787099
0.265384654034488,1662.71008787099
0.232476606835573,1662.72008787099
0.241438368999178,1662.73008787099
0.219973981940683,1662.74008787099
0.213072323582573,1662.75008787099
0.194337277245798,1662.76008787099
0.182172700491374,1662.77008787099
0.166026033000088,1662.78008787099
0.152198786674413,1662.79008787099
0.137083311389763,1662.80008787099
0.121971313489373,1662.81008787099
0.106793087148648,1662.82008787099
0.0921575723187004,1662.83008787099
0.0778785791008793,1662.84008787099
0.0639799740913696,1662.85008787099
0.0496171838265706,1662.86008787099
0.0347426019805193,1662.87008787099
0.0197341039515155,1662.88008787099
0.00552383278533003,1662.89008787099
-0.00701919654051893,1662.90008787099
-0.0172189781958578,1662.91008787099
-0.0248977781956011,1662.92008787099
-0.0296106207256913,1662.93008787099
-0.0313952362693265,1662.94008787099
-0.0306178207659594,1662.95008787099
-0.026297027679403,1662.96008787099
-0.0189682424845843,1662.97008787099
-0.00990209941018669,1662.98008787099
0.000326459666304526,1662.99008787099
0.0108392088768313,1663.00008787099
0.0204471708685797,1663.01008787099
0.0281824278520655,1663.02008787099
0.0333631581204038,1663.03008787099
0.0362277802770591,1663.04008787099
0.0361310286344221,1663.05008787099
0.0331976366608327,1663.06008787099
0.0280745334193135,1663.07008787099
0.0213929750077921,1663.08008787099
0.0134961953956166,1663.09008787099
0.00519465008729731,1663.10008787099
-0.0034130766242548,1663.11008787099
-0.0114724342198399,1663.12008787099
-0.0198937866237831,1663.13008787099
-0.0278192267819651,1663.14008787099
-0.0357025155991563,1663.15008787099
-0.0435965436336491,1663.16008787099
-0.0516131154175357,1663.17008787099
-0.0603605631338862,1663.18008787099
-0.0691696293456049,1663.19008787099
-0.0781777322090239,1663.20008787099
-0.0871255163038001,1663.21008787099
-0.0954924131195516,1663.22008787099
-0.10354629029684,1663.23008787099
-0.111372913213918,1663.24008787099
-0.119728739308746,1663.25008787099
-0.128454025554177,1663.26008787099
-0.137066542256122,1663.27008787099
-0.145514684678943,1663.28008787099
-0.154010413716005,1663.29008787099
-0.162138018736537,1663.30008787099
-0.169799358635113,1663.31008787099
-0.177345456800163,1663.32008787099
-0.184703794716427,1663.33008787099
-0.192088415798628,1663.34008787099
-0.199087520375941,1663.35008787099
-0.205585134186222,1663.36008787099
-0.212331772859326,1663.37008787099
-0.219337609009735,1663.38008787099
-0.226233875879522,1663.39008787099
-0.233510693207545,1663.40008787099
-0.241165744965652,1663.41008787099
-0.247852292954851,1663.42008787099
-0.25395158006546,1663.43008787099
-0.259857747900673,1663.44008787099
-0.265849227245573,1663.45008787099
-0.27192391633999,1663.46008787099
-0.277873596138626,1663.47008787099
-0.284068631539115,1663.48008787099
-0.290450202731759,1663.49008787099
-0.29660689496404,1663.50008787099
-0.302734550691391,1663.51008787099
-0.3072227585032,1663.52008787099
-0.308006755840967,1663.53008787099
-0.301727993632227,1663.54008787099
-0.283280008732375,1663.55008787099
-0.247176251811998,1663.56008787099
-0.188837675141421,1663.57008787099
-0.109739495162472,1663.58008787099
-0.015391631246692,1663.59008787099
0.0843208018325145,1663.60008787099
0.178933869333795,1663.61008787099
0.259553841854127,1663.62008787099
0.321128439111046,1663.63008787099
0.363666642464006,1663.64008787099
0.388836015373486,1663.65008787099
0.401091737914321,1663.66008787099
0.403612402012826,1663.67008787099
0.400370853244935,1663.68008787099
0.393398541747693,1663.69008787099
0.383528194182595,1663.70008787099
0.371924260183937,1663.71008787099
0.359248657428604,1663.72008787099
0.345430660171167,1663.73008787099
0.332117476075871,1663.74008787099
0.31909125544817,1663.75008787099
0.306486097212995,1663.76008787099
0.295560813493646,1663.77008787099
0.285401598535432,1663.78008787099
0.275306807481065,1663.79008787099
0.265139726262878,1663.80008787099
0.25473831394033,1663.81008787099
0.243668181702621,1663.82008787099
0.231562006121807,1663.83008787099
0.219120445296134,1663.84008787099
0.206450116923221,1663.85008787099
0.193966478336472,1663.86008787099
0.183245284508844,1663.87008787099
0.174167184250792,1663.88008787099
0.167457532289052,1663.89008787099
0.16377774012449,1663.90008787099
0.162924436671691,1663.91008787099
0.16539161956756,1663.92008787099
0.170609974309282,1663.93008787099
0.178025300934427,1663.94008787099
0.186550473423915,1663.95008787099
0.195206885066849,1663.96008787099
0.202981613488356,1663.97008787099
0.209224530230564,1663.98008787099
0.212442843226906,1663.99008787099
0.212944813579606,1664.00008787099
0.211370450198987,1664.01008787099
0.207690474051811,1664.02008787099
0.202053055627252,1664.03008787099
0.194996064203857,1664.04008787099
0.186713838384718,1664.05008787099
0.177665799589032,1664.06008787099
0.168186861498704,1664.07008787099
0.157768779648433,1664.08008787099
0.146667074411634,1664.09008787099
0.135821082374888,1664.10008787099
0.125060731342995,1664.11008787099
0.114250968994949,1664.12008787099
0.103257522676986,1664.13008787099
0.0918764301135797,1664.14008787099
0.0811885567813863,1664.15008787099
0.070557734781738,1664.16008787099
0.0601276558171325,1664.17008787099
0.0502084021455949,1664.18008787099
0.0411567964701719,1664.19008787099
0.0328399040803557,1664.20008787099
0.024636734248007,1664.21008787099
0.016645058819229,1664.22008787099
0.00802745715698537,1664.23008787099
-0.000918930799887603,1664.24008787099
-0.0104193412253248,1664.25008787099
-0.0201569282925168,1664.26008787099
-0.0301084595262834,1664.27008787099
-0.0400821521320591,1664.28008787099
-0.0498514627615767,1664.29008787099
-0.0595252717924263,1664.30008787099
-0.0683209426073247,1664.31008787099
-0.0765432496737475,1664.32008787099
-0.0846370612156883,1664.33008787099
-0.0924290375240563,1664.34008787099
-0.100523339286536,1664.35008787099
-0.108818165066974,1664.36008787099
-0.11716780590249,1664.37008787099
-0.125602598630684,1664.38008787099
-0.133412886859938,1664.39008787099
-0.141014723606445,1664.40008787099
-0.148589771891516,1664.41008787099
-0.155532657177603,1664.42008787099
-0.162678137037424,1664.43008787099
-0.169968900701504,1664.44008787099
-0.176645681896839,1664.45008787099
-0.183711690644957,1664.46008787099
-0.1902168366099,1664.47008787099
-0.196752992097445,1664.48008787099
-0.203129194658879,1664.49008787099
-0.210214162743172,1664.50008787099
-0.217528191874054,1664.51008787099
-0.22512679156068,1664.52008787099
-0.23341162013128,1664.53008787099
-0.241739962925061,1664.54008787099
-0.249952697165435,1664.55008787099
-0.257556176805649,1664.56008787099
-0.264551597014,1664.57008787099
-0.271006289360463,1664.58008787099
-0.276367754617221,1664.59008787099
-0.2802946986046,1664.60008787099
-0.281084781719708,1664.61008787099
-0.276096251697841,1664.62008787099
-0.259782075596646,1664.63008787099
-0.227455448909363,1664.64008787099
-0.17413075836085,1664.65008787099
-0.0997423588123685,1664.66008787099
-0.00767623664859274,1664.67008787099
0.092175848018932,1664.68008787099
0.18833560928657,1664.69008787099
0.271566317363338,1664.70008787099
0.33592319790596,1664.71008787099
0.38006050596842,1664.72008787099
0.405992187223057,1664.73008787099
0.417972310598493,1664.74008787099
0.41994613822997,1664.75008787099
0.415877093165615,1664.76008787099
0.407186791840108,1664.77008787099
0.396004635972085,1664.78008787099
0.38232516614743,1664.79008787099
0.368212278768409,1664.80008787099
0.35358001499688,1664.81008787099
0.338843203932647,1664.82008787099
0.324289670254158,1664.83008787099
0.310239533761288,1664.84008787099
0.297146480829322,1664.85008787099
0.285288062348958,1664.86008787099
0.27387723315595,1664.87008787099
0.263308341025901,1664.88008787099
0.251691194449497,1664.89008787099
0.239637886480551,1664.90008787099
0.227110245816258,1664.91008787099
0.213804501812427,1664.92008787099
0.200819978105392,1664.93008787099
0.188414128465698,1664.94008787099
0.176971930999997,1664.95008787099
0.167450988061642,1664.96008787099
0.159555042538547,1664.97008787099
0.153786379156495,1664.98008787099
0.150770033754529,1664.99008787099
0.150744418618544,1665.00008787099
0.15354783428735,1665.01008787099
0.159441003024102,1665.02008787099
0.1675734709939,1665.03008787099
0.176405571824774,1665.04008787099
0.184825144819802,1665.05008787099
0.191810504868903,1665.06008787099
0.196677084715161,1665.07008787099
0.198325322152164,1665.08008787099
0.197380266294362,1665.09008787099
0.193836622513411,1665.10008787099
0.188206965317945,1665.11008787099
0.181308382907679,1665.12008787099
0.17384099339013,1665.13008787099
0.166260413118132,1665.14008787099
0.157771741416838,1665.15008787099
0.149093344957129,1665.16008787099
0.139208696801555,1665.17008787099
0.129264232876882,1665.18008787099
0.118613180359056,1665.19008787099
0.107666245719837,1665.20008787099
0.096210186709099,1665.21008787099
0.0843712402829247,1665.22008787099
0.0724995007259188,1665.23008787099
0.060250753630176,1665.24008787099
0.0478735016358636,1665.25008787099
0.0353651167616056,1665.26008787099
0.0233640945322221,1665.27008787099
0.0122265237339944,1665.28008787099
0.00237657549788921,1665.29008787099
-0.00701971380933563,1665.30008787099
-0.0158177641141523,1665.31008787099
-0.0242266159897188,1665.32008787099
-0.0325950619573122,1665.33008787099
-0.0414213850696529,1665.34008787099
-0.0504970208017395,1665.35008787099
-0.0598447182089602,1665.36008787099
-0.0696807844657048,1665.37008787099
-0.0794285905108117,1665.38008787099
-0.0885118841336772,1665.39008787099
-0.096890283135558,1665.40008787099
-0.105512878019304,1665.41008787099
-0.113687880215262,1665.42008787099
-0.122298240456756,1665.43008787099
-0.13089093230521,1665.44008787099
-0.139500533917639,1665.45008787099
-0.147857286307925,1665.46008787099
-0.155435756752874,1665.47008787099
-0.162876386056488,1665.48008787099
-0.170191768633386,1665.49008787099
-0.17768367281843,1665.50008787099
-0.185170145091973,1665.51008787099
-0.19247507362193,1665.52008787099
-0.199945799426351,1665.53008787099
-0.208073079864139,1665.54008787099
-0.216077608563468,1665.55008787099
-0.224419820202866,1665.56008787099
-0.231809008690076,1665.57008787099
-0.239198857248038,1665.58008787099
-0.246047289782823,1665.59008787099
-0.252728767775359,1665.60008787099
-0.259806290603138,1665.61008787099
-0.266714380864757,1665.62008787099
-0.27338821593944,1665.63008787099
-0.279965430375596,1665.64008787099
-0.286090319997688,1665.65008787099
-0.292546299160227,1665.66008787099
-0.299480778548506,1665.67008787099
-0.306268194343074,1665.68008787099
-0.313105923425411,1665.69008787099
-0.319650020871874,1665.70008787099
-0.32432414716239,1665.71008787099
-0.325142903249771,1665.72008787099
-0.319701193583576,1665.73008787099
-0.304383137283194,1665.74008787099
-0.275246281535359,1665.75008787099
-0.228396018479436,1665.76008787099
-0.164344789835383,1665.77008787099
-0.085804962578329,1665.78008787099
0.000232919305158782,1665.79008787099
0.083723413953075,1665.80008787099
0.157229477413219,1665.81008787099
0.215539197917428,1665.82008787099
0.255950421846495,1665.83008787099
0.279415679246577,1665.84008787099
0.288973886434232,1665.85008787099
0.288418774658794,1665.86008787099
0.281277198483694,1665.87008787099
0.269745755010154,1665.88008787099
0.256004008645483,1665.89008787099
0.241188229083815,1665.90008787099
0.225647803203509,1665.91008787099
0.209509779850774,1665.92008787099
0.193397398015321,1665.93008787099
0.177404363245984,1665.94008787099
0.162175744930935,1665.95008787099
0.147481577144514,1665.96008787099
0.133360146860829,1665.97008787099
0.120497984448528,1665.98008787099
0.10707527521468,1665.99008787099
0.093239972150168,1666.00008787099
0.0784006490489076,1666.01008787099
0.0631944065432718,1666.02008787099
0.0485409656702658,1666.03008787099
0.035061566417059,1666.04008787099
0.0243358786755048,1666.05008787099
0.01580952251468,1666.06008787099
0.00966483962750805,1666.07008787099
0.00717427482986006,1666.08008787099
0.0077961386271587,1666.09008787099
0.0117600309902048,1666.10008787099
0.0184401543097833,1666.11008787099
0.0274010852182383,1666.12008787099
0.0366288985436475,1666.13008787099
0.0455861568878147,1666.14008787099
0.0536493637221571,1666.15008787099
0.0593992072159749,1666.16008787099
0.0633537138982998,1666.17008787099
0.0652024155723454,1666.18008787099
0.065137422996006,1666.19008787099
0.063123318313066,1666.20008787099
0.0590680247203802,1666.21008787099
0.0530175410559735,1666.22008787099
0.0454591587117524,1666.23008787099
0.0364526237081558,1666.24008787099
0.0263525737688474,1666.25008787099
0.0165842139868215,1666.26008787099
0.00668129735606949,1666.27008787099
-0.00290118275933402,1666.28008787099
-0.0122114552475527,1666.29008787099
-0.0218098983349171,1666.30008787099
-0.0310004115444554,1666.31008787099
-0.0398755415096911,1666.32008787099
-0.048470232493755,1666.33008787099
-0.0569270807710087,1666.34008787099
-0.0653424795180254,1666.35008787099
-0.0741600760204713,1666.36008787099
-0.0826181151504607,1666.37008787099
-0.0906856039337135,1666.38008787099
-0.0988252591616265,1666.39008787099
-0.106264785532902,1666.40008787099
-0.113613939927244,1666.41008787099
-0.120949935009377,1666.42008787099
-0.128079140351935,1666.43008787099
-0.135507433779087,1666.44008787099
-0.143012620390596,1666.45008787099
-0.150847363070645,1666.46008787099
-0.158019810806906,1666.47008787099
-0.165347313407277,1666.48008787099
-0.172410942617029,1666.49008787099
-0.178957652538958,1666.50008787099
-0.185098795900442,1666.51008787099
-0.191720966717941,1666.52008787099
-0.198129975042809,1666.53008787099
-0.204549538953814,1666.54008787099
-0.211021425657372,1666.55008787099
-0.217519729883436,1666.56008787099
-0.224029764850124,1666.57008787099
-0.230580067617118,1666.58008787099
-0.23788931395452,1666.59008787099
-0.244787595919141,1666.60008787099
-0.252083384563305,1666.61008787099
-0.258761983765045,1666.62008787099
-0.264426328350023,1666.63008787099
-0.269756375130683,1666.64008787099
-0.275110065132677,1666.65008787099
-0.281493896228559,1666.66008787099
-0.288100228610382,1666.67008787099
-0.294987672770927,1666.68008787099
-0.301426398115995,1666.69008787099
-0.306299418521119,1666.70008787099
-0.307247322175958,1666.71008787099
-0.302003134528816,1666.72008787099
-0.285282807304657,1666.73008787099
-0.252157150962157,1666.74008787099
-0.198988049752973,1666.75008787099
-0.125315075713989,1666.76008787099
-0.0354668717383779,1666.77008787099
0.060782757295279,1666.78008787099
0.153510405779551,1666.79008787099
0.234059236544422,1666.80008787099
0.297023090945231,1666.81008787099
0.341046910120728,1666.82008787099
0.368608629073411,1666.83008787099
0.382171791486229,1666.84008787099
0.386515328118408,1666.85008787099
0.384079562741869,1666.86008787099
0.377491565553655,1666.87008787099
0.367844080238603,1666.88008787099
0.356424110469538,1666.89008787099
0.344139597148791,1666.90008787099
0.330910390298857,1666.91008787099
0.31790795271798,1666.92008787099
0.305745167476548,1666.93008787099
0.294140793261366,1666.94008787099
0.282594152252742,1666.95008787099
0.272058862084034,1666.96008787099
0.261978911598032,1666.97008787099
0.252306115309141,1666.98008787099
0.242496594322589,1666.99008787099
0.231705381154085,1667.00008787099
0.219613761349553,1667.01008787099
0.206572630598641,1667.02008787099
0.192974065982281,1667.03008787099
0.180085469705953,1667.04008787099
0.168538282501159,1667.05008787099
0.159051213209998,1667.06008787099
0.152268103150527,1667.07008787099
0.148280473427427,1667.08008787099
0.147004991509,1667.09008787099
0.148173317266168,1667.10008787099
0.151583724584899,1667.11008787099
0.156742448066013,1667.12008787099
0.163376321590499,1667.13008787099
0.169980191280749,1667.14008787099
0.177001963023392,1667.15008787099
0.182708716639773,1667.16008787099
0.186744096400261,1667.17008787099
0.188556354687364,1667.18008787099
0.187704870248871,1667.19008787099
0.184529936774976,1667.20008787099
0.179381254720842,1667.21008787099
0.173101857110397,1667.22008787099
0.165604992250924,1667.23008787099
0.157516253467293,1667.24008787099
0.148005677791141,1667.25008787099
0.138827668603402,1667.26008787099
0.129245028887917,1667.27008787099
0.119037473539348,1667.28008787099
0.108862536991258,1667.29008787099
0.0990131010673971,1667.30008787099
0.0893288725907591,1667.31008787099
0.0797726730217338,1667.32008787099
0.0701948766661784,1667.33008787099
0.0604102054573458,1667.34008787099
0.0505348932696659,1667.35008787099
0.0398855711800692,1667.36008787099
0.0297859190544097,1667.37008787099
0.0193230051441382,1667.38008787099
0.00897544215082654,1667.39008787099
-0.000937608158408702,1667.40008787099
-0.0107860404226307,1667.41008787099
-0.0203884785942625,1667.42008787099
-0.030043059197234,1667.43008787099
-0.0390240910862826,1667.44008787099
-0.0477299266013093,1667.45008787099
-0.0565977508029352,1667.46008787099
-0.0650038890344669,1667.47008787099
-0.0730782950446225,1667.48008787099
-0.0810924371250844,1667.49008787099
-0.0897349218376458,1667.50008787099
-0.0984673685141032,1667.51008787099
-0.107360079035408,1667.52008787099
-0.11600550579399,1667.53008787099
-0.123515958383421,1667.54008787099
-0.130565051907555,1667.55008787099
-0.137585274197705,1667.56008787099
-0.144025043053882,1667.57008787099
-0.150757046505374,1667.58008787099
-0.1578178449902,1667.59008787099
-0.165101282879162,1667.60008787099
-0.172379578227325,1667.61008787099
-0.17979299449535,1667.62008787099
-0.187271445519807,1667.63008787099
-0.194247601408994,1667.64008787099
-0.202043956275228,1667.65008787099
-0.209467373785941,1667.66008787099
-0.21655734966178,1667.67008787099
-0.223552482966519,1667.68008787099
-0.230407828046421,1667.69008787099
-0.237700984572029,1667.70008787099
-0.245250187272009,1667.71008787099
-0.252647696625618,1667.72008787099
-0.259889417889615,1667.73008787099
-0.266859952909261,1667.74008787099
-0.273217555675198,1667.75008787099
-0.278945799625809,1667.76008787099
-0.284802750634697,1667.77008787099
-0.290687796649286,1667.78008787099
-0.29707357461988,1667.79008787099
-0.303660594463595,1667.80008787099
-0.31035541407215,1667.81008787099
-0.316585418581011,1667.82008787099
-0.32204817408938,1667.83008787099
-0.325964000607182,1667.84008787099
-0.325692283348229,1667.85008787099
-0.319133465769464,1667.86008787099
-0.301158449197069,1667.87008787099
-0.267449570303797,1667.88008787099
-0.213755378939975,1667.89008787099
-0.139180758063001,1667.90008787099
-0.0483951198498807,1667.91008787099
0.0497053772492369,1667.92008787099
0.144328209548104,1667.93008787099
0.226572419131021,1667.94008787099
0.290341328265297,1667.95008787099
0.333480309097177,1667.96008787099
0.358932704681805,1667.97008787099
0.370116883148401,1667.98008787099
0.371546690420746,1667.99008787099
0.365716969814486,1668.00008787099
0.355954821949427,1668.01008787099
0.342933539326834,1668.02008787099
0.328898037060996,1668.03008787099
0.314492553606127,1668.04008787099
0.299660988006042,1668.05008787099
0.285305923036595,1668.06008787099
0.271197731151226,1668.07008787099
0.257401156193866,1668.08008787099
0.24385954208939,1668.09008787099
0.230741575685779,1668.10008787099
0.218186405692954,1668.11008787099
0.205876893312946,1668.12008787099
0.193436386224736,1668.13008787099
0.180756902524782,1668.14008787099
0.167545544438573,1668.15008787099
0.153600605427637,1668.16008787099
0.139495963018819,1668.17008787099
0.126105043422993,1668.18008787099
0.113882659888972,1668.19008787099
0.104366736018159,1668.20008787099
0.0973357736935487,1668.21008787099
0.0925547161760819,1668.22008787099
0.0906464449221044,1668.23008787099
0.0914373781289064,1668.24008787099
0.0938782309051735,1668.25008787099
0.0979845930251387,1668.26008787099
0.103391049530743,1668.27008787099
0.109482273825455,1668.28008787099
0.115795140445585,1668.29008787099
0.121823856627001,1668.30008787099
0.125330412445783,1668.31008787099
0.126784748483238,1668.32008787099
0.125470746267979,1668.33008787099
0.122173649227991,1668.34008787099
0.11719116481873,1668.35008787099
0.111097881654486,1668.36008787099
0.104298439529606,1668.37008787099
0.0963596768061195,1668.38008787099
0.0884918771019343,1668.39008787099
0.0798992525477848,1668.40008787099
0.0707361824723475,1668.41008787099
0.0613305251622502,1668.42008787099
0.0512396187546711,1668.43008787099
0.0408311628657117,1668.44008787099
0.0301727748322122,1668.45008787099
0.0197057777095518,1668.46008787099
0.0096272008386213,1668.47008787099
-0.000261030577403509,1668.48008787099
-0.0103197922822308,1668.49008787099
-0.0207726197086655,1668.50008787099
-0.0315015271745106,1668.51008787099
-0.0420449555163901,1668.52008787099
-0.0523328910222493,1668.53008787099
-0.0625556170611168,1668.54008787099
-0.0723480965285876,1668.55008787099
-0.0817290889461317,1668.56008787099
-0.0908570045461597,1668.57008787099
-0.0990043243182203,1668.58008787099
-0.106810453730094,1668.59008787099
-0.113920386118486,1668.60008787099
-0.121451941929884,1668.61008787099
-0.128793214091003,1668.62008787099
-0.135955686480478,1668.63008787099
-0.143724970972126,1668.64008787099
-0.151937049763648,1668.65008787099
-0.160424135293291,1668.66008787099
-0.169019258915921,1668.67008787099
-0.177052520344237,1668.68008787099
-0.184975731991545,1668.69008787099
-0.19242804053902,1668.70008787099
-0.200022780875059,1668.71008787099
-0.206841786473262,1668.72008787099
-0.21301106162152,1668.73008787099
-0.219152775737997,1668.74008787099
-0.225098363922994,1668.75008787099
-0.231168500877355,1668.76008787099
-0.237775234661096,1668.77008787099
-0.244421883983572,1668.78008787099
-0.251463469390468,1668.79008787099
-0.258796438463134,1668.80008787099
-0.266339531001679,1668.81008787099
-0.273793118249943,1668.82008787099
-0.281383648194149,1668.83008787099
-0.28858730290027,1668.84008787099
-0.295790501131664,1668.85008787099
-0.302563417381128,1668.86008787099
-0.308648693572815,1668.87008787099
-0.314366811930852,1668.88008787099
-0.320405385538687,1668.89008787099
-0.326161417399527,1668.90008787099
-0.331927237801936,1668.91008787099
-0.33803469354817,1668.92008787099
-0.343932492984502,1668.93008787099
-0.350418298241463,1668.94008787099
-0.357278644810633,1668.95008787099
-0.36370903959002,1668.96008787099
-0.36950915275125,1668.97008787099
-0.373145065370593,1668.98008787099
-0.373811810265368,1668.99008787099
-0.368740196666028,1669.00008787099
-0.354864031736696,1669.01008787099
-0.32852429662356,1669.02008787099
-0.286719983293223,1669.03008787099
-0.227751581400445,1669.04008787099
-0.154538134125618,1669.05008787099
-0.0725438070313818,1669.06008787099
0.00925022295619097,1669.07008787099
0.0832712080498323,1669.08008787099
0.143002064645199,1669.09008787099
0.18562073472316,1669.10008787099
0.211669233938825,1669.11008787099
0.223411292848061,1669.12008787099
0.224787644110594,1669.13008787099
0.218811448021257,1669.14008787099
0.208797500357567,1669.15008787099
0.196283242699927,1669.16008787099
0.182018229369965,1669.17008787099
0.167094030578018,1669.18008787099
0.151892488788269,1669.19008787099
0.137134047535917,1669.20008787099
0.122470039448071,1669.21008787099
0.108647954724741,1669.22008787099
0.0950899771758421,1669.23008787099
0.0818103947710273,1669.24008787099
0.0686411813282956,1669.25008787099
0.0541949827700624,1669.26008787099
0.0389518272413687,1669.27008787099
0.0231927846858699,1669.28008787099
0.00738350579038476,1669.29008787099
-0.00784226233468432,1669.30008787099
-0.0218018315027978,1669.31008787099
-0.033258043979348,1669.32008787099
-0.042405832457771,1669.33008787099
-0.0488838366886872,1669.34008787099
-0.0519228975325573,1669.35008787099
-0.0525858869861817,1669.36008787099
-0.0508968096095563,1669.37008787099
-0.0469264278855038,1669.38008787099
-0.0405803045321479,1669.39008787099
-0.0332296920271283,1669.40008787099
-0.0249672675341997,1669.41008787099
-0.0179324204393336,1669.42008787099
-0.0117836052970164,1669.43008787099
-0.00720453827332832,1669.44008787099
-0.00458865372042994,1669.45008787099
-0.00349905529067046,1669.46008787099
-0.00521047698653639,1669.47008787099
-0.00848594069010979,1669.48008787099
-0.0131712706063543,1669.49008787099
-0.0193466525648939,1669.50008787099
-0.0265291735732319,1669.51008787099
-0.035198248113107,1669.52008787099
-0.0437192311813937,1669.53008787099
-0.0522026325627478,1669.54008787099
-0.060500911338075,1669.55008787099
-0.0688380522209219,1669.56008787099
-0.0765503157931129,1669.57008787099
-0.0843801690114515,1669.58008787099
-0.0922662391347226,1669.59008787099
-0.100068080255922,1669.60008787099
-0.108114051064862,1669.61008787099
-0.116181382841881,1669.62008787099
-0.124717827152683,1669.63008787099
-0.133028087433332,1669.64008787099
-0.1412190748959,1669.65008787099
-0.149360846142312,1669.66008787099
-0.157177105074858,1669.67008787099
-0.165031121657883,1669.68008787099
-0.172336439333597,1669.69008787099
-0.179111922539775,1669.70008787099
-0.185823371613365,1669.71008787099
-0.192234360492773,1669.72008787099
-0.199261493973518,1669.73008787099
-0.206643387374723,1669.74008787099
-0.214622157852526,1669.75008787099
-0.222485094533027,1669.76008787099
-0.230469415837856,1669.77008787099
-0.238375889861672,1669.78008787099
-0.245036355534074,1669.79008787099
-0.251511850275137,1669.80008787099
-0.257596158366747,1669.81008787099
-0.263382590037974,1669.82008787099
-0.269166914260593,1669.83008787099
-0.275065476571373,1669.84008787099
-0.281069804805724,1669.85008787099
-0.286770964233768,1669.86008787099
-0.292857860499589,1669.87008787099
-0.298612242886967,1669.88008787099
-0.304545059281426,1669.89008787099
-0.310349658832018,1669.90008787099
-0.316598276539037,1669.91008787099
-0.322500096710961,1669.92008787099
-0.328166611081384,1669.93008787099
-0.333946279639234,1669.94008787099
-0.339594524629332,1669.95008787099
-0.345131348248976,1669.96008787099
-0.351050607948308,1669.97008787099
-0.355745905353183,1669.98008787099
-0.357385584901296,1669.99008787099
-0.353462312373088,1670.00008787099
-0.340385920315658,1670.01008787099
-0.31395737248599,1670.02008787099
-0.269835056992069,1670.03008787099
-0.206568493748412,1670.04008787099
-0.126485959184003,1670.05008787099
-0.0361670680920431,1670.06008787099
0.0552972276033168,1670.07008787099
0.137811440647319,1670.08008787099
0.205064430233279,1670.09008787099
0.254438090039463,1670.10008787099
0.285973771581678,1670.11008787099
0.303051327427283,1670.12008787099
0.308683446120051,1670.13008787099
0.306845468968569,1670.14008787099
0.29999912633897,1670.15008787099
0.289850264991351,1670.16008787099
0.277995460425904,1670.17008787099
0.264968943432813,1670.18008787099
0.251757003697197,1670.19008787099
0.23911318852434,1670.20008787099
0.226327789188507,1670.21008787099
0.214266109746038,1670.22008787099
0.202827207053553,1670.23008787099
0.191288211042179,1670.24008787099
0.180609308306298,1670.25008787099
0.169916250034709,1670.26008787099
0.158802244361953,1670.27008787099
0.147262317012465,1670.28008787099
0.135003755330529,1670.29008787099
0.121875541429247,1670.30008787099
0.108509480796889,1670.31008787099
0.0957157969621206,1670.32008787099
0.0848275435760981,1670.33008787099
0.075531073009738,1670.34008787099
0.0681840109392426,1670.35008787099
0.0623517150893416,1670.36008787099
0.0589443056104935,1670.37008787099
0.0577929784999468,1670.38008787099
0.0590259281015546,1670.39008787099
0.0627747430652279,1670.40008787099
0.0680795833010394,1670.41008787099
0.0741665396656665,1670.42008787099
0.0801114179353075,1670.43008787099
0.0848586079208282,1670.44008787099
0.0888060413992973,1670.45008787099
0.0911000495350826,1670.46008787099
0.0917585567340418,1670.47008787099
0.0907001305403658,1670.48008787099
0.0876016061942443,1670.49008787099
0.0827638950481618,1670.50008787099
0.0768222823631134,1670.51008787099
0.0691088362809362,1670.52008787099
0.0611898667473842,1670.53008787099
0.0526426387693648,1670.54008787099
0.0438744618883246,1670.55008787099
0.0344382096660948,1670.56008787099
0.0248115306461635,1670.57008787099
0.0150655099470915,1670.58008787099
0.00519604730921908,1670.59008787099
-0.00389293408633115,1670.60008787099
-0.0126176691747132,1670.61008787099
-0.021131305026768,1670.62008787099
-0.0297828928064405,1670.63008787099
-0.0377659809077956,1670.64008787099
-0.0460867756592317,1670.65008787099
-0.0542879684376586,1670.66008787099
-0.0633106572242898,1670.67008787099
-0.0723605733004081,1670.68008787099
-0.0809885744296138,1670.69008787099
-0.0900222379959481,1670.70008787099
-0.0981234813587654,1670.71008787099
-0.105954768116297,1670.72008787099
-0.113818813094269,1670.73008787099
-0.12093191091472,1670.74008787099
-0.128275747089664,1670.75008787099
-0.135882884115167,1670.76008787099
-0.143838889139178,1670.77008787099
-0.151445026814936,1670.78008787099
-0.158723130982571,1670.79008787099
-0.165291627929543,1670.80008787099
-0.172136295049389,1670.81008787099
-0.179312084574589,1670.82008787099
-0.186492050311065,1670.83008787099
-0.194001748238995,1670.84008787099
-0.201759478708007,1670.85008787099
-0.208495742594876,1670.86008787099
-0.214856036244264,1670.87008787099
-0.221454997055177,1670.88008787099
-0.227648505794109,1670.89008787099
-0.234478052614749,1670.90008787099
-0.241201595623748,1670.91008787099
-0.248042420606033,1670.92008787099
-0.254535834060817,1670.93008787099
-0.260852913228679,1670.94008787099
-0.266970354429339,1670.95008787099
-0.273562582611086,1670.96008787099
-0.280161140404146,1670.97008787099
-0.286581844496168,1670.98008787099
-0.293038489973663,1670.99008787099
-0.299754856567679,1671.00008787099
-0.306871844544159,1671.01008787099
-0.314244568310461,1671.02008787099
-0.321488145814243,1671.03008787099
-0.328573552649671,1671.04008787099
-0.334879135509989,1671.05008787099
-0.341182082491852,1671.06008787099
-0.347211326264966,1671.07008787099
-0.35366856829672,1671.08008787099
-0.360134169714203,1671.09008787099
-0.366325281044877,1671.10008787099
-0.371926661870313,1671.11008787099
-0.376398200539568,1671.12008787099
-0.380086510522297,1671.13008787099
-0.380803541702033,1671.14008787099
-0.376629484962711,1671.15008787099
-0.364478292671844,1671.16008787099
-0.339667953205709,1671.17008787099
-0.298006278685401,1671.18008787099
-0.237925167281775,1671.19008787099
-0.161136969312767,1671.20008787099
-0.0740506518590236,1671.21008787099
0.0147715075062298,1671.22008787099
0.0960149735107176,1671.23008787099
0.162547401424578,1671.24008787099
0.210513717496935,1671.25008787099
0.240089137020331,1671.26008787099
0.253716946214029,1671.27008787099
0.255687615383155,1671.28008787099
0.250075169346911,1671.29008787099
0.240044412406805,1671.30008787099
0.22745377711027,1671.31008787099
0.213416889403722,1671.32008787099
0.198546425358202,1671.33008787099
0.1831089169804,1671.34008787099
0.167340327993146,1671.35008787099
0.152156839412517,1671.36008787099
0.137690039819474,1671.37008787099
0.12410028258915,1671.38008787099
0.110999975872302,1671.39008787099
0.098370243287182,1671.40008787099
0.0854933270301391,1671.41008787099
0.0725072396925534,1671.42008787099
0.0591125610768561,1671.43008787099
0.045485656382991,1671.44008787099
0.0315186389816943,1671.45008787099
0.0177281112193906,1671.46008787099
0.0052300520736908,1671.47008787099
-0.00582299384453566,1671.48008787099
-0.0155191522002945,1671.49008787099
-0.0233066144440562,1671.50008787099
-0.0295398810250903,1671.51008787099
-0.0331170176545136,1671.52008787099
-0.0336784081742061,1671.53008787099
-0.031536087000428,1671.54008787099
-0.0275232144557251,1671.55008787099
-0.022104775782132,1671.56008787099
-0.016310545008948,1671.57008787099
-0.0104642983493436,1671.58008787099
-0.00555032880007789,1671.59008787099
-0.00146830679274118,1671.60008787099
0.000936903116029439,1671.61008787099
0.00189206939269918,1671.62008787099
0.00188399316979252,1671.63008787099
-0.000190810472633502,1671.64008787099
-0.0037522520195914,1671.65008787099
-0.00868069404666835,1671.66008787099
-0.0150027873386152,1671.67008787099
-0.0217343586651736,1671.68008787099
-0.0287480553536031,1671.69008787099
-0.0360742021834157,1671.70008787099
-0.0436875010112819,1671.71008787099
-0.051891033649724,1671.72008787099
-0.060408064204952,1671.73008787099
-0.0695195079662821,1671.74008787099
-0.0792177137275977,1671.75008787099
-0.0888279767876844,1671.76008787099
-0.0985349498587801,1671.77008787099
-0.108311066124046,1671.78008787099
-0.118319966364309,1671.79008787099
-0.127796494480016,1671.80008787099
-0.137025835966102,1671.81008787099
-0.146047147109586,1671.82008787099
-0.154740494078989,1671.83008787099
-0.162864887527802,1671.84008787099
-0.170662842649397,1671.85008787099
-0.178441658218997,1671.86008787099
-0.185498844773188,1671.87008787099
-0.193007047732721,1671.88008787099
-0.200320777634484,1671.89008787099
-0.20689463409583,1671.90008787099
-0.213174982703269,1671.91008787099
-0.219219556213025,1671.92008787099
-0.224969255137616,1671.93008787099
-0.229866203933053,1671.94008787099
-0.235257623041204,1671.95008787099
-0.240387104478909,1671.96008787099
-0.245714542744494,1671.97008787099
-0.251093552528242,1671.98008787099
-0.257203702360669,1671.99008787099
-0.263279009578864,1672.00008787099
-0.269465764616068,1672.01008787099
-0.275296522967109,1672.02008787099
-0.280239023835808,1672.03008787099
-0.284730351515267,1672.04008787099
-0.289398681037398,1672.05008787099
-0.293744835398703,1672.06008787099
-0.29780585935919,1672.07008787099
-0.302622368638368,1672.08008787099
-0.307424175480725,1672.09008787099
-0.312574136774381,1672.10008787099
-0.317824220899131,1672.11008787099
-0.322676076951661,1672.12008787099
-0.328151561520101,1672.13008787099
-0.334180227346467,1672.14008787099
-0.340132708469649,1672.15008787099
-0.345395003512974,1672.16008787099
-0.349338889262957,1672.17008787099
-0.349449958243955,1672.18008787099
-0.342749577876588,1672.19008787099
-0.326200904727678,1672.20008787099
-0.296609824384666,1672.21008787099
-0.251097211813402,1672.22008787099
-0.19010855750836,1672.23008787099
-0.116882515104043,1672.24008787099
-0.0368020861077141,1672.25008787099
0.0425800212195593,1672.26008787099
0.113210318591905,1672.27008787099
0.17038734787324,1672.28008787099
0.211516872394217,1672.29008787099
0.236571679928678,1672.30008787099
0.247838415829465,1672.31008787099
0.249144620143721,1672.32008787099
0.243931197157902,1672.33008787099
0.234631300359492,1672.34008787099
0.222996737266706,1672.35008787099
0.210856459525543,1672.36008787099
0.197852230665407,1672.37008787099
0.183998101788774,1672.38008787099
0.170502588960049,1672.39008787099
0.156528858570238,1672.40008787099
0.142817525435477,1672.41008787099
0.129710730561291,1672.42008787099
0.116326755742778,1672.43008787099
0.103620862154646,1672.44008787099
0.090045723685027,1672.45008787099
0.0760431659393878,1672.46008787099
0.0612975780976433,1672.47008787099
0.0457471161215616,1672.48008787099
0.0309181785500208,1672.49008787099
0.0170566052855439,1672.50008787099
0.00496772707296886,1672.51008787099
-0.00457461959220493,1672.52008787099
-0.0117544044810509,1672.53008787099
-0.0166806575096336,1672.54008787099
-0.0184400202450986,1672.55008787099
-0.0174266476144675,1672.56008787099
-0.0143725255487951,1672.57008787099
-0.00916121922739874,1672.58008787099
-0.00276747569354978,1672.59008787099
0.00410449266863381,1672.60008787099
0.0103327529365724,1672.61008787099
0.0154954603236663,1672.62008787099
0.01860647017906,1672.63008787099
0.0194777472861118,1672.64008787099
0.0183815924857049,1672.65008787099
0.0157152927195136,1672.66008787099
0.0116010158147844,1672.67008787099
0.00702894273501721,1672.68008787099
0.00127799916227212,1672.69008787099
-0.00528789423107494,1672.70008787099
-0.0121878195091859,1672.71008787099
-0.019892632350531,1672.72008787099
-0.027940942351031,1672.73008787099
-0.0364785388574102,1672.74008787099
-0.0452363660333541,1672.75008787099
-0.0533544907674833,1672.76008787099
-0.0612774727460177,1672.77008787099
-0.0687845030274726,1672.78008787099
-0.0757464212955254,1672.79008787099
-0.0828843138158712,1672.80008787099
-0.0903010075642631,1672.81008787099
-0.0982279602064575,1672.82008787099
-0.106277207617466,1672.83008787099
-0.115017722446267,1672.84008787099
-0.123617034707515,1672.85008787099
-0.131491979757282,1672.86008787099
-0.139042469244418,1672.87008787099
-0.1459112029397,1672.88008787099
-0.152232764181204,1672.89008787099
-0.158761140711226,1672.90008787099
-0.164985422121384,1672.91008787099
-0.171419641018368,1672.92008787099
-0.177031810936318,1672.93008787099
-0.182636765770086,1672.94008787099
-0.18847303540976,1672.95008787099
-0.194352155370303,1672.96008787099
-0.200470450087389,1672.97008787099
-0.206805309921733,1672.98008787099
-0.213500243903,1672.99008787099
-0.220636125146458,1673.00008787099
-0.227574631705251,1673.01008787099
-0.234050110428947,1673.02008787099
-0.240449330873765,1673.03008787099
-0.246661383339413,1673.04008787099
-0.252588566782102,1673.05008787099
-0.258400306951195,1673.06008787099
-0.263977160118526,1673.07008787099
-0.269421455644134,1673.08008787099
-0.274778344186108,1673.09008787099
-0.280368310197188,1673.10008787099
-0.285895445533991,1673.11008787099
-0.291394196093494,1673.12008787099
-0.297123111606031,1673.13008787099
-0.303177257034019,1673.14008787099
-0.309235948421861,1673.15008787099
-0.315013566890253,1673.16008787099
-0.319903586992308,1673.17008787099
-0.322722538225034,1673.18008787099
-0.320678845786932,1673.19008787099
-0.310815356052829,1673.20008787099
-0.288721800647725,1673.21008787099
-0.249345857029952,1673.22008787099
-0.19111693075361,1673.23008787099
-0.115654937864324,1673.24008787099
-0.028446387659212,1673.25008787099
0.0612185434566948,1673.26008787099
0.144348450994882,1673.27008787099
0.21441550692703,1673.28008787099
0.266293302609441,1673.29008787099
0.300880177511866,1673.30008787099
0.320443873705658,1673.31008787099
0.327927418497922,1673.32008787099
0.326850244882202,1673.33008787099
0.320201515240143,1673.34008787099
0.310160773790485,1673.35008787099
0.298336937450194,1673.36008787099
0.285745836823375,1673.37008787099
0.272788678802688,1673.38008787099
0.260139660383924,1673.39008787099
0.247632544311627,1673.40008787099
0.235339499927356,1673.41008787099
0.224047063418116,1673.42008787099
0.213070122452276,1673.43008787099
0.202592677495888,1673.44008787099
0.192338784211723,1673.45008787099
0.181641217093576,1673.46008787099
0.171226719844718,1673.47008787099
0.159553050728193,1673.48008787099
0.14752962548058,1673.49008787099
0.135827593304091,1673.50008787099
0.124195712512527,1673.51008787099
0.113259209614647,1673.52008787099
0.103748534166507,1673.53008787099
0.0952604584395317,1673.54008787099
0.0889058853246538,1673.55008787099
0.0848755870521646,1673.56008787099
0.0838801299732405,1673.57008787099
0.0854915855061756,1673.58008787099
0.0899204935844496,1673.59008787099
0.0953983415293934,1673.60008787099
0.101207256223043,1673.61008787099
0.107166086723484,1673.62008787099
0.11182522878599,1673.63008787099
0.115576491893173,1673.64008787099
0.117705964809895,1673.65008787099
0.118015359966853,1673.66008787099
0.116304221397343,1673.67008787099
0.112362675134388,1673.68008787099
0.107345247034839,1673.69008787099
0.101253334329783,1673.70008787099
0.0944612811377844,1673.71008787099
0.0875951129034378,1673.72008787099
0.080599890425107,1673.73008787099
0.0736631075743513,1673.74008787099
0.066510902591751,1673.75008787099
0.0583562264146858,1673.76008787099
0.0503468850378663,1673.77008787099
0.0419538128995532,1673.78008787099
0.0332256785929013,1673.79008787099
0.0246865231914033,1673.80008787099
0.0157392101174941,1673.81008787099
0.00677683455196844,1673.82008787099
-0.00255722314760911,1673.83008787099
-0.0115800711224444,1673.84008787099
-0.0209076972071051,1673.85008787099
-0.0296444929644915,1673.86008787099
-0.0374391872746178,1673.87008787099
-0.0448904995365726,1673.88008787099
-0.0519861586624952,1673.89008787099
-0.0593985160253487,1673.90008787099
-0.0665445986220732,1673.91008787099
-0.0738676727142683,1673.92008787099
-0.0811475142050567,1673.93008787099
-0.0881913591640359,1673.94008787099
-0.0948847283092189,1673.95008787099
-0.101328284769101,1673.96008787099
-0.108090971778746,1673.97008787099
-0.115266520680793,1673.98008787099
-0.12291112437513,1673.99008787099
-0.129943804637425,1674.00008787099
-0.137357235165159,1674.01008787099
-0.144494156330368,1674.02008787099
-0.15114144487719,1674.03008787099
-0.157303061651783,1674.04008787099
-0.163710674004915,1674.05008787099
-0.16987230151785,1674.06008787099
-0.17625120479943,1674.07008787099
-0.182538502108386,1674.08008787099
-0.189158650862095,1674.09008787099
-0.194989307333,1674.10008787099
-0.200927670416806,1674.11008787099
-0.206732591553776,1674.12008787099
-0.212574440882603,1674.13008787099
-0.218850874272379,1674.14008787099
-0.22473282665033,1674.15008787099
-0.231256095147232,1674.16008787099
-0.237851164475368,1674.17008787099
-0.244149428168499,1674.18008787099
-0.250628676867205,1674.19008787099
-0.2570995702084,1674.20008787099
-0.263296953296551,1674.21008787099
-0.269600654338116,1674.22008787099
-0.276380072800957,1674.23008787099
-0.283035820261758,1674.24008787099
-0.289684880491549,1674.25008787099
-0.295585084504736,1674.26008787099
-0.300143276502499,1674.27008787099
-0.303052527423959,1674.28008787099
-0.301115992149132,1674.29008787099
-0.292033066085136,1674.30008787099
-0.271661646755174,1674.31008787099
-0.236198647752465,1674.32008787099
-0.183356120224992,1674.33008787099
-0.114150251724938,1674.34008787099
-0.0329152474689851,1674.35008787099
0.0529215612872943,1674.36008787099
0.134584747665545,1674.37008787099
0.205025951386365,1674.38008787099
0.25872256629371,1674.39008787099
0.294227383717097,1674.40008787099
0.314056456900287,1674.41008787099
0.320670340694983,1674.42008787099
0.318165994399628,1674.43008787099
0.310452031137754,1674.44008787099
0.29926576916377,1674.45008787099
0.286893779958031,1674.46008787099
0.273836659032096,1674.47008787099
0.260715834065514,1674.48008787099
0.247637433913515,1674.49008787099
0.234478848998726,1674.50008787099
0.221552644988815,1674.51008787099
0.208749172380102,1674.52008787099
0.196533113382203,1674.53008787099
0.184581664536492,1674.54008787099
0.172365398509222,1674.55008787099
0.160397477292288,1674.56008787099
0.147699009124092,1674.57008787099
0.135062040526461,1674.58008787099
0.121358838168241,1674.59008787099
0.10864386662148,1674.60008787099
0.096219782766385,1674.61008787099
0.0845396309614013,1674.62008787099
0.0748419487111017,1674.63008787099
0.0671312940372688,1674.64008787099
0.0621780016235166,1674.65008787099
0.0599380627986721,1674.66008787099
0.0608201074164562,1674.67008787099
0.0641097806901027,1674.68008787099
0.0694027636845062,1674.69008787099
0.0763620618560241,1674.70008787099
0.0834333710411541,1674.71008787099
0.0898053991218139,1674.72008787099
0.095636625892406,1674.73008787099
0.0994926901230594,1674.74008787099
0.101604212550741,1674.75008787099
0.101615405208159,1674.76008787099
0.0999225229296411,1674.77008787099
0.0963521169379027,1674.78008787099
0.0912178046969169,1674.79008787099
0.0851178308211295,1674.80008787099
0.0787742906118264,1674.81008787099
0.0720069538238412,1674.82008787099
0.0647794685397985,1674.83008787099
0.0570557808300004,1674.84008787099
0.0485454085319911,1674.85008787099
0.0403290412976044,1674.86008787099
0.0314432844620496,1674.87008787099
0.0218085285075366,1674.88008787099
0.0122455623467808,1674.89008787099
0.00288438146726325,1674.90008787099
-0.00640781981005768,1674.91008787099
-0.0146573663152291,1674.92008787099
-0.0228962264547881,1674.93008787099
-0.0313456056241038,1674.94008787099
-0.0386142364647483,1674.95008787099
-0.0462301368142489,1674.96008787099
-0.0533346564315933,1674.97008787099
-0.0600676137408932,1674.98008787099
-0.0666230025514308,1674.99008787099
-0.0730860317405201,1675.00008787099
-0.0798094229520152,1675.01008787099
-0.0871208682879221,1675.02008787099
-0.0949390111503257,1675.03008787099
-0.102451151129536,1675.04008787099
-0.109864352470351,1675.05008787099
-0.117274704906917,1675.06008787099
-0.124241127357752,1675.07008787099
-0.130782278324152,1675.08008787099
-0.137477243129112,1675.09008787099
-0.14438547218808,1675.10008787099
-0.150743250072762,1675.11008787099
-0.156835776615555,1675.12008787099
-0.162657179378124,1675.13008787099
-0.168489265373458,1675.14008787099
-0.174574508749073,1675.15008787099
-0.180218452624768,1675.16008787099
-0.186175209165247,1675.17008787099
-0.192009171657523,1675.18008787099
-0.197803855400101,1675.19008787099
-0.204164157673813,1675.20008787099
-0.21013473788471,1675.21008787099
-0.216185593824635,1675.22008787099
-0.222207134399554,1675.23008787099
-0.227928307022078,1675.24008787099
-0.233365877764562,1675.25008787099
-0.237113442950774,1675.26008787099
-0.237008500470362,1675.27008787099
-0.230966855940422,1675.28008787099
-0.214403332880662,1675.29008787099
-0.184514564106533,1675.30008787099
-0.138278805138667,1675.31008787099
-0.0756609537395575,1675.32008787099
3.00602935087529e-05,1675.33008787099
0.0816022842016233,1675.34008787099
0.161566884952711,1675.35008787099
0.232034638823084,1675.36008787099
0.286948531970926,1675.37008787099
0.325588091605228,1675.38008787099
0.348031230393005,1675.39008787099
0.358162963438746,1675.40008787099
0.358846897368233,1675.41008787099
0.353280466673729,1675.42008787099
0.344001586257641,1675.43008787099
0.331966184505051,1675.44008787099
0.318907675171529,1675.45008787099
0.305335678755941,1675.46008787099
0.292391845825468,1675.47008787099
0.279883489848501,1675.48008787099
0.267639013023234,1675.49008787099
0.255959083101813,1675.50008787099
0.244257005087774,1675.51008787099
0.231738975193503,1675.52008787099
0.218780176493219,1675.53008787099
0.205157178842832,1675.54008787099
0.190922843508674,1675.55008787099
0.176526546921201,1675.56008787099
0.161712794018024,1675.57008787099
0.147551928376777,1675.58008787099
0.13449820443797,1675.59008787099
0.123409702302685,1675.60008787099
0.114918086046523,1675.61008787099
0.109347293549393,1675.62008787099
0.106774511351486,1675.63008787099
0.106511038396725,1675.64008787099
0.10865717702047,1675.65008787099
0.112633099794644,1675.66008787099
0.118628015091529,1675.67008787099
0.125376994911996,1675.68008787099
0.132140688877693,1675.69008787099
0.138428326365568,1675.70008787099
0.143324049823388,1675.71008787099
0.146579387953239,1675.72008787099
0.147504187700201,1675.73008787099
0.145425027669603,1675.74008787099
0.141513688134368,1675.75008787099
0.135654558261067,1675.76008787099
0.129102427153194,1675.77008787099
0.122061505201363,1675.78008787099
0.114854664378619,1675.79008787099
0.10742727418634,1675.80008787099
0.0991315579370498,1675.81008787099
0.0906623694824084,1675.82008787099
0.0820814173808271,1675.83008787099
0.0738304791456086,1675.84008787099
0.0655773772335677,1675.85008787099
0.0571496966914115,1675.86008787099
0.0492241542819086,1675.87008787099
0.0411825751381205,1675.88008787099
0.032956828733123,1675.89008787099
0.0248760738626077,1675.90008787099
0.016931668370033,1675.91008787099
0.00944976832675354,1675.92008787099
0.00203127329672215,1675.93008787099
-0.00528176888799062,1675.94008787099
-0.0123803955735042,1675.95008787099
-0.0194997489671346,1675.96008787099
-0.0271692203547029,1675.97008787099
-0.0350486742563852,1675.98008787099
-0.043924723228547,1675.99008787099
-0.0525745633203723,1676.00008787099
-0.0611917071804819,1676.01008787099
-0.0689596235561542,1676.02008787099
-0.0764725540895134,1676.03008787099
-0.0837699633185324,1676.04008787099
-0.0908934172745108,1676.05008787099
-0.0982236790271866,1676.06008787099
-0.105077474848543,1676.07008787099
-0.112086390525354,1676.08008787099
-0.118725552326987,1676.09008787099
-0.124970434798644,1676.10008787099
-0.131432309816274,1676.11008787099
-0.138248873750915,1676.12008787099
-0.145527107863402,1676.13008787099
-0.152693176015496,1676.14008787099
-0.159429242244586,1676.15008787099
-0.16587855902725,1676.16008787099
-0.17146967846737,1676.17008787099
-0.176922848864838,1676.18008787099
-0.181994937555035,1676.19008787099
-0.1877427627043,1676.20008787099
-0.193585302706749,1676.21008787099
-0.19960708138651,1676.22008787099
-0.205853094218203,1676.23008787099
-0.212782847757045,1676.24008787099
-0.219433392852194,1676.25008787099
-0.225986951457757,1676.26008787099
-0.232041137367181,1676.27008787099
-0.237386076628452,1676.28008787099
-0.240256096613519,1676.29008787099
-0.238576929641101,1676.30008787099
-0.227816305303535,1676.31008787099
-0.203972821237832,1676.32008787099
-0.163189034405072,1676.33008787099
-0.102933661628981,1676.34008787099
-0.0247236607613326,1676.35008787099
0.0653343340045412,1676.36008787099
0.158135690079058,1676.37008787099
0.244038150905507,1676.38008787099
0.315603392422174,1676.39008787099
0.368868059579085,1676.40008787099
0.404177552177703,1676.41008787099
0.423736821078367,1676.42008787099
0.431467700477865,1676.43008787099
0.430509789763741,1676.44008787099
0.424424693593377,1676.45008787099
0.415902650167236,1676.46008787099
0.405463077792327,1676.47008787099
0.394934848215985,1676.48008787099
0.383583350070644,1676.49008787099
0.372327230824621,1676.50008787099
0.360472489469758,1676.51008787099
0.34831420676769,1676.52008787099
0.336833662928887,1676.53008787099
0.325898313976818,1676.54008787099
0.315924635243723,1676.55008787099
0.30647446572242,1676.56008787099
0.297836386377249,1676.57008787099
0.288085042821522,1676.58008787099
0.27738332874969,1676.59008787099
0.26521429947202,1676.60008787099
0.252072341657399,1676.61008787099
0.23827325255177,1676.62008787099
0.225547372872717,1676.63008787099
0.214935366983851,1676.64008787099
0.207245800721988,1676.65008787099
0.202892274096603,1676.66008787099
0.201079888045592,1676.67008787099
0.201705693993262,1676.68008787099
0.204228120379474,1676.69008787099
0.208525303780183,1676.70008787099
0.214007687403626,1676.71008787099
0.220648926394776,1676.72008787099
0.22696236712888,1676.73008787099
0.233084371029169,1676.74008787099
0.237474428202459,1676.75008787099
0.240274419027976,1676.76008787099
0.241133670877868,1676.77008787099
0.239522307499712,1676.78008787099
0.235947808314803,1676.79008787099
0.230209297976003,1676.80008787099
0.223404448337734,1676.81008787099
0.215970386119156,1676.82008787099
0.207746514632511,1676.83008787099
0.198813622518085,1676.84008787099
0.189722834795799,1676.85008787099
0.180429860905935,1676.86008787099
0.170245093762209,1676.87008787099
0.159872612296736,1676.88008787099
0.149162923999437,1676.89008787099
0.13847646012729,1676.90008787099
0.127302167460936,1676.91008787099
0.116646684996343,1676.92008787099
0.106162253106504,1676.93008787099
0.0961135013414848,1676.94008787099
0.0861237911339433,1676.95008787099
0.0772541118571643,1676.96008787099
0.0683260352335046,1676.97008787099
0.0594095863296768,1676.98008787099
0.0511134373392375,1676.99008787099
0.0422995371340581,1677.00008787099
0.033420323464638,1677.01008787099
0.0244002016627005,1677.02008787099
0.0155612431505637,1677.03008787099
0.00692629243606954,1677.04008787099
-0.00125776604778092,1677.05008787099
-0.00865016391200992,1677.06008787099
-0.0164073549952168,1677.07008787099
-0.0239015171380245,1677.08008787099
-0.0315745719160556,1677.09008787099
-0.0392030409836391,1677.10008787099
-0.0470148376505587,1677.11008787099
-0.0550619467597346,1677.12008787099
-0.0628657396573459,1677.13008787099
-0.0700956287801998,1677.14008787099
-0.0774352207621251,1677.15008787099
-0.0841182873229896,1677.16008787099
-0.0911993138093612,1677.17008787099
-0.0983748382266055,1677.18008787099
-0.105514273733971,1677.19008787099
-0.112711972791406,1677.20008787099
-0.119576083008701,1677.21008787099
-0.126030041421742,1677.22008787099
-0.13221636621335,1677.23008787099
-0.139062410396189,1677.24008787099
-0.145444950064824,1677.25008787099
-0.151241427421905,1677.26008787099
-0.153798884417218,1677.27008787099
-0.150590134439086,1677.28008787099
-0.137472740906355,1677.29008787099
-0.109659653298174,1677.30008787099
-0.0641278337707166,1677.31008787099
1.95016429098949e-06,1677.32008787099
0.0780247346055206,1677.33008787099
0.163462949667876,1677.34008787099
0.246878900284967,1677.35008787099
0.320309606497754,1677.36008787099
0.37813283126635,1677.37008787099
0.418165364112035,1677.38008787099
0.441977039793271,1677.39008787099
0.452660930615781,1677.40008787099
0.453301331437542,1677.41008787099
0.447677046020106,1677.42008787099
0.438206932040394,1677.43008787099
0.426739280003164,1677.44008787099
0.413837363162101,1677.45008787099
0.4001817670174,1677.46008787099
0.386414117530496,1677.47008787099
0.372152995103144,1677.48008787099
0.358562724799164,1677.49008787099
0.345077815022176,1677.50008787099
0.332283805811901,1677.51008787099
0.319477354963003,1677.52008787099
0.307207012354727,1677.53008787099
0.294533350063527,1677.54008787099
0.281047898459011,1677.55008787099
0.267259621866854,1677.56008787099
0.252438200685482,1677.57008787099
0.237361756507065,1677.58008787099
0.222385432686734,1677.59008787099
0.209148373712291,1677.60008787099
0.1986120109427,1677.61008787099
0.190476518030722,1677.62008787099
0.185773945450263,1677.63008787099
0.184012808148822,1677.64008787099
0.185481807435032,1677.65008787099
0.189599643384427,1677.66008787099
0.195620842062554,1677.67008787099
0.202774084400476,1677.68008787099
0.210375187334922,1677.69008787099
0.217359455763458,1677.70008787099
0.222929551244871,1677.71008787099
0.226859552898212,1677.72008787099
0.228261832655356,1677.73008787099
0.227771296638839,1677.74008787099
0.224893637333077,1677.75008787099
0.220762619041748,1677.76008787099
0.215086384025458,1677.77008787099
0.208480767880102,1677.78008787099
0.200753411634156,1677.79008787099
0.192086712419928,1677.80008787099
0.182652812369502,1677.81008787099
0.172808397439302,1677.82008787099
0.162246229421109,1677.83008787099
0.151374083021636,1677.84008787099
0.140774314850388,1677.85008787099
0.13051605070321,1677.86008787099
0.120178494127399,1677.87008787099
0.110478220800568,1677.88008787099
0.101242049281812,1677.89008787099
0.0916258245846973,1677.90008787099
0.0826268588216556,1677.91008787099
0.0738615835007193,1677.92008787099
0.0654363923751941,1677.93008787099
0.0571168650929677,1677.94008787099
0.0489979783262271,1677.95008787099
0.0405343155280861,1677.96008787099
0.0315622747897912,1677.97008787099
0.0225876426914043,1677.98008787099
0.0137423136200759,1677.99008787099
0.00526934877281221,1678.00008787099
-0.00238239508889704,1678.01008787099
-0.00961920033481128,1678.02008787099
-0.0163849614035753,1678.03008787099
-0.0224933959698685,1678.04008787099
-0.0289945725917063,1678.05008787099
-0.0357757344349464,1678.06008787099
-0.0430312077109724,1678.07008787099
-0.0501204415556058,1678.08008787099
-0.0575310139090407,1678.09008787099
-0.0645480945672166,1678.10008787099
-0.0712429485264738,1678.11008787099
-0.0779234380434016,1678.12008787099
-0.0844884554991542,1678.13008787099
-0.0909978252090488,1678.14008787099
-0.0978695313174362,1678.15008787099
-0.104771562426604,1678.16008787099
-0.111726524329726,1678.17008787099
-0.118166311772615,1678.18008787099
-0.122628840179578,1678.19008787099
-0.122804952218142,1678.20008787099
-0.116174475043335,1678.21008787099
-0.0981562358846969,1678.22008787099
-0.0639119499931673,1678.23008787099
-0.0112897194218325,1678.24008787099
0.0593109909208464,1678.25008787099
0.142661692834858,1678.26008787099
0.231198427045856,1678.27008787099
0.314617317693789,1678.28008787099
0.385240662976088,1678.29008787099
0.438673396365988,1678.30008787099
0.474622202954709,1678.31008787099
0.495104441635087,1678.32008787099
0.503363439761379,1678.33008787099
0.503244964595415,1678.34008787099
0.497552729930799,1678.35008787099
0.48800994763349,1678.36008787099
0.476913752592096,1678.37008787099
0.463519635821623,1678.38008787099
0.449414923078455,1678.39008787099
0.434945889712594,1678.40008787099
0.420892452755819,1678.41008787099
0.407525244005341,1678.42008787099
0.394983858433807,1678.43008787099
0.38300489235025,1678.44008787099
0.371462167715889,1678.45008787099
0.359353456810446,1678.46008787099
0.346682767108648,1678.47008787099
0.333047498704425,1678.48008787099
0.318745622416236,1678.49008787099
0.3038348423424,1678.50008787099
0.289250406808174,1678.51008787099
0.275028589136883,1678.52008787099
0.263327294126672,1678.53008787099
0.254251220646277,1678.54008787099
0.248304769938835,1678.55008787099
0.246240650173677,1678.56008787099
0.247524326899499,1678.57008787099
0.251549547788982,1678.58008787099
0.257731533445698,1678.59008787099
0.265069168954283,1678.60008787099
0.272615787096439,1678.61008787099
0.279615913765997,1678.62008787099
0.285430385045042,1678.63008787099
0.28900737896462,1678.64008787099
0.291021377994403,1678.65008787099
0.290111601316171,1678.66008787099
0.286922016691098,1678.67008787099
0.281821308703448,1678.68008787099
0.275046099628845,1678.69008787099
0.267155919652842,1678.70008787099
0.258689286047414,1678.71008787099
0.249876805079707,1678.72008787099
0.240019154641398,1678.73008787099
0.23006119896426,1678.74008787099
0.220193097121645,1678.75008787099
0.210213327178472,1678.76008787099
0.200467605307489,1678.77008787099
0.190621287310981,1678.78008787099
0.180919776327441,1678.79008787099
0.171660571644128,1678.80008787099
0.162705861102015,1678.81008787099
0.153053120035595,1678.82008787099
0.143799911994536,1678.83008787099
0.133943012835567,1678.84008787099
0.124949465436621,1678.85008787099
0.116130341789617,1678.86008787099
0.107466103582422,1678.87008787099
0.0987173882839276,1678.88008787099
0.0900963721346743,1678.89008787099
0.0818575923677881,1678.90008787099
0.0732167844217424,1678.91008787099
0.064819846349998,1678.92008787099
0.0563847676728218,1678.93008787099
0.0482209186831456,1678.94008787099
0.0402955150983688,1678.95008787099
0.031457201182904,1678.96008787099
0.0231284385515148,1678.97008787099
0.014713476239795,1678.98008787099
0.00630803283273011,1678.99008787099
-0.00146238685363661,1679.00008787099
-0.00911253355476257,1679.01008787099
-0.0166600798392415,1679.02008787099
-0.0244556039573833,1679.03008787099
-0.0322724015082316,1679.04008787099
-0.0404795007760375,1679.05008787099
-0.0485680604763653,1679.06008787099
-0.0563172573040762,1679.07008787099
-0.0644694666470061,1679.08008787099
-0.0724147282354932,1679.09008787099
-0.0810496079252563,1679.10008787099
-0.0893298097727514,1679.11008787099
-0.0972069635027484,1679.12008787099
-0.104491123944902,1679.13008787099
-0.112088038483297,1679.14008787099
-0.119463186349237,1679.15008787099
-0.126426978091845,1679.16008787099
-0.133044573154457,1679.17008787099
-0.140064350321868,1679.18008787099
-0.147079240024176,1679.19008787099
-0.154343230756919,1679.20008787099
-0.16144616164349,1679.21008787099
-0.168583554033399,1679.22008787099
-0.175953516586171,1679.23008787099
-0.18300687393454,1679.24008787099
-0.189689271186686,1679.25008787099
-0.196684508363866,1679.26008787099
-0.20365585501775,1679.27008787099
-0.210594192034395,1679.28008787099
-0.217333991734453,1679.29008787099
-0.224179602974795,1679.30008787099
-0.230536284199698,1679.31008787099
-0.236498532867468,1679.32008787099
-0.242447710167404,1679.33008787099
-0.248124701969993,1679.34008787099
-0.253622628038514,1679.35008787099
-0.259261429552765,1679.36008787099
-0.264952728823372,1679.37008787099
-0.270715677221744,1679.38008787099
-0.276674456307104,1679.39008787099
-0.282920980010394,1679.40008787099
-0.289007422610713,1679.41008787099
-0.294920681789116,1679.42008787099
-0.301276929778967,1679.43008787099
-0.306633906776278,1679.44008787099
-0.311805568667679,1679.45008787099
-0.314231504859106,1679.46008787099
-0.311492943286659,1679.47008787099
-0.299222007148351,1679.48008787099
-0.272438659423411,1679.49008787099
-0.226962196230125,1679.50008787099
-0.159992036146557,1679.51008787099
-0.0747469148881757,1679.52008787099
0.0222484414034519,1679.53008787099
0.120133507764828,1679.54008787099
0.208991531959356,1679.55008787099
0.281169992525104,1679.56008787099
0.332794258075437,1679.57008787099
0.364508444510103,1679.58008787099
0.379951725667063,1679.59008787099
0.382564152948368,1679.60008787099
0.377572119408223,1679.61008787099
0.368271049346757,1679.62008787099
0.356655788770505,1679.63008787099
0.344091043488061,1679.64008787099
0.331206918783456,1679.65008787099
0.317478664070879,1679.66008787099
0.303515929928011,1679.67008787099
0.289673659976466,1679.68008787099
0.276552699537628,1679.69008787099
0.264403686989479,1679.70008787099
0.253431177300074,1679.71008787099
0.243261520524905,1679.72008787099
0.233041402133936,1679.73008787099
0.222674611404541,1679.74008787099
0.211238886152521,1679.75008787099
0.1986218513986,1679.76008787099
0.184896827402555,1679.77008787099
0.171493352152086,1679.78008787099
0.158865795315523,1679.79008787099
0.147927432677752,1679.80008787099
0.138980158991763,1679.81008787099
0.131914389950365,1679.82008787099
0.127214266489365,1679.83008787099
0.124958155818901,1679.84008787099
0.125114582668575,1679.85008787099
0.128116592808253,1679.86008787099
0.132957623383101,1679.87008787099
0.138747365016891,1679.88008787099
0.145037339029476,1679.89008787099
0.150929542387233,1679.90008787099
0.155934124515284,1679.91008787099
0.15971415969942,1679.92008787099
0.161928228968951,1679.93008787099
0.161721235499808,1679.94008787099
0.159703952555326,1679.95008787099
0.155744268737604,1679.96008787099
0.150024271465596,1679.97008787099
0.143083319270854,1679.98008787099
0.134846002521251,1679.99008787099
0.126824137975016,1680.00008787099
0.11858116292533,1680.01008787099
0.110352332716201,1680.02008787099
0.101623967675376,1680.03008787099
0.0922268481867703,1680.04008787099
0.0824505989690924,1680.05008787099
0.0726941857777809,1680.06008787099
0.0623381645737807,1680.07008787099
0.0524217754137839,1680.08008787099
0.0428841478030938,1680.09008787099
0.0337003318650747,1680.10008787099
0.025052404971734,1680.11008787099
0.016316468987059,1680.12008787099
0.00772054374978461,1680.13008787099
7.60560714576798e-05,1680.14008787099
-0.00745716472011936,1680.15008787099
-0.0151823013556216,1680.16008787099
-0.0234217450901243,1680.17008787099
-0.0318484043915378,1680.18008787099
-0.040364058238638,1680.19008787099
-0.0487888504613115,1680.20008787099
-0.0577860664484295,1680.21008787099
-0.0669875148088607,1680.22008787099
-0.0759253517078382,1680.23008787099
-0.0850262396540708,1680.24008787099
-0.0936254988556915,1680.25008787099
-0.101809331831274,1680.26008787099
-0.109225220820231,1680.27008787099
-0.115688242645326,1680.28008787099
-0.122011300586458,1680.29008787099
-0.127758517333069,1680.30008787099
-0.133835107816929,1680.31008787099
-0.140042180696325,1680.32008787099
-0.146710433149779,1680.33008787099
-0.153155729823478,1680.34008787099
-0.159699679711523,1680.35008787099
-0.166130481240099,1680.36008787099
-0.172687109446347,1680.37008787099
-0.178934770193151,1680.38008787099
-0.185382749271554,1680.39008787099
-0.191539112607979,1680.40008787099
-0.197551567956069,1680.41008787099
-0.203754737305549,1680.42008787099
-0.2096788875401,1680.43008787099
-0.215729175432265,1680.44008787099
-0.222173829135406,1680.45008787099
-0.228586981477487,1680.46008787099
-0.235574320070016,1680.47008787099
-0.242085831969222,1680.48008787099
-0.248591915232592,1680.49008787099
-0.254180431871481,1680.50008787099
-0.260044709831513,1680.51008787099
-0.266156450541869,1680.52008787099
-0.271723507179769,1680.53008787099
-0.276724318060142,1680.54008787099
-0.279759844824429,1680.55008787099
-0.278189676500202,1680.56008787099
-0.268894196420292,1680.57008787099
-0.248368506353729,1680.58008787099
-0.212593049345548,1680.59008787099
-0.159481693347378,1680.60008787099
-0.0905849882908734,1680.61008787099
-0.0103578829149289,1680.62008787099
0.0727214656412792,1680.63008787099
0.151004080359035,1680.64008787099
0.217960710010971,1680.65008787099
0.268350832078859,1680.66008787099
0.301616772930909,1680.67008787099
0.31993499737613,1680.68008787099
0.326358217485414,1680.69008787099
0.324127635075125,1680.70008787099
0.316966781738331,1680.71008787099
0.307033183612123,1680.72008787099
0.295683568425901,1680.73008787099
0.283349482735733,1680.74008787099
0.270287428090867,1680.75008787099
0.257502438621293,1680.76008787099
0.244548746215403,1680.77008787099
0.231013180642623,1680.78008787099
0.218021810339916,1680.79008787099
0.20503410513748,1680.80008787099
0.19246739039192,1680.81008787099
0.179716049148098,1680.82008787099
0.167254928614101,1680.83008787099
0.15445182120745,1680.84008787099
0.141531725608648,1680.85008787099
0.12802826495233,1680.86008787099
0.114911269965995,1680.87008787099
0.102670644620049,1680.88008787099
0.0909268926366576,1680.89008787099
0.0818398897671378,1680.90008787099
0.0747861075148964,1680.91008787099
0.0703487175006124,1680.92008787099
0.0696125157662661,1680.93008787099
0.0717615625222889,1680.94008787099
0.0768162956418042,1680.95008787099
0.0834769277483558,1680.96008787099
0.0909807449698409,1680.97008787099
0.0984956457218041,1680.98008787099
0.10505691427239,1680.99008787099
0.110172306636835,1681.00008787099
0.113333561921096,1681.01008787099
0.114620259741176,1681.02008787099
0.114127566597006,1681.03008787099
0.112051558144852,1681.04008787099
0.108451701702321,1681.05008787099
0.103722436533038,1681.06008787099
0.0980381740505682,1681.07008787099
0.0912913979954014,1681.08008787099
0.0842580817866389,1681.09008787099
0.0764393740948508,1681.10008787099
0.0687334105432642,1681.11008787099
0.0607568296350806,1681.12008787099
0.0521189348059534,1681.13008787099
0.0431678207326495,1681.14008787099
0.0339528175379938,1681.15008787099
0.0244471006436997,1681.16008787099
0.0159302529878603,1681.17008787099
0.00678882784346934,1681.18008787099
-0.00197223730330838,1681.19008787099
-0.0108436341316825,1681.20008787099
-0.0201798446391443,1681.21008787099
-0.0291001506017509,1681.22008787099
-0.0375578973429483,1681.23008787099
-0.0453034090108798,1681.24008787099
-0.0530779919445886,1681.25008787099
-0.0606366080946537,1681.26008787099
-0.0683452720122165,1681.27008787099
-0.0756021940114703,1681.28008787099
-0.0830959272727722,1681.29008787099
-0.0900091786527359,1681.30008787099
-0.0964667935834043,1681.31008787099
-0.102803901469567,1681.32008787099
-0.109485956077904,1681.33008787099
-0.116157149054273,1681.34008787099
-0.122856355969896,1681.35008787099
-0.129649609365415,1681.36008787099
-0.136951299009005,1681.37008787099
-0.143725000132785,1681.38008787099
-0.149979249205545,1681.39008787099
-0.156131737193457,1681.40008787099
-0.162131711547075,1681.41008787099
-0.168398920274211,1681.42008787099
-0.174647690884133,1681.43008787099
-0.181155838427687,1681.44008787099
-0.18800868949411,1681.45008787099
-0.194567996113617,1681.46008787099
-0.201318962894522,1681.47008787099
-0.208414469387283,1681.48008787099
-0.215286708905188,1681.49008787099
-0.221786613300861,1681.50008787099
-0.227645587996378,1681.51008787099
-0.231745660720082,1681.52008787099
-0.23316971159046,1681.53008787099
-0.229904553504415,1681.54008787099
-0.219653671405116,1681.55008787099
-0.197333302242589,1681.56008787099
-0.158551014753338,1681.57008787099
-0.100146123400878,1681.58008787099
-0.0230996737535316,1681.59008787099
0.0662569152812216,1681.60008787099
0.159395376331684,1681.61008787099
0.247394421512832,1681.62008787099
0.321363298800276,1681.63008787099
0.377531291414827,1681.64008787099
0.416132291306151,1681.65008787099
0.43791279234026,1681.66008787099
0.447617592357591,1681.67008787099
0.449019062915928,1681.68008787099
0.444395318850826,1681.69008787099
0.436304765016288,1681.70008787099
0.425657190686197,1681.71008787099
0.414247354505431,1681.72008787099
0.402189851447639,1681.73008787099
0.39017249469998,1681.74008787099
0.377899021068938,1681.75008787099
0.365808790153143,1681.76008787099
0.354706337760647,1681.77008787099
0.344139828202392,1681.78008787099
0.333948951421724,1681.79008787099
0.323028034147439,1681.80008787099
0.311628206705697,1681.81008787099
0.299109442287829,1681.82008787099
0.286278984257481,1681.83008787099
0.272805032070581,1681.84008787099
0.259036000117571,1681.85008787099
0.245706502539813,1681.86008787099
0.233341616567378,1681.87008787099
0.222636761733539,1681.88008787099
0.214532314426769,1681.89008787099
0.209697208511232,1681.90008787099
0.207724072885229,1681.91008787099
0.208576010790242,1681.92008787099
0.211702772362203,1681.93008787099
0.216313436602389,1681.94008787099
0.221854259584382,1681.95008787099
0.228198004330961,1681.96008787099
0.235100681069359,1681.97008787099
0.241290364026888,1681.98008787099
0.246203027046158,1681.99008787099
0.249106303615231,1682.00008787099
0.249431369827217,1682.01008787099
0.247523675777756,1682.02008787099
0.24344465439607,1682.03008787099
0.237868528087369,1682.04008787099
0.230836409590354,1682.05008787099
0.222841748777237,1682.06008787099
0.214374018815024,1682.07008787099
0.205127358020471,1682.08008787099
0.195584047454851,1682.09008787099
0.185698916412958,1682.10008787099
0.176119842266108,1682.11008787099
0.166988555379079,1682.12008787099
0.158308937250641,1682.13008787099
0.149667152881253,1682.14008787099
0.141214812155112,1682.15008787099
0.132538648845468,1682.16008787099
0.123524260304971,1682.17008787099
0.114125772553608,1682.18008787099
0.104942014156262,1682.19008787099
0.0955103760848702,1682.20008787099
0.0866065301618756,1682.21008787099
0.0784495318200063,1682.22008787099
0.0702878672157327,1682.23008787099
0.0614845588577882,1682.24008787099
0.0530024807874166,1682.25008787099
0.0447586499617864,1682.26008787099
0.0367021935606384,1682.27008787099
0.0286475732803866,1682.28008787099
0.0209608568819892,1682.29008787099
0.0131253760723789,1682.30008787099
0.00529732370091712,1682.31008787099
-0.00285292288962743,1682.32008787099
-0.0113137514396299,1682.33008787099
-0.0196138252210407,1682.34008787099
-0.0279828001438374,1682.35008787099
-0.0361649559053803,1682.36008787099
-0.0443827614980502,1682.37008787099
-0.0524258488204207,1682.38008787099
-0.0597112215219107,1682.39008787099
-0.0670098247724268,1682.40008787099
-0.07440109546744,1682.41008787099
-0.0818702249472963,1682.42008787099
-0.0895513848379518,1682.43008787099
-0.0972211961479412,1682.44008787099
-0.104993131300294,1682.45008787099
-0.112418957031523,1682.46008787099
-0.119631788232152,1682.47008787099
-0.126760735564967,1682.48008787099
-0.133651816704848,1682.49008787099
-0.139864640725889,1682.50008787099
-0.143391912337812,1682.51008787099
-0.140644047508606,1682.52008787099
-0.128067349628109,1682.53008787099
-0.100164938415637,1682.54008787099
-0.052202051401826,1682.55008787099
0.018101675243908,1682.56008787099
0.10668400384688,1682.57008787099
0.205940051431631,1682.58008787099
0.304113900925122,1682.59008787099
0.390234325855907,1682.60008787099
0.458499545079364,1682.61008787099
0.507112182515655,1682.62008787099
0.537535137261105,1682.63008787099
0.554159689584019,1682.64008787099
0.560545536923787,1682.65008787099
0.559519115924764,1682.66008787099
0.553778362247203,1682.67008787099
0.544410713776866,1682.68008787099
0.532378969905036,1682.69008787099
0.518494909985057,1682.70008787099
0.503444547062053,1682.71008787099
0.488238898743677,1682.72008787099
0.473436026706112,1682.73008787099
0.458982543999156,1682.74008787099
0.445733548686132,1682.75008787099
0.432969944964624,1682.76008787099
0.420180120586258,1682.77008787099
0.407647988394597,1682.78008787099
0.394605098584285,1682.79008787099
0.380833292631642,1682.80008787099
0.366137733482575,1682.81008787099
0.35077359516082,1682.82008787099
0.33498449563015,1682.83008787099
0.319814734177111,1682.84008787099
0.306031165418885,1682.85008787099
0.29473547978392,1682.86008787099
0.285903886355277,1682.87008787099
0.280519351650914,1682.88008787099
0.278399090305966,1682.89008787099
0.279525949523278,1682.90008787099
0.284111111780508,1682.91008787099
0.291682228133068,1682.92008787099
0.300442726354548,1682.93008787099
0.308955340046349,1682.94008787099
0.317125889249247,1682.95008787099
0.323885920732558,1682.96008787099
0.328618949399462,1682.97008787099
0.330808035750096,1682.98008787099
0.329865257776565,1682.99008787099
0.326500428782185,1683.00008787099
0.321303360094646,1683.01008787099
0.31450621389893,1683.02008787099
0.306077260517161,1683.03008787099
0.297150030132277,1683.04008787099
0.287753406732151,1683.05008787099
0.277623858213452,1683.06008787099
0.267556475506295,1683.07008787099
0.257351542786765,1683.08008787099
0.246766697822892,1683.09008787099
0.235899687249314,1683.10008787099
0.224843026743798,1683.11008787099
0.213288060920515,1683.12008787099
0.201280943063693,1683.13008787099
0.189140363325983,1683.14008787099
0.177423109745063,1683.15008787099
0.166536584766805,1683.16008787099
0.155916643855305,1683.17008787099
0.145666580932577,1683.18008787099
0.135526707224088,1683.19008787099
0.125379186383514,1683.20008787099
0.115552008425857,1683.21008787099
0.105788736509461,1683.22008787099
0.0958411013261665,1683.23008787099
0.0854260821284716,1683.24008787099
0.0752480573840977,1683.25008787099
0.0653708557893121,1683.26008787099
0.0561061101578715,1683.27008787099
0.0475241052467009,1683.28008787099
0.039082735698449,1683.29008787099
0.0314924202386105,1683.30008787099
0.0235375070388975,1683.31008787099
0.0158544212328909,1683.32008787099
0.00811721199205079,1683.33008787099
0.000416396091229889,1683.34008787099
-0.00723906518667123,1683.35008787099
-0.0152990726792461,1683.36008787099
-0.0233100562492737,1683.37008787099
-0.0316919200777061,1683.38008787099
-0.0399252744890935,1683.39008787099
-0.0481341109516156,1683.40008787099
-0.0560634415602351,1683.41008787099
-0.0640296938542272,1683.42008787099
-0.0722126151869577,1683.43008787099
-0.0804396667152556,1683.44008787099
-0.0885914259714283,1683.45008787099
-0.0962326909302931,1683.46008787099
-0.103415251363853,1683.47008787099
-0.108630424409064,1683.48008787099
-0.109754287119406,1683.49008787099
-0.102847401878747,1683.50008787099
-0.082672541963138,1683.51008787099
-0.0436790837179213,1683.52008787099
0.0179285568438897,1683.53008787099
0.101254776608878,1683.54008787099
0.198731330236101,1683.55008787099
0.299409888934412,1683.56008787099
0.391663433245943,1683.57008787099
0.467786602462269,1683.58008787099
0.523956875689738,1683.59008787099
0.560704733012477,1683.60008787099
0.581256047537874,1683.61008787099
0.589109553441005,1683.62008787099
0.588196566892613,1683.63008787099
0.581339417723339,1683.64008787099
0.570732591032669,1683.65008787099
0.557811689889806,1683.66008787099
0.543211767505439,1683.67008787099
0.527115174316457,1683.68008787099
0.51015899369337,1683.69008787099
0.492878471938411,1683.70008787099
0.475496992765956,1683.71008787099
0.457688907745892,1683.72008787099
0.440568373799481,1683.73008787099
0.424194906286839,1683.74008787099
0.408524810124249,1683.75008787099
0.392500933601587,1683.76008787099
0.376119264857173,1683.77008787099
0.359955340378565,1683.78008787099
0.34350235977814,1683.79008787099
0.327334758646904,1683.80008787099
0.31288516266822,1683.81008787099
0.301145935268387,1683.82008787099
0.292853537187379,1683.83008787099
0.288747009032536,1683.84008787099
0.288022454287058,1683.85008787099
0.291465551249256,1683.86008787099
0.298454970902312,1683.87008787099
0.307982396999505,1683.88008787099
0.319475665819921,1683.89008787099
0.331208747739849,1683.90008787099
0.341853348427275,1683.91008787099
0.350704692353663,1683.92008787099
0.35695637867042,1683.93008787099
0.35968906690521,1683.94008787099
0.359517791199695,1683.95008787099
0.355898350206238,1683.96008787099
0.349953692094704,1683.97008787099
0.341950652130187,1683.98008787099
0.333336164474187,1683.99008787099
0.323653926864924,1684.00008787099
0.313126674524692,1684.01008787099
0.3026720867163,1684.02008787099
0.292709117759409,1684.03008787099
0.282610299160022,1684.04008787099
0.272336053097506,1684.05008787099
0.261489143215693,1684.06008787099
0.250607166607268,1684.07008787099
0.239615207636865,1684.08008787099
0.22823251428564,1684.09008787099
0.217425095618273,1684.10008787099
0.206916475616808,1684.11008787099
0.196241438476866,1684.12008787099
0.185456632469652,1684.13008787099
0.175091690589868,1684.14008787099
0.165142538396851,1684.15008787099
0.155064432056544,1684.16008787099
0.145356905666268,1684.17008787099
0.136083601767973,1684.18008787099
0.126719730973581,1684.19008787099
0.117264512803827,1684.20008787099
0.107125176740108,1684.21008787099
0.0968132109621653,1684.22008787099
0.0864699095190527,1684.23008787099
0.0762615047488321,1684.24008787099
0.0665354984477206,1684.25008787099
0.0578723274502251,1684.26008787099
0.0493951006985672,1684.27008787099
0.0413803375843736,1684.28008787099
0.0333330640230224,1684.29008787099
0.0253672443086795,1684.30008787099
0.0168752727995412,1684.31008787099
0.00793181056478551,1684.32008787099
-0.00181077603213708,1684.33008787099
-0.0119646159996008,1684.34008787099
-0.0221053982543728,1684.35008787099
-0.0327031963352509,1684.36008787099
-0.0424558799165643,1684.37008787099
-0.0512641701457268,1684.38008787099
-0.059305634402998,1684.39008787099
-0.0668105960373536,1684.40008787099
-0.0737895907105058,1684.41008787099
-0.0815061564998079,1684.42008787099
-0.0888178824634044,1684.43008787099
-0.0967216570523955,1684.44008787099
-0.104061713678329,1684.45008787099
-0.111056619108688,1684.46008787099
-0.118261162195731,1684.47008787099
-0.124891403659479,1684.48008787099
-0.131452249999611,1684.49008787099
-0.138339360934896,1684.50008787099
-0.145433260381522,1684.51008787099
-0.152554804484959,1684.52008787099
-0.159761689879313,1684.53008787099
-0.166885405453886,1684.54008787099
-0.174016824582648,1684.55008787099
-0.18143112068464,1684.56008787099
-0.187903416287216,1684.57008787099
-0.194328572057593,1684.58008787099
-0.200774574667849,1684.59008787099
-0.207331682180625,1684.60008787099
-0.213827401629972,1684.61008787099
-0.220345116825375,1684.62008787099
-0.227298852865162,1684.63008787099
-0.234385100125647,1684.64008787099
-0.241544665043276,1684.65008787099
-0.247873536774405,1684.66008787099
-0.251010941646359,1684.67008787099
-0.246672343527126,1684.68008787099
-0.22896604842842,1684.69008787099
-0.189998189274533,1684.70008787099
-0.123787213841127,1684.71008787099
-0.0287638836330059,1684.72008787099
0.0867900847181567,1684.73008787099
0.208969913152262,1684.74008787099
0.324043118324726,1684.75008787099
0.421089027165587,1684.76008787099
0.494452590060383,1684.77008787099
0.544584534335263,1684.78008787099
0.574059496034872,1684.79008787099
0.587706490821099,1684.80008787099
0.59007143030457,1684.81008787099
0.584488358798552,1684.82008787099
0.573586604524062,1684.83008787099
0.559105633095056,1684.84008787099
0.543057904674308,1684.85008787099
0.525884977792594,1684.86008787099
0.508118728813432,1684.87008787099
0.490609344397647,1684.88008787099
0.473685983352588,1684.89008787099
0.457714676548625,1684.90008787099
0.443150940615123,1684.91008787099
0.429716730714216,1684.92008787099
0.416913602946242,1684.93008787099
0.404866303072269,1684.94008787099
0.392467173696531,1684.95008787099
0.379343563093702,1684.96008787099
0.366002738048881,1684.97008787099
0.351647649300864,1684.98008787099
0.337177570431854,1684.99008787099
0.323073569850058,1685.00008787099
0.310241473484509,1685.01008787099
0.299700785300726,1685.02008787099
0.292248162506212,1685.03008787099
0.288119640282239,1685.04008787099
0.287726632546456,1685.05008787099
0.291295861136667,1685.06008787099
0.298301044129357,1685.07008787099
0.307962862470538,1685.08008787099
0.319347203539564,1685.09008787099
0.331375196309819,1685.10008787099
0.342098621441928,1685.11008787099
0.350842584810221,1685.12008787099
0.35720961333806,1685.13008787099
0.359912263585738,1685.14008787099
0.359616817822329,1685.15008787099
0.356698208614881,1685.16008787099
0.350962543200161,1685.17008787099
0.344088509177515,1685.18008787099
0.335758371219741,1685.19008787099
0.326415282675656,1685.20008787099
0.316560529385742,1685.21008787099
0.306545382647617,1685.22008787099
0.296287801526852,1685.23008787099
0.285314287231863,1685.24008787099
0.273874513102944,1685.25008787099
0.26274024470422,1685.26008787099
0.252260709371759,1685.27008787099
0.241546816465376,1685.28008787099
0.231150509679373,1685.29008787099
0.220645394757123,1685.30008787099
0.209871278429193,1685.31008787099
0.199205151718526,1685.32008787099
0.188634308157375,1685.33008787099
0.178787927195817,1685.34008787099
0.168853673642407,1685.35008787099
0.159121273597556,1685.36008787099
0.149665580038888,1685.37008787099
0.140007196897854,1685.38008787099
0.13115792426036,1685.39008787099
0.12210903405991,1685.40008787099
0.112598285171696,1685.41008787099
0.102786589471095,1685.42008787099
0.0925412528751725,1685.43008787099
0.0830236921452128,1685.44008787099
0.0733478120519487,1685.45008787099
0.0639402547069946,1685.46008787099
0.0544557978683582,1685.47008787099
0.0452677033363873,1685.48008787099
0.0360902335684261,1685.49008787099
0.0263441016104453,1685.50008787099
0.016688066997574,1685.51008787099
0.00679313853072748,1685.52008787099
-0.00231024069158509,1685.53008787099
-0.0109068995726661,1685.54008787099
-0.0193973909313445,1685.55008787099
-0.0275118793970077,1685.56008787099
-0.0357543397126371,1685.57008787099
-0.0442673548110186,1685.58008787099
-0.0527750648321313,1685.59008787099
-0.0611409919612631,1685.60008787099
-0.0694286066603222,1685.61008787099
-0.0772088321531164,1685.62008787099
-0.0847573527264095,1685.63008787099
-0.0915206688519307,1685.64008787099
-0.0987675854697868,1685.65008787099
-0.105388422717103,1685.66008787099
-0.112422767082693,1685.67008787099
-0.119348609735178,1685.68008787099
-0.126684163047714,1685.69008787099
-0.134173916473455,1685.70008787099
-0.141321790515487,1685.71008787099
-0.149068070325153,1685.72008787099
-0.156875332007939,1685.73008787099
-0.164521212301981,1685.74008787099
-0.172022512947231,1685.75008787099
-0.17875858657156,1685.76008787099
-0.184148887034909,1685.77008787099
-0.185747733085058,1685.78008787099
-0.179931252070565,1685.79008787099
-0.160763849748295,1685.80008787099
-0.119588700412055,1685.81008787099
-0.0507895231342574,1685.82008787099
0.0455720191423639,1685.83008787099
0.160946330353911,1685.84008787099
0.281799629594358,1685.85008787099
0.393353655886021,1685.86008787099
0.485689635311593,1685.87008787099
0.554351250623978,1685.88008787099
0.599772991789377,1685.89008787099
0.625893294463997,1685.90008787099
0.637169401367052,1685.91008787099
0.637813408880516,1685.92008787099
0.631399172130178,1685.93008787099
0.620024731970126,1685.94008787099
0.605873092169196,1685.95008787099
0.589865983109084,1685.96008787099
0.572386066379024,1685.97008787099
0.554897919694068,1685.98008787099
0.537516159809162,1685.99008787099
0.519960513185516,1686.00008787099
0.502848407396412,1686.01008787099
0.486924681577642,1686.02008787099
0.471557695588255,1686.03008787099
0.456646084440827,1686.04008787099
0.441598806990636,1686.05008787099
0.426391068507101,1686.06008787099
0.409992279346121,1686.07008787099
0.392522076250769,1686.08008787099
0.374927089199557,1686.09008787099
0.357447076307533,1686.10008787099
0.340858525833987,1686.11008787099
0.326000214219512,1686.12008787099
0.313596865029274,1686.13008787099
0.304369497243955,1686.14008787099
0.299364717741062,1686.15008787099
0.298282937395002,1686.16008787099
0.30161493081671,1686.17008787099
0.308793245829392,1686.18008787099
0.319077499434323,1686.19008787099
0.330525730180561,1686.20008787099
0.342186739342903,1686.21008787099
0.352749148275295,1686.22008787099
0.361299372658174,1686.23008787099
0.367229870598828,1686.24008787099
0.369561579794067,1686.25008787099
0.368808605375607,1686.26008787099
0.36534661648379,1686.27008787099
0.358819605579636,1686.28008787099
0.350716771921246,1686.29008787099
0.341119628774249,1686.30008787099
0.330211987982758,1686.31008787099
0.319449127404967,1686.32008787099
0.308303087854946,1686.33008787099
0.297088201699623,1686.34008787099
0.285657397331621,1686.35008787099
0.273896154810734,1686.36008787099
0.261809842016926,1686.37008787099
0.249529861007186,1686.38008787099
0.237075753149402,1686.39008787099
0.223627073228022,1686.40008787099
0.210565240115112,1686.41008787099
0.197628569518359,1686.42008787099
0.184761827600099,1686.43008787099
0.17199888556959,1686.44008787099
0.15965145507265,1686.45008787099
0.147367797493531,1686.46008787099
0.135171966524822,1686.47008787099
0.123483437179253,1686.48008787099
0.112249818598326,1686.49008787099
0.101283389895966,1686.50008787099
0.0905226234206925,1686.51008787099
0.079944080356637,1686.52008787099
0.0699474214985383,1686.53008787099
0.0597799096614435,1686.54008787099
0.0500103941822138,1686.55008787099
0.0407960966460627,1686.56008787099
0.0315212292248905,1686.57008787099
0.022410447147764,1686.58008787099
0.0136367898986714,1686.59008787099
0.0045791912842953,1686.60008787099
-0.00464099308486572,1686.61008787099
-0.0142614223458872,1686.62008787099
-0.0232616495446457,1686.63008787099
-0.0322118955027275,1686.64008787099
-0.0413669364277553,1686.65008787099
-0.0502604710405823,1686.66008787099
-0.0594101921122572,1686.67008787099
-0.0685617847180229,1686.68008787099
-0.0781569896278857,1686.69008787099
-0.0876587869121187,1686.70008787099
-0.0969001251432984,1686.71008787099
-0.105753950137859,1686.72008787099
-0.114188307800945,1686.73008787099
-0.121108189566708,1686.74008787099
-0.123779121718694,1686.75008787099
-0.118071997238474,1686.76008787099
-0.0978890507756251,1686.77008787099
-0.0571472106056609,1686.78008787099
0.00859229643404158,1686.79008787099
0.0977438824402408,1686.80008787099
0.202302787993964,1686.81008787099
0.309893868150984,1686.82008787099
0.407909450725763,1686.83008787099
0.487253731524456,1686.84008787099
0.544999207905351,1686.85008787099
0.581666597605112,1686.86008787099
0.600777153773722,1686.87008787099
0.607059676841735,1686.88008787099
0.603306546846114,1686.89008787099
0.593354310397643,1686.90008787099
0.57860115933151,1686.91008787099
0.560779271730469,1686.92008787099
0.540636403893979,1686.93008787099
0.518957474641531,1686.94008787099
0.496541044897424,1686.95008787099
0.474668474999713,1686.96008787099
0.453773109384777,1686.97008787099
0.434005588429844,1686.98008787099
0.414812070281732,1686.99008787099
0.39569157342814,1687.00008787099
0.376006813891474,1687.01008787099
0.356388580243565,1687.02008787099
0.336212787615861,1687.03008787099
0.31471585831734,1687.04008787099
0.293843106453178,1687.05008787099
0.273729579145979,1687.06008787099
0.256139435387271,1687.07008787099
0.241280911556301,1687.08008787099
0.229525340503968,1687.09008787099
0.221875181234015,1687.10008787099
0.217640180155304,1687.11008787099
0.217521266135461,1687.12008787099
0.221454018509829,1687.13008787099
0.229062594960854,1687.14008787099
0.239723069569068,1687.15008787099
0.251633918390261,1687.16008787099
0.263123478459581,1687.17008787099
0.273123245990084,1687.18008787099
0.280257187638536,1687.19008787099
0.28381743478663,1687.20008787099
0.284094375073621,1687.21008787099
0.280921124235655,1687.22008787099
0.276080514986825,1687.23008787099
0.268950467564006,1687.24008787099
0.260327900220469,1687.25008787099
0.250627104735665,1687.26008787099
0.240135960704367,1687.27008787099
0.228678177675659,1687.28008787099
0.217311785435175,1687.29008787099
0.205865601642454,1687.30008787099
0.194607406706889,1687.31008787099
0.183123467569174,1687.32008787099
0.171789386909594,1687.33008787099
0.159865851332622,1687.34008787099
0.148118449286238,1687.35008787099
0.136375542196378,1687.36008787099
0.124519094825973,1687.37008787099
0.113024063711113,1687.38008787099
0.101446604941883,1687.39008787099
0.0897333850720417,1687.40008787099
0.0785168499010757,1687.41008787099
0.0675149527201231,1687.42008787099
0.0568963015239709,1687.43008787099
0.0463433013960742,1687.44008787099
0.0362890519072125,1687.45008787099
0.02650303498916,1687.46008787099
0.0168585773290251,1687.47008787099
0.00770755550603609,1687.48008787099
-0.000822168900106882,1687.49008787099
-0.00895608810110418,1687.50008787099
-0.0175606819004115,1687.51008787099
-0.0258614679605241,1687.52008787099
-0.0342734024460636,1687.53008787099
-0.0424973985220859,1687.54008787099
-0.0504393412423042,1687.55008787099
-0.058109618433597,1687.56008787099
-0.066070670671001,1687.57008787099
-0.074405771829205,1687.58008787099
-0.0830660600996081,1687.59008787099
-0.0918014529116384,1687.60008787099
-0.100435914099694,1687.61008787099
-0.108826781646918,1687.62008787099
-0.11684882360517,1687.63008787099
-0.123566753730709,1687.64008787099
-0.127509847116786,1687.65008787099
-0.125416281808519,1687.66008787099
-0.111431648511864,1687.67008787099
-0.0788723660850157,1687.68008787099
-0.0206285101884118,1687.69008787099
0.0638012160269136,1687.70008787099
0.168071388508844,1687.71008787099
0.280668612811499,1687.72008787099
0.387262725364858,1687.73008787099
0.478159901005332,1687.74008787099
0.547002867962044,1687.75008787099
0.593090614193296,1687.76008787099
0.620190326784913,1687.77008787099
0.631594309237821,1687.78008787099
0.632586491656196,1687.79008787099
0.625858458532111,1687.80008787099
0.6141068836663,1687.81008787099
0.599153719828449,1687.82008787099
0.581612563952072,1687.83008787099
0.563190308309758,1687.84008787099
0.544127856485563,1687.85008787099
0.525277669560907,1687.86008787099
0.507175228743934,1687.87008787099
0.489265528492062,1687.88008787099
0.472500254599687,1687.89008787099
0.455365426043455,1687.90008787099
0.438358994158502,1687.91008787099
0.421149359727329,1687.92008787099
0.403219861486686,1687.93008787099
0.384473646780083,1687.94008787099
0.365140365425736,1687.95008787099
0.346335162729496,1687.96008787099
0.329821711735002,1687.97008787099
0.316514777902687,1687.98008787099
0.306999040647656,1687.99008787099
0.302200442530699,1688.00008787099
0.30221353642777,1688.01008787099
0.30615882252618,1688.02008787099
0.314491821875637,1688.03008787099
0.325602857192253,1688.04008787099
0.338728668104151,1688.05008787099
0.352844525976411,1688.06008787099
0.366261076808744,1688.07008787099
0.377503798665835,1688.08008787099
0.385311851078917,1688.09008787099
0.389200838418064,1688.10008787099
0.388439492625287,1688.11008787099
0.384017863311116,1688.12008787099
0.377067732445415,1688.13008787099
0.368702065068739,1688.14008787099
0.35927808255816,1688.15008787099
0.34925768178618,1688.16008787099
0.33845654938358,1688.17008787099
0.326479506126151,1688.18008787099
0.314420098824308,1688.19008787099
0.302170138983352,1688.20008787099
0.289997144521715,1688.21008787099
0.27774510649511,1688.22008787099
0.26567349893549,1688.23008787099
0.253580371627862,1688.24008787099
0.240926481652112,1688.25008787099
0.229189486263967,1688.26008787099
0.217720365121185,1688.27008787099
0.20616960932814,1688.28008787099
0.194653903831944,1688.29008787099
0.183212834483459,1688.30008787099
0.171808553137157,1688.31008787099
0.160378864028098,1688.32008787099
0.149438747379829,1688.33008787099
0.139289990998933,1688.34008787099
0.129274315776749,1688.35008787099
0.119730823506366,1688.36008787099
0.109914583803654,1688.37008787099
0.100673570818593,1688.38008787099
0.0910413075324791,1688.39008787099
0.0818693965796727,1688.40008787099
0.0724563358508695,1688.41008787099
0.063182493813644,1688.42008787099
0.0536466900664163,1688.43008787099
0.0440036691618679,1688.44008787099
0.0345966534349981,1688.45008787099
0.0253467975964165,1688.46008787099
0.0162626902408029,1688.47008787099
0.00678226397870323,1688.48008787099
-0.00238138186912903,1688.49008787099
-0.0121415021594848,1688.50008787099
-0.021622942078505,1688.51008787099
-0.0306041595506539,1688.52008787099
-0.0390916929612633,1688.53008787099
-0.0458105780706296,1688.54008787099
-0.0488834789785525,1688.55008787099
-0.0439639645956464,1688.56008787099
-0.0236955632672651,1688.57008787099
0.0209553313795848,1688.58008787099
0.0964021925337768,1688.59008787099
0.200449835092146,1688.60008787099
0.322634268298811,1688.61008787099
0.447786461342535,1688.62008787099
0.562159905718729,1688.63008787099
0.656407154027131,1688.64008787099
0.72666630080933,1688.65008787099
0.774329313823276,1688.66008787099
0.802969219204188,1688.67008787099
0.816951609842296,1688.68008787099
0.820730980158241,1688.69008787099
0.817620050369561,1688.70008787099
0.809608488418254,1688.71008787099
0.798036491425301,1688.72008787099
0.784744846747754,1688.73008787099
0.770365769210852,1688.74008787099
0.755417004326995,1688.75008787099
0.74074648833253,1688.76008787099
0.726950873277951,1688.77008787099
0.714613472222853,1688.78008787099
0.703313978082994,1688.79008787099
0.693271399491667,1688.80008787099
0.684331118783716,1688.81008787099
0.675123336869128,1688.82008787099
0.664942116844336,1688.83008787099
0.652551432863498,1688.84008787099
0.637972353937858,1688.85008787099
0.621104402942942,1688.86008787099
0.60393558991492,1688.87008787099
0.587789058281005,1688.88008787099
0.57421245661477,1688.89008787099
0.564242036538269,1688.90008787099
0.557803352889703,1688.91008787099
0.55508839374553,1688.92008787099
0.556673810090764,1688.93008787099
0.560979576836017,1688.94008787099
0.568834284206124,1688.95008787099
0.579052964415822,1688.96008787099
0.590561745921073,1688.97008787099
0.602113470490477,1688.98008787099
0.611696735029149,1688.99008787099
0.618257310669932,1689.00008787099
0.621544366975037,1689.01008787099
0.620919184530859,1689.02008787099
0.617035690648429,1689.03008787099
0.610944602234455,1689.04008787099
0.602933561856541,1689.05008787099
0.593377511939503,1689.06008787099
0.582377629125747,1689.07008787099
0.570682319727578,1689.08008787099
0.558795034714055,1689.09008787099
0.546474047002559,1689.10008787099
0.533928480337171,1689.11008787099
0.521169526952088,1689.12008787099
0.507627042464492,1689.13008787099
0.494163249931637,1689.14008787099
0.480982798163553,1689.15008787099
0.467465395429186,1689.16008787099
0.454241210174482,1689.17008787099
0.441215766232606,1689.18008787099
0.428274247063909,1689.19008787099
0.415109795831394,1689.20008787099
0.402230429209563,1689.21008787099
0.389199390243378,1689.22008787099
0.37638515254675,1689.23008787099
0.363949930858727,1689.24008787099
0.351166901898955,1689.25008787099
0.338550307973564,1689.26008787099
0.325824598598441,1689.27008787099
0.313740675409726,1689.28008787099
0.301618496509083,1689.29008787099
0.289820622158078,1689.30008787099
0.278312018319008,1689.31008787099
0.266383136112526,1689.32008787099
0.254282346703165,1689.33008787099
0.242535982592858,1689.34008787099
0.230812959186414,1689.35008787099
0.219549352157087,1689.36008787099
0.208820559683633,1689.37008787099
0.198315502125134,1689.38008787099
0.187831950685075,1689.39008787099
0.177485649826034,1689.40008787099
0.166682745646767,1689.41008787099
0.155164326399073,1689.42008787099
0.143997331765896,1689.43008787099
0.132934364493396,1689.44008787099
0.122422764093633,1689.45008787099
0.112359699977941,1689.46008787099
0.102561802050068,1689.47008787099
0.0931447839564872,1689.48008787099
0.0843408213088221,1689.49008787099
0.0794627807250162,1689.50008787099
0.0828636222568367,1689.51008787099
0.103388308610175,1689.52008787099
0.151895820330076,1689.53008787099
0.235079085504806,1689.54008787099
0.348332691182919,1689.55008787099
0.478168667748512,1689.56008787099
0.607721512851625,1689.57008787099
0.722497441287892,1689.58008787099
0.81411091087227,1689.59008787099
0.880042548790672,1689.60008787099
0.922657139448727,1689.61008787099
0.946658612316943,1689.62008787099
0.956942211305047,1689.63008787099
0.957875284850246,1689.64008787099
0.952429232383386,1689.65008787099
0.943194224992367,1689.66008787099
0.931334898460299,1689.67008787099
0.918340421512237,1689.68008787099
0.904302568683048,1689.69008787099
0.889895690168349,1689.70008787099
0.875791597116141,1689.71008787099
0.862680184163951,1689.72008787099
0.85053079204774,1689.73008787099
0.839582450395137,1689.74008787099
0.829534518874567,1689.75008787099
0.819911109768228,1689.76008787099
0.809460238657563,1689.77008787099
0.79750439696548,1689.78008787099
0.783121679130673,1689.79008787099
0.76626305210509,1689.80008787099
0.748026900810945,1689.81008787099
0.729531957841051,1689.82008787099
0.711974815915585,1689.83008787099
0.697220537564699,1689.84008787099
0.685681195232095,1689.85008787099
0.677459204256996,1689.86008787099
0.674287504159008,1689.87008787099
0.675193772585573,1689.88008787099
0.680780668720998,1689.89008787099
0.690265934861984,1689.90008787099
0.703291101119923,1689.91008787099
0.717274236879342,1689.92008787099
0.730759825988273,1689.93008787099
0.742464578912407,1689.94008787099
0.750125544192556,1689.95008787099
0.753781798525314,1689.96008787099
0.7523885576165,1689.97008787099
0.747001370741632,1689.98008787099
0.737903224840276,1689.99008787099
0.726874070962579,1690.00008787099
0.713949219723899,1690.01008787099
0.699360264810286,1690.02008787099
0.685123922247131,1690.03008787099
0.670202002939266,1690.04008787099
0.655432934691479,1690.05008787099
0.641219557328298,1690.06008787099
0.626422058611803,1690.07008787099
0.612252554218695,1690.08008787099
0.598497474487546,1690.09008787099
0.584590170271503,1690.10008787099
0.570356111092539,1690.11008787099
0.555386275850218,1690.12008787099
0.540079187558383,1690.13008787099
0.524599188757369,1690.14008787099
0.50940555441515,1690.15008787099
0.494419678432586,1690.16008787099
0.479832819121659,1690.17008787099
0.465587271702503,1690.18008787099
0.451721021920379,1690.19008787099
0.438184879408428,1690.20008787099
0.424206212436261,1690.21008787099
0.410212407648667,1690.22008787099
0.396451610814405,1690.23008787099
0.382744245527099,1690.24008787099
0.369546871137057,1690.25008787099
0.356636962365994,1690.26008787099
0.343644003051887,1690.27008787099
0.330767907444257,1690.28008787099
0.318403604070708,1690.29008787099
0.306688194251361,1690.30008787099
0.2954332351707,1690.31008787099
0.285056809072237,1690.32008787099
0.273708566927384,1690.33008787099
0.262646109018655,1690.34008787099
0.25127906878003,1690.35008787099
0.239431781323898,1690.36008787099
0.228191953732188,1690.37008787099
0.216686339842067,1690.38008787099
0.205547710971395,1690.39008787099
0.194704445367551,1690.40008787099
0.183309904094941,1690.41008787099
0.172232370800875,1690.42008787099
0.162232634332923,1690.43008787099
0.156751135214523,1690.44008787099
0.162806171074896,1690.45008787099
0.190624196580511,1690.46008787099
0.250759334173311,1690.47008787099
0.344061578747622,1690.48008787099
0.462642113401807,1690.49008787099
0.5900771257421,1690.50008787099
0.710905600118557,1690.51008787099
0.813603493117232,1690.52008787099
0.893223748929701,1690.53008787099
0.949681025254533,1690.54008787099
0.985968001667099,1690.55008787099
1.00629966087,1690.56008787099
1.01436607912595,1690.57008787099
1.01328622565063,1690.58008787099
1.0057754830296,1690.59008787099
0.992955862606154,1690.60008787099
0.97611051964709,1690.61008787099
0.957121091919558,1690.62008787099
0.936495415918881,1690.63008787099
0.916033248208232,1690.64008787099
0.896510343377353,1690.65008787099
0.87796186597323,1690.66008787099
0.861747290091897,1690.67008787099
0.846071747402418,1690.68008787099
0.831725543023523,1690.69008787099
0.816966438623131,1690.70008787099
0.800820747365947,1690.71008787099
0.782610225270058,1690.72008787099
0.762512198660358,1690.73008787099
0.741005750879559,1690.74008787099
0.71923368767963,1690.75008787099
0.699320256124321,1690.76008787099
0.682146850363617,1690.77008787099
0.669888785580259,1690.78008787099
0.6639370585738,1690.79008787099
0.665270796434211,1690.80008787099
0.673781033740794,1690.81008787099
0.68918911862982,1690.82008787099
0.710004005991253,1690.83008787099
0.7330315571475,1690.84008787099
0.755677607424348,1690.85008787099
0.77493531597796,1690.86008787099
0.789094871139208,1690.87008787099
0.796821638285423,1690.88008787099
0.799009215211991,1690.89008787099
0.796538620980811,1690.90008787099
0.790245347648605,1690.91008787099
0.78081859795715,1690.92008787099
0.768444222585716,1690.93008787099
0.754558166894735,1690.94008787099
0.739518805608497,1690.95008787099
0.724041456760796,1690.96008787099
0.708045233338313,1690.97008787099
0.692278005782456,1690.98008787099
0.676227869453238,1690.99008787099
0.660632036602258,1691.00008787099
0.645349755247346,1691.01008787099
0.629234210632326,1691.02008787099
0.61293289620179,1691.03008787099
0.597537072121167,1691.04008787099
0.582839051625125,1691.05008787099
0.568568278706544,1691.06008787099
0.554991224079548,1691.07008787099
0.541064604967933,1691.08008787099
0.527300601708135,1691.09008787099
0.513480691095071,1691.10008787099
0.500027734531014,1691.11008787099
0.486918976011342,1691.12008787099
0.473949083969798,1691.13008787099
0.460931447123912,1691.14008787099
0.448119720515958,1691.15008787099
0.435908938042857,1691.16008787099
0.424003552867593,1691.17008787099
0.412476495503287,1691.18008787099
0.401405751747579,1691.19008787099
0.389866415562282,1691.20008787099
0.37849145341527,1691.21008787099
0.366889193364606,1691.22008787099
0.355701487543879,1691.23008787099
0.344530636056371,1691.24008787099
0.333500174401456,1691.25008787099
0.322235843241866,1691.26008787099
0.310601884863311,1691.27008787099
0.299060607505305,1691.28008787099
0.287668636642486,1691.29008787099
0.27628599045543,1691.30008787099
0.265492511751438,1691.31008787099
0.254356852133537,1691.32008787099
0.243229352181387,1691.33008787099
0.232650988082459,1691.34008787099
0.224732239792982,1691.35008787099
0.224374237917407,1691.36008787099
0.240622631261055,1691.37008787099
0.283948392397161,1691.38008787099
0.360386456910684,1691.39008787099
0.465335084044513,1691.40008787099
0.586829007647069,1691.41008787099
0.709022264455522,1691.42008787099
0.820211938383784,1691.43008787099
0.912237978819208,1691.44008787099
0.983091203720515,1691.45008787099
1.03387797063423,1691.46008787099
1.06684696174087,1691.47008787099
1.08499637996896,1691.48008787099
1.09164329711523,1691.49008787099
1.08909185787993,1691.50008787099
1.07940190606507,1691.51008787099
1.06542562410312,1691.52008787099
1.04799402139281,1691.53008787099
1.02883864087754,1691.54008787099
1.00901650013952,1691.55008787099
0.989134455487197,1691.56008787099
0.970203151129747,1691.57008787099
0.952551758799711,1691.58008787099
0.935653040366799,1691.59008787099
0.919438173693497,1691.60008787099
0.903446738903756,1691.61008787099
0.886500239900621,1691.62008787099
0.868219006741064,1691.63008787099
0.847871393766581,1691.64008787099
0.826207996842512,1691.65008787099
0.803913429627449,1691.66008787099
0.78330312573911,1691.67008787099
0.766622193197592,1691.68008787099
0.755184072210004,1691.69008787099
0.750852413990572,1691.70008787099
0.75394976991201,1691.71008787099
0.764052810239471,1691.72008787099
0.78033457584707,1691.73008787099
0.801498679754826,1691.74008787099
0.824425959939369,1691.75008787099
0.84692288364367,1691.76008787099
0.866659774445956,1691.77008787099
0.88146088077013,1691.78008787099
0.890723076101104,1691.79008787099
0.893664859083964,1691.80008787099
0.891069069101804,1691.81008787099
0.883131942862546,1691.82008787099
0.871477911781788,1691.83008787099
0.857189222370695,1691.84008787099
0.84113284474011,1691.85008787099
0.823980478674813,1691.86008787099
0.806626119283634,1691.87008787099
0.788697519963143,1691.88008787099
0.771167624962651,1691.89008787099
0.754286538943519,1691.90008787099
0.73771142664675,1691.91008787099
0.721620980548722,1691.92008787099
0.705437327019794,1691.93008787099
0.689606493301487,1691.94008787099
0.674247141051901,1691.95008787099
0.659025446744904,1691.96008787099
0.644360616416065,1691.97008787099
0.629583663064034,1691.98008787099
0.614875626153507,1691.99008787099
0.599901206327345,1692.00008787099
0.584106652056353,1692.01008787099
0.568687268750995,1692.02008787099
0.553858364685128,1692.03008787099
0.539799981673536,1692.04008787099
0.52624551345471,1692.05008787099
0.513385586329879,1692.06008787099
0.501015931934101,1692.07008787099
0.488799572783184,1692.08008787099
0.476332730619803,1692.09008787099
0.464043925325651,1692.10008787099
0.451175159140868,1692.11008787099
0.437744311691239,1692.12008787099
0.424580657032664,1692.13008787099
0.411096941386129,1692.14008787099
0.398132029352054,1692.15008787099
0.384950455413632,1692.16008787099
0.371560374616478,1692.17008787099
0.358080161014613,1692.18008787099
0.344439888561549,1692.19008787099
0.330501696900485,1692.20008787099
0.317397157328442,1692.21008787099
0.303962694179593,1692.22008787099
0.291157372008244,1692.23008787099
0.278857523551322,1692.24008787099
0.267080826838815,1692.25008787099
0.25552688410124,1692.26008787099
0.244064258904364,1692.27008787099
0.232219335715961,1692.28008787099
0.220212599740964,1692.29008787099
0.20869485159649,1692.30008787099
0.196833780915425,1692.31008787099
0.185510715306553,1692.32008787099
0.175231479064543,1692.33008787099
0.164550244410581,1692.34008787099
0.153470463696016,1692.35008787099
0.142194845830751,1692.36008787099
0.130657104106215,1692.37008787099
0.119384287282625,1692.38008787099
0.1084076278975,1692.39008787099
0.0982918110675902,1692.40008787099
0.0878413595873187,1692.41008787099
0.0775489496320381,1692.42008787099
0.0670657866905788,1692.43008787099
0.0566738428637539,1692.44008787099
0.046391921910975,1692.45008787099
0.0354032512873563,1692.46008787099
0.0245747395823704,1692.47008787099
0.013167171580065,1692.48008787099
0.00183883794810134,1692.49008787099
-0.00924612908262654,1692.50008787099
-0.0207032815902226,1692.51008787099
-0.0322604087484406,1692.52008787099
-0.0436002092177138,1692.53008787099
-0.0552226573733534,1692.54008787099
-0.0663365773224174,1692.55008787099
-0.0771002242816657,1692.56008787099
-0.0878361435320558,1692.57008787099
-0.0957751752369005,1692.58008787099
-0.097681983755715,1692.59008787099
-0.0837355008421771,1692.60008787099
-0.039644229963146,1692.61008787099
0.0456691815514373,1692.62008787099
0.16964740393462,1692.63008787099
0.318397026320473,1692.64008787099
0.471168041545504,1692.65008787099
0.611438225056712,1692.66008787099
0.728794658846539,1692.67008787099
0.820309102607668,1692.68008787099
0.887094650867355,1692.69008787099
0.933689170381185,1692.70008787099
0.963457896000596,1692.71008787099
0.979883598199395,1692.72008787099
0.986384043236351,1692.73008787099
0.985223132897894,1692.74008787099
0.977952071737469,1692.75008787099
0.965974406474034,1692.76008787099
0.951269960276732,1692.77008787099
0.93467858937612,1692.78008787099
0.918459483370291,1692.79008787099
0.902926021614448,1692.80008787099
0.889329753332399,1692.81008787099
0.877456046367992,1692.82008787099
0.86810206658286,1692.83008787099
0.860011220920243,1692.84008787099
0.852730784383926,1692.85008787099
0.8446599957516,1692.86008787099
0.835566576198004,1692.87008787099
0.824000351463869,1692.88008787099
0.810297301901281,1692.89008787099
0.795010718899794,1692.90008787099
0.778964687437191,1692.91008787099
0.764555813620745,1692.92008787099
0.753529861789881,1692.93008787099
0.747783845821752,1692.94008787099
0.748584350381359,1692.95008787099
0.756114203745637,1692.96008787099
0.769629831015189,1692.97008787099
0.78745726579029,1692.98008787099
0.807864037379057,1692.99008787099
0.828704551659821,1693.00008787099
0.847867523456072,1693.01008787099
0.864468029113841,1693.02008787099
0.876873739387391,1693.03008787099
0.885272609182013,1693.04008787099
0.889262782898572,1693.05008787099
0.888691224424593,1693.06008787099
0.885181787163482,1693.07008787099
0.878673517022786,1693.08008787099
0.87025750550563,1693.09008787099
0.860965929204388,1693.10008787099
0.850078195125739,1693.11008787099
0.838483889444205,1693.12008787099
0.825432423599477,1693.13008787099
0.811695969714885,1693.14008787099
0.798026936347935,1693.15008787099
0.784681620453244,1693.16008787099
0.771938061104786,1693.17008787099
0.759170020191832,1693.18008787099
0.746233901406709,1693.19008787099
0.733459634935118,1693.20008787099
0.720349810970092,1693.21008787099
0.707171827979762,1693.22008787099
0.693703878120727,1693.23008787099
0.680028277549975,1693.24008787099
0.666519614916691,1693.25008787099
0.653231548049098,1693.26008787099
0.640061857325846,1693.27008787099
0.626511542998578,1693.28008787099
0.612411133448682,1693.29008787099
0.597559389949976,1693.30008787099
0.582922209103818,1693.31008787099
0.568479682216742,1693.32008787099
0.554661538888509,1693.33008787099
0.541432998737476,1693.34008787099
0.528863820030924,1693.35008787099
0.516805759590943,1693.36008787099
0.504322628304696,1693.37008787099
0.491717182389088,1693.38008787099
0.478535884965767,1693.39008787099
0.465225407771271,1693.40008787099
0.451793584333491,1693.41008787099
0.438087081245797,1693.42008787099
0.424247345506804,1693.43008787099
0.410752004362051,1693.44008787099
0.397161113864124,1693.45008787099
0.384040723795102,1693.46008787099
0.370700541600651,1693.47008787099
0.357536724022123,1693.48008787099
0.343670853896176,1693.49008787099
0.329286079593887,1693.50008787099
0.314664167028659,1693.51008787099
0.299842978760653,1693.52008787099
0.285319494712532,1693.53008787099
0.271150763136152,1693.54008787099
0.258044087886521,1693.55008787099
0.245547414456267,1693.56008787099
0.233052301335858,1693.57008787099
0.220830094685523,1693.58008787099
0.208967929465814,1693.59008787099
0.197940753577739,1693.60008787099
0.187443499600916,1693.61008787099
0.177208801712829,1693.62008787099
0.167203270192515,1693.63008787099
0.156959856502265,1693.64008787099
0.147028037063408,1693.65008787099
0.136786174911926,1693.66008787099
0.126379767547697,1693.67008787099
0.116513448408693,1693.68008787099
0.106422312656297,1693.69008787099
0.0959806402940872,1693.70008787099
0.0882533693605275,1693.71008787099
0.0878656894237863,1693.72008787099
0.104111926123431,1693.73008787099
0.147260939077063,1693.74008787099
0.222513028698009,1693.75008787099
0.325019490739278,1693.76008787099
0.442246925694914,1693.77008787099
0.558951879115364,1693.78008787099
0.663817920614206,1693.79008787099
0.749522602829393,1693.80008787099
0.814530791809358,1693.81008787099
0.860333601206164,1693.82008787099
0.889154163552676,1693.83008787099
0.904380724352472,1693.84008787099
0.9093199899382,1693.85008787099
0.90556007725724,1693.86008787099
0.895456571644611,1693.87008787099
0.880358435244856,1693.88008787099
0.861574309327994,1693.89008787099
0.840160201599442,1693.90008787099
0.817669043451545,1693.91008787099
0.794120848338257,1693.92008787099
0.770974115805573,1693.93008787099
0.748884202724256,1693.94008787099
0.728658677740899,1693.95008787099
0.710399545148146,1693.96008787099
0.693132281325886,1693.97008787099
0.676167127001351,1693.98008787099
0.659056107406707,1693.99008787099
0.641377382663377,1694.00008787099
0.621848878829364,1694.01008787099
0.600629256940614,1694.02008787099
0.57756434142834,1694.03008787099
0.554040469234439,1694.04008787099
0.531559020048621,1694.05008787099
0.512499776476931,1694.06008787099
0.497817678285984,1694.07008787099
0.488842507356086,1694.08008787099
0.486552990443661,1694.09008787099
0.490909459716235,1694.10008787099
0.502264133792578,1694.11008787099
0.51928173978009,1694.12008787099
0.538691077986925,1694.13008787099
0.55803705232402,1694.14008787099
0.574387946965268,1694.15008787099
0.586792481024282,1694.16008787099
0.593502777536013,1694.17008787099
0.594636650139462,1694.18008787099
0.590326526245192,1694.19008787099
0.580856910149937,1694.20008787099
0.568221393690356,1694.21008787099
0.552559956989136,1694.22008787099
0.535677643233798,1694.23008787099
0.518047985289894,1694.24008787099
0.499677578717222,1694.25008787099
0.480742508590088,1694.26008787099
0.461208821699144,1694.27008787099
0.441936080398844,1694.28008787099
0.422769195833323,1694.29008787099
0.404200731577284,1694.30008787099
0.385389773464532,1694.31008787099
0.366947978132445,1694.32008787099
0.348336633846188,1694.33008787099
0.329957733443802,1694.34008787099
0.311839232319732,1694.35008787099
0.294050205274104,1694.36008787099
0.276630346474246,1694.37008787099
0.259469079550001,1694.38008787099
0.242942901412911,1694.39008787099
0.225978871518226,1694.40008787099
0.209420060469962,1694.41008787099
0.193562109312558,1694.42008787099
0.177937853637361,1694.43008787099
0.163116235264457,1694.44008787099
0.147874129218581,1694.45008787099
0.133558289564078,1694.46008787099
0.119139178499132,1694.47008787099
0.104859861664294,1694.48008787099
0.0905889259335543,1694.49008787099
0.0754755117647596,1694.50008787099
0.0602168146101463,1694.51008787099
0.0446797300240238,1694.52008787099
0.0290640517603932,1694.53008787099
0.0132613454748166,1694.54008787099
-0.00210493267844066,1694.55008787099
-0.0173828963446322,1694.56008787099
-0.0322739017691088,1694.57008787099
-0.0468459814183728,1694.58008787099
-0.0607025038066172,1694.59008787099
-0.0746129099324872,1694.60008787099
-0.0881770544051067,1694.61008787099
-0.101367576176215,1694.62008787099
-0.114446975522378,1694.63008787099
-0.127736089181111,1694.64008787099
-0.140533475491053,1694.65008787099
-0.152950293773,1694.66008787099
-0.165529684265205,1694.67008787099
-0.177775172483033,1694.68008787099
-0.190916276541922,1694.69008787099
-0.20308864620367,1694.70008787099
-0.214508549432833,1694.71008787099
-0.225514454328526,1694.72008787099
-0.237157462256535,1694.73008787099
-0.249471674111817,1694.74008787099
-0.261704699338105,1694.75008787099
-0.27415025950598,1694.76008787099
-0.284694195952728,1694.77008787099
-0.290450872382636,1694.78008787099
-0.284917819233095,1694.79008787099
-0.257265125431108,1694.80008787099
-0.196148172665374,1694.81008787099
-0.0978987336018463,1694.82008787099
0.0290400526218391,1694.83008787099
0.16629330076162,1694.84008787099
0.296313889674933,1694.85008787099
0.405421177943956,1694.86008787099
0.488654804657926,1694.87008787099
0.545755672526158,1694.88008787099
0.58138130427477,1694.89008787099
0.59977158774252,1694.90008787099
0.60579730927583,1694.91008787099
0.603104247764658,1694.92008787099
0.593603727369502,1694.93008787099
0.579747584519599,1694.94008787099
0.563294321940417,1694.95008787099
0.544049318829339,1694.96008787099
0.523940176036073,1694.97008787099
0.50342794919986,1694.98008787099
0.482876548153306,1694.99008787099
0.463132863316782,1695.00008787099
0.445105278277448,1695.01008787099
0.428857462617684,1695.02008787099
0.413405000254273,1695.03008787099
0.399530089675127,1695.04008787099
0.385399116145051,1695.05008787099
0.371151682345946,1695.06008787099
0.355409915621495,1695.07008787099
0.337871618439883,1695.08008787099
0.318867743361926,1695.09008787099
0.298697378672515,1695.10008787099
0.279110447649923,1695.11008787099
0.260715661650303,1695.12008787099
0.245287077103945,1695.13008787099
0.233663228270538,1695.14008787099
0.227100840593385,1695.15008787099
0.226441164205864,1695.16008787099
0.231018979831893,1695.17008787099
0.240643349477824,1695.18008787099
0.254253926404114,1695.19008787099
0.269599822236508,1695.20008787099
0.284775829660747,1695.21008787099
0.297810527213927,1695.22008787099
0.307125042818722,1695.23008787099
0.311759036085982,1695.24008787099
0.31234581535569,1695.25008787099
0.308316639490434,1695.26008787099
0.30060995191588,1695.27008787099
0.289968397682466,1695.28008787099
0.277384785842642,1695.29008787099
0.263159748295605,1695.30008787099
0.248424773176307,1695.31008787099
0.232969016570131,1695.32008787099
0.216573313565786,1695.33008787099
0.199908111605703,1695.34008787099
0.18304539051933,1695.35008787099
0.166577930711268,1695.36008787099
0.149804622221286,1695.37008787099
0.133974131407433,1695.38008787099
0.118272890967302,1695.39008787099
0.102862234500245,1695.40008787099
0.0875045868321651,1695.41008787099
0.0718487094943877,1695.42008787099
0.0558547132918174,1695.43008787099
0.0400594985266377,1695.44008787099
0.0249040953710254,1695.45008787099
0.01005100165536,1695.46008787099
-0.00420343105043362,1695.47008787099
-0.017856147008042,1695.48008787099
-0.0316203754068913,1695.49008787099
-0.0452855659689396,1695.50008787099
-0.0591637574733017,1695.51008787099
-0.0726476358251362,1695.52008787099
-0.0863246540392278,1695.53008787099
-0.0990950398742878,1695.54008787099
-0.111129413329016,1695.55008787099
-0.122610480749796,1695.56008787099
-0.134347808683631,1695.57008787099
-0.146963738490689,1695.58008787099
-0.159347269430103,1695.59008787099
-0.171601106401832,1695.60008787099
-0.183507330287841,1695.61008787099
-0.194888116969964,1695.62008787099
-0.206128554948646,1695.63008787099
-0.217328604194963,1695.64008787099
-0.229416344032159,1695.65008787099
-0.241645650050634,1695.66008787099
-0.254171259483446,1695.67008787099
-0.266711785407344,1695.68008787099
-0.278976602320627,1695.69008787099
-0.291104091435125,1695.70008787099
-0.302193160692475,1695.71008787099
-0.312669944996537,1695.72008787099
-0.321278424254938,1695.73008787099
-0.325277061453582,1695.74008787099
-0.31843689717886,1695.75008787099
-0.290790789552407,1695.76008787099
-0.231732564832321,1695.77008787099
-0.139201531907085,1695.78008787099
-0.0212874833671141,1695.79008787099
0.106512541818942,1695.80008787099
0.227854733001283,1695.81008787099
0.331406669572558,1695.82008787099
0.411897271699529,1695.83008787099
0.468065221266408,1695.84008787099
0.50325618963532,1695.85008787099
0.521916192760556,1695.86008787099
0.528216151554031,1695.87008787099
0.525362183528718,1695.88008787099
0.516553914264208,1695.89008787099
0.503261041618131,1695.90008787099
0.486704515735768,1695.91008787099
0.468526334511214,1695.92008787099
0.448706356069026,1695.93008787099
0.428551442355585,1695.94008787099
0.409002607831384,1695.95008787099
0.389886488398931,1695.96008787099
0.371995020416208,1695.97008787099
0.3554242487001,1695.98008787099
0.339799643798791,1695.99008787099
0.32504542592518,1696.00008787099
0.31031283599358,1696.01008787099
0.294742234711502,1696.02008787099
0.277480267971526,1696.03008787099
0.258245415312498,1696.04008787099
0.237285101673389,1696.05008787099
0.215983222988515,1696.06008787099
0.196155289506093,1696.07008787099
0.178853900904197,1696.08008787099
0.166311851009911,1696.09008787099
0.159262180179104,1696.10008787099
0.158697429658178,1696.11008787099
0.163333353766797,1696.12008787099
0.173018471780919,1696.13008787099
0.186445349284505,1696.14008787099
0.201540082896404,1696.15008787099
0.216754900833771,1696.16008787099
0.229598554558172,1696.17008787099
0.239503713610236,1696.18008787099
0.245225238586213,1696.19008787099
0.246254850641064,1696.20008787099
0.243150211961004,1696.21008787099
0.236059689914339,1696.22008787099
0.226309306222649,1696.23008787099
0.214833258856828,1696.24008787099
0.202077970057804,1696.25008787099
0.188039666861677,1696.26008787099
0.173400201563289,1696.27008787099
0.158786264139692,1696.28008787099
0.144105641793881,1696.29008787099
0.129156965487829,1696.30008787099
0.113979808924498,1696.31008787099
0.0978138848953737,1696.32008787099
0.0807160569803548,1696.33008787099
0.0639483452450662,1696.34008787099
0.0481556626100309,1696.35008787099
0.0336355814763233,1696.36008787099
0.0200837458334581,1696.37008787099
0.00743031924988574,1696.38008787099
-0.00499353229242698,1696.39008787099
-0.0185264661028198,1696.40008787099
-0.0320989317161174,1696.41008787099
-0.0461815597813066,1696.42008787099
-0.0608092829116321,1696.43008787099
-0.0744567743395805,1696.44008787099
-0.0880919903888814,1696.45008787099
-0.101294956796438,1696.46008787099
-0.114745840286241,1696.47008787099
