PPG,time
0.224080551613743,1635.08210616019
0.442231245833471,1635.09210616019
0.387249009723444,1635.10210616019
0.411961757697818,1635.11210616019
0.388315867134487,1635.12210616019
0.391985171704053,1635.13210616019
0.375204966478468,1635.14210616019
0.368576771170502,1635.15210616019
0.354035560126433,1635.16210616019
0.342454016674473,1635.17210616019
0.328376200450124,1635.18210616019
0.314045973792891,1635.19210616019
0.299636262595979,1635.20210616019
0.285308703362937,1635.21210616019
0.271174913486289,1635.22210616019
0.257210780003065,1635.23210616019
0.242498876561018,1635.24210616019
0.227716045625846,1635.25210616019
0.21240782850612,1635.26210616019
0.197193300822462,1635.27210616019
0.182480906696906,1635.28210616019
0.168347919375175,1635.29210616019
0.154510250444903,1635.30210616019
0.14076885597894,1635.31210616019
0.127180777481476,1635.32210616019
0.112978870213907,1635.33210616019
0.0986374307187542,1635.34210616019
0.0841938958245461,1635.35210616019
0.0699252576827704,1635.36210616019
0.0557964349044347,1635.37210616019
0.0412037282299108,1635.38210616019
0.0272383078181464,1635.39210616019
0.013782892419211,1635.40210616019
0.00107908762392565,1635.41210616019
-0.0111823069983747,1635.42210616019
-0.0229904389874777,1635.43210616019
-0.0350543253474342,1635.44210616019
-0.0475834660502083,1635.45210616019
-0.0598335666752602,1635.46210616019
-0.0723815577105053,1635.47210616019
-0.0854875958101521,1635.48210616019
-0.0986875132806902,1635.49210616019
-0.111817504531076,1635.50210616019
-0.124759808998546,1635.51210616019
-0.13800497381895,1635.52210616019
-0.15041062454029,1635.53210616019
-0.162187061830205,1635.54210616019
-0.173995848627218,1635.55210616019
-0.185762798543147,1635.56210616019
-0.197667718459515,1635.57210616019
-0.209743468490768,1635.58210616019
-0.221360644154133,1635.59210616019
-0.232493210645343,1635.60210616019
-0.243335704288965,1635.61210616019
-0.254084120553762,1635.62210616019
-0.265634906623568,1635.63210616019
-0.276905001444665,1635.64210616019
-0.288117312879601,1635.65210616019
-0.299062504847235,1635.66210616019
-0.308187470059396,1635.67210616019
-0.314653389123452,1635.68210616019
-0.315020173705729,1635.69210616019
-0.305643037475974,1635.70210616019
-0.283023486464133,1635.71210616019
-0.244050178426791,1635.72210616019
-0.187122549745576,1635.73210616019
-0.113172820309244,1635.74210616019
-0.024793959275589,1635.75210616019
0.074337272299854,1635.76210616019
0.179155185722789,1635.77210616019
0.284625005558581,1635.78210616019
0.385346390209972,1635.79210616019
0.476135847906736,1635.80210616019
0.553419607753863,1635.81210616019
0.614416147524293,1635.82210616019
0.658633901457087,1635.83210616019
0.68685021757239,1635.84210616019
0.701045616451246,1635.85210616019
0.703666866587778,1635.86210616019
0.69768872263663,1635.87210616019
0.686724783099845,1635.88210616019
0.672463407350608,1635.89210616019
0.657433628565402,1635.90210616019
0.642715756858576,1635.91210616019
0.629332241359634,1635.92210616019
0.61774283714484,1635.93210616019
0.607981630579469,1635.94210616019
0.599749804998287,1635.95210616019
0.591289514148822,1635.96210616019
0.582154253227967,1635.97210616019
0.570962446294951,1635.98210616019
0.557048360094628,1635.99210616019
0.539913702378659,1636.00210616019
0.520791635957728,1636.01210616019
0.501200277701186,1636.02210616019
0.482023741325621,1636.03210616019
0.464141730286241,1636.04210616019
0.447661334752777,1636.05210616019
0.433523859522545,1636.06210616019
0.421501351497825,1636.07210616019
0.412351399230957,1636.08210616019
0.406351471390606,1636.09210616019
0.403722618388883,1636.10210616019
0.404722666838294,1636.11210616019
0.408109273630764,1636.12210616019
0.411971776351765,1636.13210616019
0.415675420502747,1636.14210616019
0.417110216329522,1636.15210616019
0.416174213247729,1636.16210616019
0.413035525423647,1636.17210616019
0.406961040993053,1636.18210616019
0.398902783956785,1636.19210616019
0.38857150124716,1636.20210616019
0.377096026288136,1636.21210616019
0.36469418566342,1636.22210616019
0.351107745245331,1636.23210616019
0.337342335018007,1636.24210616019
0.322759511407231,1636.25210616019
0.30760904711257,1636.26210616019
0.292299869142051,1636.27210616019
0.277252892567278,1636.28210616019
0.262595094511172,1636.29210616019
0.24836832665986,1636.30210616019
0.234020898044709,1636.31210616019
0.219852227815067,1636.32210616019
0.205439632738985,1636.33210616019
0.19116052845031,1636.34210616019
0.176487427034752,1636.35210616019
0.161758191666483,1636.36210616019
0.146785946766816,1636.37210616019
0.132404743266689,1636.38210616019
0.117472356357601,1636.39210616019
0.102594899964449,1636.40210616019
0.0871431792694676,1636.41210616019
0.0719716855189941,1636.42210616019
0.0563508157108988,1636.43210616019
0.0409247476065452,1636.44210616019
0.0264344786780629,1636.45210616019
0.0119762785878062,1636.46210616019
-0.00150310822372866,1636.47210616019
-0.0142359569951785,1636.48210616019
-0.0267519909939513,1636.49210616019
-0.0399425307106189,1636.50210616019
-0.053672329408327,1636.51210616019
-0.0674975669203016,1636.52210616019
-0.081770082116454,1636.53210616019
-0.0959503568368474,1636.54210616019
-0.109173249701424,1636.55210616019
-0.121811569682478,1636.56210616019
-0.134171851103022,1636.57210616019
-0.146732822320122,1636.58210616019
-0.159682913355192,1636.59210616019
-0.172464383556715,1636.60210616019
-0.185334034026352,1636.61210616019
-0.198284045817233,1636.62210616019
-0.21094009226682,1636.63210616019
-0.223086762239879,1636.64210616019
-0.234880102889753,1636.65210616019
-0.246476896109034,1636.66210616019
-0.257954882074473,1636.67210616019
-0.269110554704004,1636.68210616019
-0.280064244081265,1636.69210616019
-0.290758068012963,1636.70210616019
-0.301147088518652,1636.71210616019
-0.311570194820406,1636.72210616019
-0.321429093276478,1636.73210616019
-0.331650807560248,1636.74210616019
-0.342093003852849,1636.75210616019
-0.352730933636525,1636.76210616019
-0.362953334357615,1636.77210616019
-0.372848781738252,1636.78210616019
-0.381610726019385,1636.79210616019
-0.388592823279157,1636.80210616019
-0.392666847763685,1636.81210616019
-0.390455533504755,1636.82210616019
-0.377773733689137,1636.83210616019
-0.351286718152591,1636.84210616019
-0.307450874807511,1636.85210616019
-0.245172994240739,1636.86210616019
-0.165424707258455,1636.87210616019
-0.0709505465638767,1636.88210616019
0.0344839909099526,1636.89210616019
0.145835458387311,1636.90210616019
0.258085403930949,1636.91210616019
0.364870965838257,1636.92210616019
0.461791691748947,1636.93210616019
0.544567917396003,1636.94210616019
0.610704194780213,1636.95210616019
0.65947408650661,1636.96210616019
0.691444411513362,1636.97210616019
0.70846314874085,1636.98210616019
0.713371619747824,1636.99210616019
0.710081890078075,1637.00210616019
0.700127406466374,1637.01210616019
0.687817416446154,1637.02210616019
0.674098282547284,1637.03210616019
0.661018738591882,1637.04210616019
0.649774499327186,1637.05210616019
0.640538000495908,1637.06210616019
0.633484029268241,1637.07210616019
0.627659139369411,1637.08210616019
0.62146219162346,1637.09210616019
0.614950670387931,1637.10210616019
0.607368476252423,1637.11210616019
0.596846607756659,1637.12210616019
0.583633232287507,1637.13210616019
0.567341084504208,1637.14210616019
0.548507523106031,1637.15210616019
0.527843763004179,1637.16210616019
0.506988108593211,1637.17210616019
0.486172349255492,1637.18210616019
0.466180394722345,1637.19210616019
0.44825329575691,1637.20210616019
0.433046950801097,1637.21210616019
0.420733824250713,1637.22210616019
0.411856260792972,1637.23210616019
0.406478974263545,1637.24210616019
0.403907149683852,1637.25210616019
0.403979327334199,1637.26210616019
0.404767199702051,1637.27210616019
0.405874710599737,1637.28210616019
0.406157953301504,1637.29210616019
0.404816873263266,1637.30210616019
0.401888046306589,1637.31210616019
0.397222635588939,1637.32210616019
0.390234960981218,1637.33210616019
0.380980549865049,1637.34210616019
0.37029766024513,1637.35210616019
0.357893487514279,1637.36210616019
0.344504735745663,1637.37210616019
0.330695787924153,1637.38210616019
0.316233390549608,1637.39210616019
0.301304234484284,1637.40210616019
0.285906722437949,1637.41210616019
0.270004587316405,1637.42210616019
0.254045472108488,1637.43210616019
0.238032055859275,1637.44210616019
0.222032445647136,1637.45210616019
0.206052859080647,1637.46210616019
0.190334526832912,1637.47210616019
0.174852424447604,1637.48210616019
0.159375768419281,1637.49210616019
0.143623279606927,1637.50210616019
0.128002760255024,1637.51210616019
0.112531223075306,1637.52210616019
0.0962930025558986,1637.53210616019
0.0805208196795517,1637.54210616019
0.0654775942801134,1637.55210616019
0.0510046247769948,1637.56210616019
0.0370965316790951,1637.57210616019
0.023600789556646,1637.58210616019
0.00969961009533495,1637.59210616019
-0.00383613441989214,1637.60210616019
-0.0183884560406314,1637.61210616019
-0.0327961738334508,1637.62210616019
-0.0467220270360348,1637.63210616019
-0.0608778763445189,1637.64210616019
-0.0743718292263832,1637.65210616019
-0.0879712959817653,1637.66210616019
-0.10136723963267,1637.67210616019
-0.114507235613472,1637.68210616019
-0.127558626391441,1637.69210616019
-0.140368742024963,1637.70210616019
-0.153187598854889,1637.71210616019
-0.16615297312952,1637.72210616019
-0.178818304778137,1637.73210616019
-0.19132957568737,1637.74210616019
-0.203671632491895,1637.75210616019
-0.216011232895578,1637.76210616019
-0.22825753628529,1637.77210616019
-0.240412590121866,1637.78210616019
-0.252535053577272,1637.79210616019
-0.264097855707049,1637.80210616019
-0.275673012276167,1637.81210616019
-0.287111848625144,1637.82210616019
-0.298638304661368,1637.83210616019
-0.309912171466639,1637.84210616019
-0.320275757298946,1637.85210616019
-0.330558250627294,1637.86210616019
-0.340506508225582,1637.87210616019
-0.350394401389614,1637.88210616019
-0.360638588037411,1637.89210616019
-0.371043506812874,1637.90210616019
-0.381395578244609,1637.91210616019
-0.391486767237579,1637.92210616019
-0.401537480953158,1637.93210616019
-0.409617465176623,1637.94210616019
-0.413805078204889,1637.95210616019
-0.410891480235023,1637.96210616019
-0.397331297809968,1637.97210616019
-0.36921286920361,1637.98210616019
-0.323996490670685,1637.99210616019
-0.260555620961276,1638.00210616019
-0.179687524603973,1638.01210616019
-0.084587472839519,1638.02210616019
0.0210947383504521,1638.03210616019
0.131875707441323,1638.04210616019
0.243427687787818,1638.05210616019
0.349678833823771,1638.06210616019
0.446364114915538,1638.07210616019
0.528812076936255,1638.08210616019
0.594931999439043,1638.09210616019
0.64425323907779,1638.10210616019
0.677058208252667,1638.11210616019
0.695655464255648,1638.12210616019
0.702134375103784,1638.13210616019
0.700215618707328,1638.14210616019
0.691743211307061,1638.15210616019
0.679762777571325,1638.16210616019
0.666323821400719,1638.17210616019
0.652501195359481,1638.18210616019
0.639813141953232,1638.19210616019
0.628400487393369,1638.20210616019
0.618305116829054,1638.21210616019
0.609245016438054,1638.22210616019
0.600655066729553,1638.23210616019
0.591849432181048,1638.24210616019
0.581750927315388,1638.25210616019
0.568771043460486,1638.26210616019
0.553282653259484,1638.27210616019
0.535034028748326,1638.28210616019
0.514992132789357,1638.29210616019
0.493743764773838,1638.30210616019
0.472050859345824,1638.31210616019
0.45049650617692,1638.32210616019
0.430620994453867,1638.33210616019
0.412514113827278,1638.34210616019
0.396970742209512,1638.35210616019
0.384398559421164,1638.36210616019
0.374878102170319,1638.37210616019
0.368165770468097,1638.38210616019
0.364196566407982,1638.39210616019
0.362430647458893,1638.40210616019
0.361550300283299,1638.41210616019
0.361220330297459,1638.42210616019
0.360226707296386,1638.43210616019
0.357261305115705,1638.44210616019
0.352182340447026,1638.45210616019
0.345863347335798,1638.46210616019
0.337291792416095,1638.47210616019
0.327262668576011,1638.48210616019
0.315708115873786,1638.49210616019
0.30287610421586,1638.50210616019
0.28960798606687,1638.51210616019
0.275386202124693,1638.52210616019
0.260815105356718,1638.53210616019
0.245871697775982,1638.54210616019
0.230551907686848,1638.55210616019
0.214382226318022,1638.56210616019
0.198063786973666,1638.57210616019
0.180842389418352,1638.58210616019
0.163225119099713,1638.59210616019
0.145334154807225,1638.60210616019
0.127949851336028,1638.61210616019
0.111065737381947,1638.62210616019
0.0944928689383046,1638.63210616019
0.0780360703647894,1638.64210616019
0.061708700651514,1638.65210616019
0.04534183356701,1638.66210616019
0.028915576379588,1638.67210616019
0.0124428515852719,1638.68210616019
-0.00367297929029685,1638.69210616019
-0.0194113218519594,1638.70210616019
-0.0346030726391166,1638.71210616019
-0.0496050861714745,1638.72210616019
-0.0646770335339599,1638.73210616019
-0.0796194956379947,1638.74210616019
-0.0948366437488365,1638.75210616019
-0.109021920648049,1638.76210616019
-0.122531666321305,1638.77210616019
-0.135074249045071,1638.78210616019
-0.147546310946764,1638.79210616019
-0.160725670863014,1638.80210616019
-0.17469388973949,1638.81210616019
-0.189581241501255,1638.82210616019
-0.204344467796153,1638.83210616019
-0.219159828204378,1638.84210616019
-0.233724945040623,1638.85210616019
-0.247402240378973,1638.86210616019
-0.260655143599631,1638.87210616019
-0.273804200192092,1638.88210616019
-0.287071362450563,1638.89210616019
-0.300101130559807,1638.90210616019
-0.312922662112041,1638.91210616019
-0.325134927023752,1638.92210616019
-0.336420871147875,1638.93210616019
-0.346946147038765,1638.94210616019
-0.356928339475366,1638.95210616019
-0.367606153132698,1638.96210616019
-0.378188871246449,1638.97210616019
-0.389308720753992,1638.98210616019
-0.400220848557636,1638.99210616019
-0.410630304532599,1639.00210616019
-0.420839863785295,1639.01210616019
-0.431173288378876,1639.02210616019
-0.441722504890053,1639.03210616019
-0.452235161052626,1639.04210616019
-0.46311546205857,1639.05210616019
-0.473471332972848,1639.06210616019
-0.482555055043596,1639.07210616019
-0.488112618179896,1639.08210616019
-0.486967183060845,1639.09210616019
-0.475634160469055,1639.10210616019
-0.449857946751441,1639.11210616019
-0.407648259671077,1639.12210616019
-0.347656681230992,1639.13210616019
-0.271281361086803,1639.14210616019
-0.180827822374049,1639.15210616019
-0.0805272638087781,1639.16210616019
0.0246070750820571,1639.17210616019
0.129582335963624,1639.18210616019
0.229776072609014,1639.19210616019
0.320466801607523,1639.20210616019
0.398002065125206,1639.21210616019
0.459510344686941,1639.22210616019
0.50449296644073,1639.23210616019
0.533511247319081,1639.24210616019
0.548280191685105,1639.25210616019
0.551292380036565,1639.26210616019
0.545353380499599,1639.27210616019
0.533286333833107,1639.28210616019
0.517046808057819,1639.29210616019
0.49880444550979,1639.30210616019
0.480541175381356,1639.31210616019
0.46309964472491,1639.32210616019
0.446678700386167,1639.33210616019
0.432322585436446,1639.34210616019
0.418285668218052,1639.35210616019
0.404563206748977,1639.36210616019
0.389658309541103,1639.37210616019
0.372687632739676,1639.38210616019
0.353009335099172,1639.39210616019
0.331368986369863,1639.40210616019
0.308393112007258,1639.41210616019
0.284440894903935,1639.42210616019
0.26079413855808,1639.43210616019
0.239065628545795,1639.44210616019
0.219344021424633,1639.45210616019
0.202867694621809,1639.46210616019
0.18993060261548,1639.47210616019
0.180007416486218,1639.48210616019
0.173775766113007,1639.49210616019
0.170778092795504,1639.50210616019
0.171049083323598,1639.51210616019
0.17351728786862,1639.52210616019
0.177325399687452,1639.53210616019
0.180799467064013,1639.54210616019
0.182927627128802,1639.55210616019
0.183130240098123,1639.56210616019
0.180882385845028,1639.57210616019
0.176220228393729,1639.58210616019
0.168899206593509,1639.59210616019
0.159777781231539,1639.60210616019
0.149264490272646,1639.61210616019
0.137867083563534,1639.62210616019
0.125784361372026,1639.63210616019
0.113108477438501,1639.64210616019
0.100240763050787,1639.65210616019
0.087122108711569,1639.66210616019
0.0739090406188801,1639.67210616019
0.0604036849036079,1639.68210616019
0.0472429015769322,1639.69210616019
0.0339510222370202,1639.70210616019
0.0211046660175645,1639.71210616019
0.00778644089648918,1639.72210616019
-0.00576895014894348,1639.73210616019
-0.0193471070290624,1639.74210616019
-0.033128282111171,1639.75210616019
-0.0472403542069071,1639.76210616019
-0.0612938306697036,1639.77210616019
-0.0754958222514123,1639.78210616019
-0.0894802532443023,1639.79210616019
-0.102757886926244,1639.80210616019
-0.115839754192047,1639.81210616019
-0.128822991696117,1639.82210616019
-0.141426883270915,1639.83210616019
-0.153788053775454,1639.84210616019
-0.16610440393515,1639.85210616019
-0.178523189255334,1639.86210616019
-0.190770979331109,1639.87210616019
-0.202888148464087,1639.88210616019
-0.2144003840631,1639.89210616019
-0.22585025636831,1639.90210616019
-0.237643993964584,1639.91210616019
-0.249589236076622,1639.92210616019
-0.261617068812232,1639.93210616019
-0.27287279462679,1639.94210616019
-0.28463173810894,1639.95210616019
-0.296267521407522,1639.96210616019
-0.307844165648707,1639.97210616019
-0.319341931530696,1639.98210616019
-0.330178279641999,1639.99210616019
-0.340840386527028,1640.00210616019
-0.35195297808901,1640.01210616019
-0.36296776430123,1640.02210616019
-0.373808220678401,1640.03210616019
-0.384666741028042,1640.04210616019
-0.395108381147361,1640.05210616019
-0.404914522737463,1640.06210616019
-0.414579969358047,1640.07210616019
-0.423895017330605,1640.08210616019
-0.432743839247471,1640.09210616019
-0.441169992743001,1640.10210616019
-0.449862240289338,1640.11210616019
-0.459154899491819,1640.12210616019
-0.469000566934643,1640.13210616019
-0.479108409481525,1640.14210616019
-0.489007023891524,1640.15210616019
-0.496711890560429,1640.16210616019
-0.500194940689451,1640.17210616019
-0.496128911697465,1640.18210616019
-0.481066629796901,1640.19210616019
-0.45132890638799,1640.20210616019
-0.404044989754929,1640.21210616019
-0.33982390834373,1640.22210616019
-0.258936142735738,1640.23210616019
-0.164777394665664,1640.24210616019
-0.0612852031036676,1640.25210616019
0.046760793910488,1640.26210616019
0.154451592675808,1640.27210616019
0.256527352282633,1640.28210616019
0.348455189727365,1640.29210616019
0.427206545247234,1640.30210616019
0.490239656414864,1640.31210616019
0.536901298814416,1640.32210616019
0.567227509422295,1640.33210616019
0.583560551433282,1640.34210616019
0.588019142356297,1640.35210616019
0.58395985826733,1640.36210616019
0.573859297904428,1640.37210616019
0.560616223268867,1640.38210616019
0.545676691271922,1640.39210616019
0.529538049860304,1640.40210616019
0.514022508930883,1640.41210616019
0.499367693812919,1640.42210616019
0.486344014382192,1640.43210616019
0.474252889323297,1640.44210616019
0.461667811250239,1640.45210616019
0.448709789987836,1640.46210616019
0.43373100101118,1640.47210616019
0.416465514435453,1640.48210616019
0.397120536418148,1640.49210616019
0.375945934416033,1640.50210616019
0.353574168983922,1640.51210616019
0.331666975951946,1640.52210616019
0.310474127423996,1640.53210616019
0.291147095751586,1640.54210616019
0.273900840005768,1640.55210616019
0.25947490655446,1640.56210616019
0.24856154654154,1640.57210616019
0.241109252120883,1640.58210616019
0.237072236622944,1640.59210616019
0.236064618182141,1640.60210616019
0.236928971406274,1640.61210616019
0.238040683021822,1640.62210616019
0.240183055109756,1640.63210616019
0.241008966634465,1640.64210616019
0.23990306117106,1640.65210616019
0.237503092405164,1640.66210616019
0.232223114153512,1640.67210616019
0.22469469267976,1640.68210616019
0.215642319267815,1640.69210616019
0.205738972318723,1640.70210616019
0.194377532673087,1640.71210616019
0.182136308781453,1640.72210616019
0.169301829107364,1640.73210616019
0.155834346791648,1640.74210616019
0.14201427147515,1640.75210616019
0.127544186248149,1640.76210616019
0.112777074036279,1640.77210616019
0.0975751868625873,1640.78210616019
0.0823555518655232,1640.79210616019
0.0673014458675855,1640.80210616019
0.0523137945016278,1640.81210616019
0.0380319944662349,1640.82210616019
0.0235637641273437,1640.83210616019
0.00964465550152148,1640.84210616019
-0.00398755543493727,1640.85210616019
-0.0174482499646509,1640.86210616019
-0.0312790932107739,1640.87210616019
-0.0458544618959456,1640.88210616019
-0.0611306382981587,1640.89210616019
-0.0764513238666709,1640.90210616019
-0.0916137241147984,1640.91210616019
-0.106238124922116,1640.92210616019
-0.120372894357143,1640.93210616019
-0.134474627272962,1640.94210616019
-0.148635419830175,1640.95210616019
-0.163168740229282,1640.96210616019
-0.177641216426079,1640.97210616019
-0.192225881185265,1640.98210616019
-0.206052254299479,1640.99210616019
-0.219811968605221,1641.00210616019
-0.234334019754875,1641.01210616019
-0.247727007944291,1641.02210616019
-0.260382387092709,1641.03210616019
-0.272359222216439,1641.04210616019
-0.284284561509986,1641.05210616019
-0.295749872548487,1641.06210616019
-0.307634617214955,1641.07210616019
-0.319260414115053,1641.08210616019
-0.331178501465435,1641.09210616019
-0.342801045052602,1641.10210616019
-0.354256866426199,1641.11210616019
-0.365616788574348,1641.12210616019
-0.376818810855417,1641.13210616019
-0.388144215035079,1641.14210616019
-0.398896755906964,1641.15210616019
-0.410485523113001,1641.16210616019
-0.421666797409609,1641.17210616019
-0.432577041182114,1641.18210616019
-0.443193603102697,1641.19210616019
-0.45361906337691,1641.20210616019
-0.463553856868938,1641.21210616019
-0.472861171178528,1641.22210616019
-0.482034283096095,1641.23210616019
-0.491314028409559,1641.24210616019
-0.50114636237955,1641.25210616019
-0.511232349940974,1641.26210616019
-0.52105752955649,1641.27210616019
-0.52955221214556,1641.28210616019
-0.535376178152126,1641.29210616019
-0.535402329094561,1641.30210616019
-0.52600166303267,1641.31210616019
-0.503171459733926,1641.32210616019
-0.46468136360005,1641.33210616019
-0.407796038767615,1641.34210616019
-0.333514526364066,1641.35210616019
-0.244137762509996,1641.36210616019
-0.142827215313371,1641.37210616019
-0.0341217489007347,1641.38210616019
0.0771369817777928,1641.39210616019
0.185745733502366,1641.40210616019
0.286861361977738,1641.41210616019
0.376324506343929,1641.42210616019
0.450436796145802,1641.43210616019
0.508092548060818,1641.44210616019
0.548773370081128,1641.45210616019
0.574439583516611,1641.46210616019
0.586846738057589,1641.47210616019
0.589555327648133,1641.48210616019
0.58497657976633,1641.49210616019
0.575760162884086,1641.50210616019
0.564390035037996,1641.51210616019
0.552319887741433,1641.52210616019
0.540054484387862,1641.53210616019
0.528030354675565,1641.54210616019
0.517472350631355,1641.55210616019
0.507601055075759,1641.56210616019
0.498615211077802,1641.57210616019
0.489743938996055,1641.58210616019
0.479763952602911,1641.59210616019
0.467777208798701,1641.60210616019
0.453350054026024,1641.61210616019
0.435838828684852,1641.62210616019
0.416265398754732,1641.63210616019
0.394830999673127,1641.64210616019
0.372283675049656,1641.65210616019
0.349967810529598,1641.66210616019
0.328288697739137,1641.67210616019
0.307765105929385,1641.68210616019
0.290381413646535,1641.69210616019
0.275480017773461,1641.70210616019
0.263721669407767,1641.71210616019
0.254991683751597,1641.72210616019
0.249149812208986,1641.73210616019
0.24634302440167,1641.74210616019
0.244859804857218,1641.75210616019
0.244028182021959,1641.76210616019
0.243584187080519,1641.77210616019
0.24186663146747,1641.78210616019
0.239234481271592,1641.79210616019
0.23501731199413,1641.80210616019
0.229415423354001,1641.81210616019
0.222426407997276,1641.82210616019
0.213299100327993,1641.83210616019
0.202929662225067,1641.84210616019
0.191086825921554,1641.85210616019
0.17830027233476,1641.86210616019
0.164736446069725,1641.87210616019
0.15042648522723,1641.88210616019
0.135454721806373,1641.89210616019
0.12015170584305,1641.90210616019
0.104931652368498,1641.91210616019
0.0891449993656484,1641.92210616019
0.0735707014401071,1641.93210616019
0.057533000632832,1641.94210616019
0.0420625655273625,1641.95210616019
0.0267878232828165,1641.96210616019
0.0116758365194867,1641.97210616019
-0.00328205242893675,1641.98210616019
-0.0186391213411057,1641.99210616019
-0.0339697576862601,1642.00210616019
-0.0492941235026714,1642.01210616019
-0.0643729899526496,1642.02210616019
-0.0795207511269649,1642.03210616019
-0.0951581655203994,1642.04210616019
-0.110716913314697,1642.05210616019
-0.126405609137304,1642.06210616019
-0.14198895678552,1642.07210616019
-0.157290818546875,1642.08210616019
-0.172326784559569,1642.09210616019
-0.186768455005107,1642.10210616019
-0.200545306821519,1642.11210616019
-0.213953478578628,1642.12210616019
-0.227221856333531,1642.13210616019
-0.239950888784181,1642.14210616019
-0.253332221513415,1642.15210616019
-0.266904727441786,1642.16210616019
-0.279886334252395,1642.17210616019
-0.292645707970468,1642.18210616019
-0.305008019657272,1642.19210616019
-0.317081412144957,1642.20210616019
-0.32953788184441,1642.21210616019
-0.340973034460448,1642.22210616019
-0.352120384411381,1642.23210616019
-0.362988013934484,1642.24210616019
-0.373681670271508,1642.25210616019
-0.384670709672416,1642.26210616019
-0.395695626176569,1642.27210616019
-0.407313590722027,1642.28210616019
-0.418751250196223,1642.29210616019
-0.429706767370149,1642.30210616019
-0.440691053098414,1642.31210616019
-0.450478611506414,1642.32210616019
-0.460182170021711,1642.33210616019
-0.468779739843214,1642.34210616019
-0.476823765198642,1642.35210616019
-0.485099525243956,1642.36210616019
-0.493068097923134,1642.37210616019
-0.501192172652165,1642.38210616019
-0.509962854082139,1642.39210616019
-0.519081422362726,1642.40210616019
-0.528242132070599,1642.41210616019
-0.536231274934457,1642.42210616019
-0.541019019416593,1642.43210616019
-0.539876131490304,1642.44210616019
-0.52913939220461,1642.45210616019
-0.50482432611045,1642.46210616019
-0.464122787238872,1642.47210616019
-0.405485651319698,1642.48210616019
-0.329329552719637,1642.49210616019
-0.238003757156697,1642.50210616019
-0.135501526199054,1642.51210616019
-0.0252972555542782,1642.52210616019
0.0872546765659909,1642.53210616019
0.196921764983784,1642.54210616019
0.300329070376745,1642.55210616019
0.393534722809884,1642.56210616019
0.47372776139839,1642.57210616019
0.538728766005033,1642.58210616019
0.589129948422088,1642.59210616019
0.625923404441126,1642.60210616019
0.649996797375354,1642.61210616019
0.664427626232136,1642.62210616019
0.671796637603394,1642.63210616019
0.675070701198643,1642.64210616019
0.675966660726565,1642.65210616019
0.67667855820029,1642.66210616019
0.677519110708175,1642.67210616019
0.678921909950675,1642.68210616019
0.680267300121989,1642.69210616019
0.681672926755471,1642.70210616019
0.68272314233073,1642.71210616019
0.682463181478779,1642.72210616019
0.680274203250887,1642.73210616019
0.675016728940534,1642.74210616019
0.665938136621565,1642.75210616019
0.653003047029324,1642.76210616019
0.636500398016798,1642.77210616019
0.618016707459247,1642.78210616019
0.598522785519001,1642.79210616019
0.579016726898861,1642.80210616019
0.560366633944835,1642.81210616019
0.543603702964143,1642.82210616019
0.529160125482651,1642.83210616019
0.517559711726114,1642.84210616019
0.508583041058836,1642.85210616019
0.503186438504994,1642.86210616019
0.500938822772664,1642.87210616019
0.501637549311153,1642.88210616019
0.504087222336644,1642.89210616019
0.507176255791119,1642.90210616019
0.510329046226804,1642.91210616019
0.511923716910582,1642.92210616019
0.512664845599581,1642.93210616019
0.511404402170924,1642.94210616019
0.508641937516785,1642.95210616019
0.504280201775962,1642.96210616019
0.498975507149608,1642.97210616019
0.491798886442766,1642.98210616019
0.484277676655335,1642.99210616019
0.476513817749561,1643.00210616019
0.468334694934075,1643.01210616019
0.460564322626602,1643.02210616019
0.452962141143552,1643.03210616019
0.445294742995831,1643.04210616019
0.438636329009364,1643.05210616019
0.431945626480469,1643.06210616019
0.425310347493652,1643.07210616019
0.418834086490092,1643.08210616019
0.411957845649182,1643.09210616019
0.404740866227716,1643.10210616019
0.397357511364994,1643.11210616019
0.389594117232262,1643.12210616019
0.381897140084552,1643.13210616019
0.374698610850456,1643.14210616019
0.367135427730521,1643.15210616019
0.360063192988117,1643.16210616019
0.352882219134842,1643.17210616019
0.345914414521814,1643.18210616019
0.339555976077105,1643.19210616019
0.332958709157622,1643.20210616019
0.327432086811192,1643.21210616019
0.321673904797979,1643.22210616019
0.315378404669676,1643.23210616019
0.308658868164405,1643.24210616019
0.301476713152871,1643.25210616019
0.294049767805781,1643.26210616019
0.286834005734522,1643.27210616019
0.279935013513569,1643.28210616019
0.273134828670419,1643.29210616019
0.266646768680982,1643.30210616019
0.260312947489423,1643.31210616019
0.253869300976138,1643.32210616019
0.247006635163655,1643.33210616019
0.240810457598954,1643.34210616019
0.233867008971902,1643.35210616019
0.226286891911722,1643.36210616019
0.218423745171861,1643.37210616019
0.210385142822113,1643.38210616019
0.202585767248416,1643.39210616019
0.19474816270721,1643.40210616019
0.187271418507282,1643.41210616019
0.179108850554759,1643.42210616019
0.170470964267595,1643.43210616019
0.16166843100426,1643.44210616019
0.15245032506505,1643.45210616019
0.143061379466135,1643.46210616019
0.133573247865121,1643.47210616019
0.124344119453891,1643.48210616019
0.113494991988628,1643.49210616019
0.101018223269032,1643.50210616019
0.0861026329540746,1643.51210616019
0.0701064411944685,1643.52210616019
0.0538505475481551,1643.53210616019
0.0390016408719968,1643.54210616019
0.0289477237920638,1643.55210616019
0.0270972883549522,1643.56210616019
0.0371392813384385,1643.57210616019
0.0617591671773185,1643.58210616019
0.102956439002932,1643.59210616019
0.161249762379776,1643.60210616019
0.236720201456383,1643.61210616019
0.325534117972443,1643.62210616019
0.42401391310182,1643.63210616019
0.527942230899894,1643.64210616019
0.632163529724272,1643.65210616019
0.731423199938823,1643.66210616019
0.822414535383546,1643.67210616019
0.901344571725935,1643.68210616019
0.965794734571143,1643.69210616019
1.01462789022463,1643.70210616019
1.0487518667403,1643.71210616019
1.06911737691441,1643.72210616019
1.07733005631805,1643.73210616019
1.07561595732021,1643.74210616019
1.0663022327364,1643.75210616019
1.05229840934119,1643.76210616019
1.03459410258288,1643.77210616019
1.01474920143499,1643.78210616019
0.993810266577775,1643.79210616019
0.972423500052838,1643.80210616019
0.951400233117698,1643.81210616019
0.930226766582565,1643.82210616019
0.908554145739631,1643.83210616019
0.885886084110897,1643.84210616019
0.861988501236908,1643.85210616019
0.835957843666667,1643.86210616019
0.808887272528949,1643.87210616019
0.781393691899043,1643.88210616019
0.754470172069253,1643.89210616019
0.728295195686854,1643.90210616019
0.70450689781014,1643.91210616019
0.683194217908395,1643.92210616019
0.665118884240261,1643.93210616019
0.650669259337595,1643.94210616019
0.639776468577973,1643.95210616019
0.633271978068751,1643.96210616019
0.62972786920923,1643.97210616019
0.628803741785409,1643.98210616019
0.629982354595324,1643.99210616019
0.631921771563132,1644.00210616019
0.634373932661087,1644.01210616019
0.635717830244984,1644.02210616019
0.635636446964726,1644.03210616019
0.633102053080231,1644.04210616019
0.628517123208307,1644.05210616019
0.622749617779249,1644.06210616019
0.614601667793211,1644.07210616019
0.604768035056161,1644.08210616019
0.593849959488331,1644.09210616019
0.581981601646482,1644.10210616019
0.569272593390387,1644.11210616019
0.556806852134267,1644.12210616019
0.54403820094093,1644.13210616019
0.531543131150179,1644.14210616019
0.518814604573102,1644.15210616019
0.506040634640694,1644.16210616019
0.492553482248958,1644.17210616019
0.478554025837456,1644.18210616019
0.463872146928883,1644.19210616019
0.448332451678727,1644.20210616019
0.43227805848533,1644.21210616019
0.416274155088453,1644.22210616019
0.400336394249511,1644.23210616019
0.383713706932648,1644.24210616019
0.367057618711936,1644.25210616019
0.350409675277222,1644.26210616019
0.333772779136706,1644.27210616019
0.318000243654069,1644.28210616019
0.302093801360013,1644.29210616019
0.287026716644356,1644.30210616019
0.272508462811132,1644.31210616019
0.258938876309149,1644.32210616019
0.246480475934453,1644.33210616019
0.234772090623453,1644.34210616019
0.223639809981415,1644.35210616019
0.211705319420315,1644.36210616019
0.19895942107103,1644.37210616019
0.185807408195624,1644.38210616019
0.172675096698962,1644.39210616019
0.16013036341184,1644.40210616019
0.148089318289514,1644.41210616019
0.136246042223924,1644.42210616019
0.124787670871232,1644.43210616019
0.113374125682082,1644.44210616019
0.102388217528051,1644.45210616019
0.0914591079285505,1644.46210616019
0.0811711541484952,1644.47210616019
0.0722238115072075,1644.48210616019
0.0651723679328456,1644.49210616019
0.0601078617739839,1644.50210616019
0.0567093927474934,1644.51210616019
0.0540374113670911,1644.52210616019
0.0513373625666571,1644.53210616019
0.0481899959790536,1644.54210616019
0.0448653278760865,1644.55210616019
0.0409343996164821,1644.56210616019
0.0367228029784458,1644.57210616019
0.0329918782901451,1644.58210616019
0.0306004427601109,1644.59210616019
0.0294303824697056,1644.60210616019
0.030572396346798,1644.61210616019
0.0364041813290858,1644.62210616019
0.0501626407599042,1644.63210616019
0.0748049192609192,1644.64210616019
0.113192126220401,1644.65210616019
0.168189773638061,1644.66210616019
0.23939298734995,1644.67210616019
0.325920005776854,1644.68210616019
0.425711722577393,1644.69210616019
0.535770427069149,1644.70210616019
0.65186335676635,1644.71210616019
0.768719648676626,1644.72210616019
0.880990418836081,1644.73210616019
0.984254271545719,1644.74210616019
1.07452523904848,1644.75210616019
1.14956456225245,1644.76210616019
1.20798963002081,1644.77210616019
1.25050310602024,1644.78210616019
1.27825691330786,1644.79210616019
1.29348898856346,1644.80210616019
1.2987993586812,1644.81210616019
1.29714375679858,1644.82210616019
1.29146530586678,1644.83210616019
1.28339941918124,1644.84210616019
1.27409437932782,1644.85210616019
1.26526862053896,1644.86210616019
1.25670223524391,1644.87210616019
1.24837228654871,1644.88210616019
1.24101545993038,1644.89210616019
1.23319268129819,1644.90210616019
1.22485568487008,1644.91210616019
1.21485650796546,1644.92210616019
1.20211078723816,1644.93210616019
1.18647244602562,1644.94210616019
1.16898562710686,1644.95210616019
1.15059067985483,1644.96210616019
1.13161867119952,1644.97210616019
1.11279910129397,1644.98210616019
1.09547075534232,1644.99210616019
1.08067722375165,1645.00210616019
1.06944637068186,1645.01210616019
1.0620310474399,1645.02210616019
1.05847371209332,1645.03210616019
1.05802621657332,1645.04210616019
1.05965177496897,1645.05210616019
1.06321100404644,1645.06210616019
1.06788675458897,1645.07210616019
1.07244824074168,1645.08210616019
1.07667045635431,1645.09210616019
1.08030068293643,1645.10210616019
1.08266392492003,1645.11210616019
1.08354138261743,1645.12210616019
1.08232329510316,1645.13210616019
1.07928489833743,1645.14210616019
1.0738414435815,1645.15210616019
1.06656134704578,1645.16210616019
1.05741228138384,1645.17210616019
1.0465869880561,1645.18210616019
1.03444309616208,1645.19210616019
1.02151758055001,1645.20210616019
1.00765465347805,1645.21210616019
0.994024385460755,1645.22210616019
0.981158026928413,1645.23210616019
0.969342437554093,1645.24210616019
0.958049071399834,1645.25210616019
0.946364181426176,1645.26210616019
0.933108731867763,1645.27210616019
0.918554378870958,1645.28210616019
0.902052748719918,1645.29210616019
0.883471592850621,1645.30210616019
0.86386064094134,1645.31210616019
0.843457877197556,1645.32210616019
0.822896130689668,1645.33210616019
0.802508971981559,1645.34210616019
0.782062850090869,1645.35210616019
0.761654011918107,1645.36210616019
0.741451159455015,1645.37210616019
0.720378676397409,1645.38210616019
0.699405132930726,1645.39210616019
0.678244424906989,1645.40210616019
0.657011191427377,1645.41210616019
0.635712283722834,1645.42210616019
0.614243466097974,1645.43210616019
0.593165714385777,1645.44210616019
0.572586471595639,1645.45210616019
0.551989027688287,1645.46210616019
0.531041730260152,1645.47210616019
0.510445695878784,1645.48210616019
0.49054332926619,1645.49210616019
0.47115150765997,1645.50210616019
0.452316883760033,1645.51210616019
0.433940878908484,1645.52210616019
0.415045427064656,1645.53210616019
0.396449322834539,1645.54210616019
0.377627160910305,1645.55210616019
0.3586131008293,1645.56210616019
0.340116562721609,1645.57210616019
0.321470572106027,1645.58210616019
0.303302470365599,1645.59210616019
0.285467484240555,1645.60210616019
0.268621952197301,1645.61210616019
0.252497544695343,1645.62210616019
0.236592083654833,1645.63210616019
0.222112647798698,1645.64210616019
0.207680787347474,1645.65210616019
0.193703448107401,1645.66210616019
0.179855253271811,1645.67210616019
0.165629016129688,1645.68210616019
0.151625253294106,1645.69210616019
0.137667202961312,1645.70210616019
0.124229884110806,1645.71210616019
0.111948098443352,1645.72210616019
0.10237133712168,1645.73210616019
0.0976049534840879,1645.74210616019
0.100596399490654,1645.75210616019
0.115812524136573,1645.76210616019
0.146009019242969,1645.77210616019
0.192439689615684,1645.78210616019
0.254961246573235,1645.79210616019
0.331419959737788,1645.80210616019
0.41866834536413,1645.81210616019
0.512552770325404,1645.82210616019
0.608955510918727,1645.83210616019
0.703550420266258,1645.84210616019
0.792430921920308,1645.85210616019
0.872064385049953,1645.86210616019
0.939606106637642,1645.87210616019
0.994145671794961,1645.88210616019
1.03539594442922,1645.89210616019
1.06438830325045,1645.90210616019
1.08278212299504,1645.91210616019
1.09223715992701,1645.92210616019
1.09465824493528,1645.93210616019
1.09157544574625,1645.94210616019
1.08533291142141,1645.95210616019
1.07808523002888,1645.96210616019
1.06958647416776,1645.97210616019
1.06136500369274,1645.98210616019
1.05326619632193,1645.99210616019
1.0450459556965,1646.00210616019
1.03647272864619,1646.01210616019
1.02765393039376,1646.02210616019
1.01695062753944,1646.03210616019
1.00387487621653,1646.04210616019
0.987645284864584,1646.05210616019
0.968344747464853,1646.06210616019
0.946368101881905,1646.07210616019
0.921967582118243,1646.08210616019
0.89726042947952,1646.09210616019
0.872740810057087,1646.10210616019
0.849345383998468,1646.11210616019
0.827442268406642,1646.12210616019
0.807410761864746,1646.13210616019
0.789277367847546,1646.14210616019
0.773173284207187,1646.15210616019
0.759616236517031,1646.16210616019
0.748584175949099,1646.17210616019
0.739427338435029,1646.18210616019
0.731523343374343,1646.19210616019
0.724463523187649,1646.20210616019
0.717332131850993,1646.21210616019
0.710572489560552,1646.22210616019
0.703619968303993,1646.23210616019
0.696256890792429,1646.24210616019
0.688386767339765,1646.25210616019
0.680087704405919,1646.26210616019
0.670635411373956,1646.27210616019
0.660410894503014,1646.28210616019
0.64961037949133,1646.29210616019
0.638273528689855,1646.30210616019
0.627128478834116,1646.31210616019
0.615712835528586,1646.32210616019
0.604294572301048,1646.33210616019
0.592439162026598,1646.34210616019
0.579593526703971,1646.35210616019
0.565886262245734,1646.36210616019
0.551399089887634,1646.37210616019
0.535637132977448,1646.38210616019
0.519063266346635,1646.39210616019
0.502256968160931,1646.40210616019
0.485814418125035,1646.41210616019
0.469358087380399,1646.42210616019
0.452648910117094,1646.43210616019
0.436387994893806,1646.44210616019
0.419764432971359,1646.45210616019
0.402751063717338,1646.46210616019
0.385099873810217,1646.47210616019
0.366694685698837,1646.48210616019
0.348990679288029,1646.49210616019
0.331214245901984,1646.50210616019
0.313936531935884,1646.51210616019
0.29603972517897,1646.52210616019
0.278260068524886,1646.53210616019
0.260565966968317,1646.54210616019
0.243112399277556,1646.55210616019
0.224895326069109,1646.56210616019
0.206363304597872,1646.57210616019
0.187655157975495,1646.58210616019
0.168878006749303,1646.59210616019
0.150168539830588,1646.60210616019
0.131258085058783,1646.61210616019
0.112823176682306,1646.62210616019
0.0948565762417083,1646.63210616019
0.0773805734310829,1646.64210616019
0.0605766690787684,1646.65210616019
0.0440973224742696,1646.66210616019
0.0279668403142919,1646.67210616019
0.0118351792905594,1646.68210616019
-0.00389484880022136,1646.69210616019
-0.0200280401745579,1646.70210616019
-0.0364290162552904,1646.71210616019
-0.0526901447624177,1646.72210616019
-0.0688707956420056,1646.73210616019
-0.0851158945216357,1646.74210616019
-0.100732648744685,1646.75210616019
-0.115832482411398,1646.76210616019
-0.130835947126824,1646.77210616019
-0.145771609610009,1646.78210616019
-0.160484582497041,1646.79210616019
-0.174731557721918,1646.80210616019
-0.187500881518991,1646.81210616019
-0.196234257591924,1646.82210616019
-0.198021010187345,1646.83210616019
-0.189827128962881,1646.84210616019
-0.170036083399683,1646.85210616019
-0.137505525924055,1646.86210616019
-0.0928233931715364,1646.87210616019
-0.0387345617847859,1646.88210616019
0.0226961330622616,1646.89210616019
0.0878788674191778,1646.90210616019
0.153877827092722,1646.91210616019
0.217550999762886,1646.92210616019
0.276340682858062,1646.93210616019
0.328147175923688,1646.94210616019
0.371230830135211,1646.95210616019
0.404969510376934,1646.96210616019
0.428708144056582,1646.97210616019
0.443432044965741,1646.98210616019
0.450041709396518,1646.99210616019
0.450316337389486,1647.00210616019
0.44560774789053,1647.01210616019
0.437219145524373,1647.02210616019
0.426092723943511,1647.03210616019
0.413637561946781,1647.04210616019
0.400055732270213,1647.05210616019
0.386072052075549,1647.06210616019
0.372031062223275,1647.07210616019
0.358008841938675,1647.08210616019
0.343388152563292,1647.09210616019
0.328004500945181,1647.10210616019
0.311869985032843,1647.11210616019
0.294358835173309,1647.12210616019
0.276032604163175,1647.13210616019
0.257005676261923,1647.14210616019
0.237422734472875,1647.15210616019
0.217851917110008,1647.16210616019
0.199119404886337,1647.17210616019
0.181116373737457,1647.18210616019
0.164839107693971,1647.19210616019
0.150601010874437,1647.20210616019
0.139574444891984,1647.21210616019
0.131233742688342,1647.22210616019
0.125102325288375,1647.23210616019
0.121430740046662,1647.24210616019
0.119040219725065,1647.25210616019
0.117423719488561,1647.26210616019
0.115865886382871,1647.27210616019
0.114147402902239,1647.28210616019
0.111847743597402,1647.29210616019
0.108400899420581,1647.30210616019
0.103565671690606,1647.31210616019
0.0973937841014876,1647.32210616019
0.0901017752124571,1647.33210616019
0.0815414803060342,1647.34210616019
0.0720681668084963,1647.35210616019
0.0610637883223549,1647.36210616019
0.0496771202942166,1647.37210616019
0.0376847409781608,1647.38210616019
0.0249876212094913,1647.39210616019
0.0127224494785954,1647.40210616019
-4.38708341769366e-05,1647.41210616019
-0.0128072940136693,1647.42210616019
-0.0255873030973266,1647.43210616019
-0.0387589849158986,1647.44210616019
-0.0523695570434726,1647.45210616019
-0.0662744484281888,1647.46210616019
-0.0805717381268572,1647.47210616019
-0.0942760065240605,1647.48210616019
-0.107579932535363,1647.49210616019
-0.120620472908006,1647.50210616019
-0.133352952437236,1647.51210616019
-0.145916243466708,1647.52210616019
-0.157930914887305,1647.53210616019
-0.169827434547378,1647.54210616019
-0.181185963417921,1647.55210616019
-0.191997954801325,1647.56210616019
-0.202787520198845,1647.57210616019
-0.213928998233052,1647.58210616019
-0.225299437727904,1647.59210616019
-0.236247606724094,1647.60210616019
-0.24732750525074,1647.61210616019
-0.258636654661865,1647.62210616019
-0.269197423892113,1647.63210616019
-0.279593985762499,1647.64210616019
-0.290196690971587,1647.65210616019
-0.300546139829893,1647.66210616019
-0.311267520057606,1647.67210616019
-0.321802829889466,1647.68210616019
-0.332697193401604,1647.69210616019
-0.343450240688746,1647.70210616019
-0.353678277299236,1647.71210616019
-0.364132173736166,1647.72210616019
-0.374305143216803,1647.73210616019
-0.384884600588699,1647.74210616019
-0.395746087548229,1647.75210616019
-0.406681529384996,1647.76210616019
-0.417792801347875,1647.77210616019
-0.428041309181404,1647.78210616019
-0.43899185722128,1647.79210616019
-0.449779076110802,1647.80210616019
-0.460760604326219,1647.81210616019
-0.471440506947686,1647.82210616019
-0.481703721669784,1647.83210616019
-0.491222029175205,1647.84210616019
-0.498637791874171,1647.85210616019
-0.501989562214301,1647.86210616019
-0.499327884191901,1647.87210616019
-0.487736978709916,1647.88210616019
-0.465620395832073,1647.89210616019
-0.432416771819868,1647.90210616019
-0.388180493324957,1647.91210616019
-0.334242744449473,1647.92210616019
-0.27401508413904,1647.93210616019
-0.209532129167016,1647.94210616019
-0.144344699717527,1647.95210616019
-0.0809621559434623,1647.96210616019
-0.0225039470882267,1647.97210616019
0.0287883794265351,1647.98210616019
0.0721139381889502,1647.99210616019
0.105945719877682,1648.00210616019
0.131435624548197,1648.01210616019
0.149114624644175,1648.02210616019
0.159504657690748,1648.03210616019
0.164705595364389,1648.04210616019
0.165429296527938,1648.05210616019
0.163289590363223,1648.06210616019
0.158717486885083,1648.07210616019
0.153155850716311,1648.08210616019
0.14699211592947,1648.09210616019
0.140728343535698,1648.10210616019
0.134122037477157,1648.11210616019
0.127558742181778,1648.12210616019
0.121028641939076,1648.13210616019
0.114500706007685,1648.14210616019
0.107129068602582,1648.15210616019
0.0974935392731863,1648.16210616019
0.0862447964004989,1648.17210616019
0.0732277258835971,1648.18210616019
0.0584401063769364,1648.19210616019
0.0433898315807563,1648.20210616019
0.0288742594660139,1648.21210616019
0.015521716062881,1648.22210616019
0.00317206827880157,1648.23210616019
-0.00754276578627391,1648.24210616019
-0.0167088693955129,1648.25210616019
-0.0231792861075853,1648.26210616019
-0.0272814828793187,1648.27210616019
-0.0292076221349734,1648.28210616019
-0.0290612765407978,1648.29210616019
-0.0281565192583343,1648.30210616019
-0.0269313566152055,1648.31210616019
-0.0258671149824768,1648.32210616019
-0.025415533187634,1648.33210616019
-0.0264870929821327,1648.34210616019
-0.0290650497911185,1648.35210616019
-0.0330627961066593,1648.36210616019
-0.0384884631779063,1648.37210616019
-0.0451600584152803,1648.38210616019
-0.0521888053649969,1648.39210616019
-0.0603784976409845,1648.40210616019
-0.0691905632764264,1648.41210616019
-0.0786503888049734,1648.42210616019
-0.0884170106025575,1648.43210616019
-0.0986543635111445,1648.44210616019
-0.108629732825119,1648.45210616019
-0.118436785195019,1648.46210616019
-0.128335285881679,1648.47210616019
-0.138446890968358,1648.48210616019
-0.14925807020258,1648.49210616019
-0.16093065049647,1648.50210616019
-0.173120436408544,1648.51210616019
-0.185352271338485,1648.52210616019
-0.197470348425626,1648.53210616019
-0.209379774352561,1648.54210616019
-0.220440156089145,1648.55210616019
-0.231155685969794,1648.56210616019
-0.241697850756264,1648.57210616019
-0.251803025018653,1648.58210616019
-0.262518464395027,1648.59210616019
-0.273690639277317,1648.60210616019
-0.284549952768692,1648.61210616019
-0.295201293179522,1648.62210616019
-0.305872589066906,1648.63210616019
-0.316329332257836,1648.64210616019
-0.326712435054834,1648.65210616019
-0.337720994775238,1648.66210616019
-0.348595730464038,1648.67210616019
-0.359055530114848,1648.68210616019
-0.368760955264956,1648.69210616019
-0.378538821325072,1648.70210616019
-0.387709412511675,1648.71210616019
-0.397179807617885,1648.72210616019
-0.406339840118299,1648.73210616019
-0.415247046149353,1648.74210616019
-0.424830273322996,1648.75210616019
-0.434916909464625,1648.76210616019
-0.444988168556214,1648.77210616019
-0.455073785236039,1648.78210616019
-0.464380403253055,1648.79210616019
-0.473650356951619,1648.80210616019
-0.482395351755222,1648.81210616019
-0.491446333990944,1648.82210616019
-0.50093712156199,1648.83210616019
-0.511065900681782,1648.84210616019
-0.520868339573881,1648.85210616019
-0.530541468658934,1648.86210616019
-0.54004860525555,1648.87210616019
-0.549081849579546,1648.88210616019
-0.557556675848809,1648.89210616019
-0.565192079603597,1648.90210616019
-0.571153612679487,1648.91210616019
-0.57395690764916,1648.92210616019
-0.571106639349276,1648.93210616019
-0.560846636059753,1648.94210616019
-0.540922190619588,1648.95210616019
-0.511177650108148,1648.96210616019
-0.471932111876803,1648.97210616019
-0.424222086860154,1648.98210616019
-0.369969009298087,1648.99210616019
-0.311710991939566,1649.00210616019
-0.252834803752145,1649.01210616019
-0.196193304331826,1649.02210616019
-0.1439976289572,1649.03210616019
-0.0975993904408513,1649.04210616019
-0.0586037245969676,1649.05210616019
-0.0273705928096423,1649.06210616019
-0.00494739919184179,1649.07210616019
0.0101562032631414,1649.08210616019
0.0188967378403736,1649.09210616019
0.0227864030848776,1649.10210616019
0.0230413073380627,1649.11210616019
0.0213320207533919,1649.12210616019
0.0185007115975228,1649.13210616019
0.0146885210270359,1649.14210616019
0.0108041014894205,1649.15210616019
0.00686775293487615,1649.16210616019
0.00298478172616107,1649.17210616019
-0.00103926723702111,1649.18210616019
-0.00444182627318277,1649.19210616019
-0.00863354552406823,1649.20210616019
-0.0140460480722296,1649.21210616019
-0.0207944986893598,1649.22210616019
-0.0287403647212407,1649.23210616019
-0.0383266169413203,1649.24210616019
-0.049183665671572,1649.25210616019
-0.0609154896717374,1649.26210616019
-0.0732968081496219,1649.27210616019
-0.0857402340142863,1649.28210616019
-0.0981348945940542,1649.29210616019
-0.10922336427436,1649.30210616019
-0.11926824276124,1649.31210616019
-0.127279279200686,1649.32210616019
-0.132861141333084,1649.33210616019
-0.136622651866257,1649.34210616019
-0.138115166638877,1649.35210616019
-0.139101047836743,1649.36210616019
-0.139847585087405,1649.37210616019
-0.140194257594827,1649.38210616019
-0.140814428761033,1649.39210616019
-0.142045733858292,1649.40210616019
-0.144157865700004,1649.41210616019
-0.146966563068077,1649.42210616019
-0.150589715655982,1649.43210616019
-0.155510163530739,1649.44210616019
-0.16144382922735,1649.45210616019
-0.168162836100645,1649.46210616019
-0.175976572215528,1649.47210616019
-0.184090387558334,1649.48210616019
-0.193074824798539,1649.49210616019
-0.202071645015535,1649.50210616019
-0.211206911025507,1649.51210616019
-0.219840484641607,1649.52210616019
-0.227990740775323,1649.53210616019
-0.235999500620592,1649.54210616019
-0.24384082966832,1649.55210616019
-0.252297847800663,1649.56210616019
-0.261487723429631,1649.57210616019
-0.271528974613079,1649.58210616019
-0.28202588310823,1649.59210616019
-0.292741100318264,1649.60210616019
-0.302778512345657,1649.61210616019
-0.312611681758986,1649.62210616019
-0.321445019941885,1649.63210616019
-0.330265580448489,1649.64210616019
-0.339268096704896,1649.65210616019
-0.348509669829203,1649.66210616019
-0.35848142509631,1649.67210616019
-0.368301157013145,1649.68210616019
-0.377545115207543,1649.69210616019
-0.385818387080962,1649.70210616019
-0.394168359910966,1649.71210616019
-0.402412273849615,1649.72210616019
-0.410983246057947,1649.73210616019
-0.419798045416692,1649.74210616019
-0.428672491164456,1649.75210616019
-0.43772956600023,1649.76210616019
-0.446521280028723,1649.77210616019
-0.455486353936688,1649.78210616019
-0.464422859243414,1649.79210616019
-0.472565397206882,1649.80210616019
-0.480633864031164,1649.81210616019
-0.488157100197372,1649.82210616019
-0.49502499624555,1649.83210616019
-0.503078783329227,1649.84210616019
-0.511164233259347,1649.85210616019
-0.519303103482001,1649.86210616019
-0.527263215446409,1649.87210616019
-0.535148480490126,1649.88210616019
-0.542957698731713,1649.89210616019
-0.550345950199526,1649.90210616019
-0.557672179781904,1649.91210616019
-0.564006125843776,1649.92210616019
-0.570208418174463,1649.93210616019
-0.576173533219351,1649.94210616019
-0.582610886652719,1649.95210616019
-0.589007253448093,1649.96210616019
-0.595202247989252,1649.97210616019
-0.601045880561967,1649.98210616019
-0.605498290690864,1649.99210616019
-0.607446810734235,1650.00210616019
-0.604015994550008,1650.01210616019
-0.593825162213769,1650.02210616019
-0.574574825329619,1650.03210616019
-0.545921326603941,1650.04210616019
-0.507557842480342,1650.05210616019
-0.461974779551051,1650.06210616019
-0.411012470926569,1650.07210616019
-0.357062835033292,1650.08210616019
-0.303383279970967,1650.09210616019
-0.251575247467466,1650.10210616019
-0.203617359230337,1650.11210616019
-0.162101930233923,1650.12210616019
-0.127270005155978,1650.13210616019
-0.0999349700528503,1650.14210616019
-0.0796955908913616,1650.15210616019
-0.0658994898808095,1650.16210616019
-0.0577260867577384,1650.17210616019
-0.0542152674930521,1650.18210616019
-0.0541659373770411,1650.19210616019
-0.0563190023310324,1650.20210616019
-0.0593492175332566,1650.21210616019
-0.0626185105707315,1650.22210616019
-0.0655344308419352,1650.23210616019
-0.0688226061929881,1650.24210616019
-0.0712143332432969,1650.25210616019
-0.0736121312506659,1650.26210616019
-0.0766612147736699,1650.27210616019
-0.08002624805676,1650.28210616019
-0.0844854511808308,1650.29210616019
-0.0898832531976769,1650.30210616019
-0.096308494226686,1650.31210616019
-0.104381179988504,1650.32210616019
-0.112970614958175,1650.33210616019
-0.122574808642565,1650.34210616019
-0.132494016611283,1650.35210616019
-0.142697277470725,1650.36210616019
-0.153149813355227,1650.37210616019
-0.162768654254742,1650.38210616019
-0.171668888884833,1650.39210616019
-0.179229120555214,1650.40210616019
-0.184544497980714,1650.41210616019
-0.188040808847615,1650.42210616019
-0.189046458131578,1650.43210616019
-0.188509406495164,1650.44210616019
-0.187560609394057,1650.45210616019
-0.186654915468692,1650.46210616019
-0.186590671042643,1650.47210616019
-0.187728959309018,1650.48210616019
-0.189981389837205,1650.49210616019
-0.193220849425547,1650.50210616019
-0.19759956941929,1650.51210616019
-0.203769462978481,1650.52210616019
-0.210327190613023,1650.53210616019
-0.218353814201429,1650.54210616019
-0.22692952673918,1650.55210616019
-0.235892666264877,1650.56210616019
-0.245494948260312,1650.57210616019
-0.254875686143916,1650.58210616019
-0.264008377688963,1650.59210616019
-0.273860070130799,1650.60210616019
-0.283874170736556,1650.61210616019
-0.29337736144994,1650.62210616019
-0.302869008256139,1650.63210616019
-0.311944719857311,1650.64210616019
-0.320436381018455,1650.65210616019
-0.328903677961013,1650.66210616019
-0.337240834941864,1650.67210616019
-0.34537611329192,1650.68210616019
-0.352779916360139,1650.69210616019
-0.359045054238305,1650.70210616019
-0.364127646506367,1650.71210616019
-0.367978400881855,1650.72210616019
-0.370162207131699,1650.73210616019
-0.371647695649532,1650.74210616019
-0.372848066357502,1650.75210616019
-0.373294671747011,1650.76210616019
-0.373998546655646,1650.77210616019
-0.374366111399736,1650.78210616019
-0.374934141724296,1650.79210616019
-0.37542107379571,1650.80210616019
-0.376866078913733,1650.81210616019
-0.37859987176832,1650.82210616019
-0.380763301232706,1650.83210616019
-0.382680715861507,1650.84210616019
-0.383943964954058,1650.85210616019
-0.384663449301736,1650.86210616019
-0.384810859294698,1650.87210616019
-0.384594228353474,1650.88210616019
-0.383962073294953,1650.89210616019
-0.38369868070639,1650.90210616019
-0.384123205867236,1650.91210616019
-0.385347762438276,1650.92210616019
-0.386733503524457,1650.93210616019
-0.388103765295754,1650.94210616019
-0.38937578984754,1650.95210616019
-0.390628150408231,1650.96210616019
-0.391780422405436,1650.97210616019
-0.391874854771698,1650.98210616019
-0.390950978591313,1650.99210616019
-0.388849019686888,1651.00210616019
-0.385419659439742,1651.01210616019
-0.381030141390269,1651.02210616019
-0.374201770465038,1651.03210616019
-0.365800512175248,1651.04210616019
-0.356187247861495,1651.05210616019
-0.34477677828708,1651.06210616019
-0.33067586012122,1651.07210616019
-0.312524252382877,1651.08210616019
-0.288178081430916,1651.09210616019
-0.254955419471253,1651.10210616019
-0.210785491795753,1651.11210616019
-0.156720657818816,1651.12210616019
-0.0951062907816927,1651.13210616019
-0.0293088796256464,1651.14210616019
0.0361426536277899,1651.15210616019
0.0981970221172096,1651.16210616019
0.153809745136859,1651.17210616019
0.202313671345508,1651.18210616019
0.242677587815235,1651.19210616019
0.274925289947505,1651.20210616019
0.299979164652104,1651.21210616019
0.317767399244433,1651.22210616019
0.329322724064984,1651.23210616019
0.335114195185251,1651.24210616019
0.336966111368362,1651.25210616019
0.335137043106688,1651.26210616019
0.330738217250279,1651.27210616019
0.32432337483524,1651.28210616019
0.317322396815223,1651.29210616019
0.311545024091258,1651.30210616019
0.308028780565569,1651.31210616019
0.306166843116338,1651.32210616019
0.305532425318053,1651.33210616019
0.304110937204999,1651.34210616019
0.300789176386869,1651.35210616019
0.295015142007673,1651.36210616019
0.28609408966319,1651.37210616019
0.274770370542521,1651.38210616019
0.263052579617626,1651.39210616019
0.251458617914535,1651.40210616019
0.240955609583075,1651.41210616019
0.231993511458214,1651.42210616019
0.22553333698731,1651.43210616019
0.222190313383412,1651.44210616019
0.222620141755999,1651.45210616019
0.226632778123742,1651.46210616019
0.233461659519866,1651.47210616019
0.242158879428576,1651.48210616019
0.252312063510573,1651.49210616019
0.263631408643037,1651.50210616019
0.275240990358017,1651.51210616019
0.286438440446674,1651.52210616019
0.29614654475353,1651.53210616019
0.303646170029473,1651.54210616019
0.307760243072249,1651.55210616019
0.309011788926112,1651.56210616019
0.307916691714003,1651.57210616019
0.304787907236048,1651.58210616019
0.301022023793652,1651.59210616019
0.297832515139317,1651.60210616019
0.294782821580875,1651.61210616019
0.291439143139069,1651.62210616019
0.287508882523996,1651.63210616019
0.282485559941158,1651.64210616019
0.2762302035328,1651.65210616019
0.268214183090346,1651.66210616019
0.259367163151674,1651.67210616019
0.249395178772887,1651.68210616019
0.238673575874708,1651.69210616019
0.227485157534924,1651.70210616019
0.215250459652521,1651.71210616019
0.202901346666566,1651.72210616019
0.18946919974028,1651.73210616019
0.175719361237898,1651.74210616019
0.160920755147723,1651.75210616019
0.146136509036588,1651.76210616019
0.13105503485323,1651.77210616019
0.116225284930218,1651.78210616019
0.102025694245499,1651.79210616019
0.0874994294647832,1651.80210616019
0.0734975183407615,1651.81210616019
0.0597675189984029,1651.82210616019
0.0461057282185778,1651.83210616019
0.0330733897525073,1651.84210616019
0.0201901803534383,1651.85210616019
0.00716849409146678,1651.86210616019
-0.00627284555192688,1651.87210616019
-0.0208249337614521,1651.88210616019
-0.036380926570717,1651.89210616019
-0.0523179476673894,1651.90210616019
-0.0687325251437079,1651.91210616019
-0.0847182229384053,1651.92210616019
-0.100114667870436,1651.93210616019
-0.114948996115925,1651.94210616019
-0.129418141629863,1651.95210616019
-0.142843378805164,1651.96210616019
-0.154933762635937,1651.97210616019
-0.165002461535941,1651.98210616019
-0.174996031993353,1651.99210616019
-0.18447309066147,1652.00210616019
-0.193083888609024,1652.01210616019
-0.201897585603218,1652.02210616019
-0.21011206042415,1652.03210616019
-0.217692398053348,1652.04210616019
-0.224874460518276,1652.05210616019
-0.232284581455136,1652.06210616019
-0.240205383814582,1652.07210616019
-0.247841652309232,1652.08210616019
-0.255141347191912,1652.09210616019
-0.261074372451755,1652.10210616019
-0.263471043624655,1652.11210616019
-0.260924505087461,1652.12210616019
-0.250054750501716,1652.13210616019
-0.228643619990879,1652.14210616019
-0.195511680329081,1652.15210616019
-0.151136266440263,1652.16210616019
-0.0967913575792518,1652.17210616019
-0.0337962091924477,1652.18210616019
0.0350275317192861,1652.19210616019
0.107135084367683,1652.20210616019
0.180512733906001,1652.21210616019
0.252155366693097,1652.22210616019
0.320352108831568,1652.23210616019
0.383185224534927,1652.24210616019
0.439603184886535,1652.25210616019
0.48887322721092,1652.26210616019
0.531245595745004,1652.27210616019
0.567875339235914,1652.28210616019
0.599219780254762,1652.29210616019
0.627630716135995,1652.30210616019
0.653525040358544,1652.31210616019
0.678719599480898,1652.32210616019
0.703286192407026,1652.33210616019
0.727466486251938,1652.34210616019
0.752148677932552,1652.35210616019
0.777711712250144,1652.36210616019
0.803413735599649,1652.37210616019
0.829133377051069,1652.38210616019
0.853780315834708,1652.39210616019
0.876090147277556,1652.40210616019
0.894918894895518,1652.41210616019
0.910344066386903,1652.42210616019
0.922263838986349,1652.43210616019
0.931007200612281,1652.44210616019
0.937066703651306,1652.45210616019
0.941653778586223,1652.46210616019
0.945126935807966,1652.47210616019
0.947995037939582,1652.48210616019
0.951105197823212,1652.49210616019
0.954138596918114,1652.50210616019
0.958375443032677,1652.51210616019
0.964057520807405,1652.52210616019
0.970388535766081,1652.53210616019
0.978564202454733,1652.54210616019
0.987059596243398,1652.55210616019
0.996049861123575,1652.56210616019
1.00469628802088,1652.57210616019
1.01287951615057,1652.58210616019
1.01994643683986,1652.59210616019
1.02536532925091,1652.60210616019
1.02940023766716,1652.61210616019
1.03228368378972,1652.62210616019
1.03390173280754,1652.63210616019
1.03460288822488,1652.64210616019
1.03399037399108,1652.65210616019
1.03272277852862,1652.66210616019
1.03020658402846,1652.67210616019
1.02621640029262,1652.68210616019
1.02053006104229,1652.69210616019
1.01352710621394,1652.70210616019
1.00563606335154,1652.71210616019
0.996076811592178,1652.72210616019
0.98642553158642,1652.73210616019
0.975850852046211,1652.74210616019
0.965132522733048,1652.75210616019
0.954109378915297,1652.76210616019
0.941990725911801,1652.77210616019
0.929791592415843,1652.78210616019
0.917162761470995,1652.79210616019
0.904608562862685,1652.80210616019
0.891737556390318,1652.81210616019
0.878223256954878,1652.82210616019
0.864648437413733,1652.83210616019
0.850955671659215,1652.84210616019
0.836445271347147,1652.85210616019
0.822245183637614,1652.86210616019
0.807765659273111,1652.87210616019
0.793186773631765,1652.88210616019
0.777963546955484,1652.89210616019
0.762602733634615,1652.90210616019
0.746685422681391,1652.91210616019
0.730026507963813,1652.92210616019
0.713138446688136,1652.93210616019
0.695233611299933,1652.94210616019
0.677450472725107,1652.95210616019
0.659406154265289,1652.96210616019
0.641076939556417,1652.97210616019
0.623171810960477,1652.98210616019
0.605322604256231,1652.99210616019
0.58728529064458,1653.00210616019
0.569527515937158,1653.01210616019
0.552332657056969,1653.02210616019
0.535807033144704,1653.03210616019
0.518767279987568,1653.04210616019
0.502256625024393,1653.05210616019
0.485829166754255,1653.06210616019
0.47050035569759,1653.07210616019
0.455360517703619,1653.08210616019
0.440717686827139,1653.09210616019
0.426062067938083,1653.10210616019
0.412007037377606,1653.11210616019
0.398583472130588,1653.12210616019
0.385085224526358,1653.13210616019
0.372165079690072,1653.14210616019
0.359204328307924,1653.15210616019
0.346784629366979,1653.16210616019
0.336613710934722,1653.17210616019
0.329521689177095,1653.18210616019
0.327844207590565,1653.19210616019
0.335281396102079,1653.20210616019
0.352844799191736,1653.21210616019
0.38326379478562,1653.22210616019
0.426426213695987,1653.23210616019
0.481804675379401,1653.24210616019
0.548112111609145,1653.25210616019
0.622381444509399,1653.26210616019
0.7012711930094,1653.27210616019
0.781630947815891,1653.28210616019
0.86035555276573,1653.29210616019
0.93317029441133,1653.30210616019
0.998359818456585,1653.31210616019
1.05359328947079,1653.32210616019
1.09781394468878,1653.33210616019
1.1315165746109,1653.34210616019
1.15463935528167,1653.35210616019
1.16834617912244,1653.36210616019
1.17492401119567,1653.37210616019
1.17504983825241,1653.38210616019
1.17082109543716,1653.39210616019
1.16403383933133,1653.40210616019
1.15467257939408,1653.41210616019
1.14336136426541,1653.42210616019
1.12984431929338,1653.43210616019
1.11423781370694,1653.44210616019
1.0965267382446,1653.45210616019
1.07644467485381,1653.46210616019
1.05446170037494,1653.47210616019
1.03003061768913,1653.48210616019
1.00298619691118,1653.49210616019
0.97376936161648,1653.50210616019
0.942090806128349,1653.51210616019
0.909457005054637,1653.52210616019
0.876196486156261,1653.53210616019
0.843738911064445,1653.54210616019
0.81193727752562,1653.55210616019
0.781681463040365,1653.56210616019
0.753481852578964,1653.57210616019
0.727572968246933,1653.58210616019
0.704326647287048,1653.59210616019
0.683815181561546,1653.60210616019
0.666739988215489,1653.61210616019
0.652738818381733,1653.62210616019
0.641089092473981,1653.63210616019
0.630798122428692,1653.64210616019
0.621194879519932,1653.65210616019
0.611502168190813,1653.66210616019
0.601179093001641,1653.67210616019
0.590297968346425,1653.68210616019
0.578387740436429,1653.69210616019
0.565006179640009,1653.70210616019
0.550130030676923,1653.71210616019
0.534239433086205,1653.72210616019
0.517166569963468,1653.73210616019
0.500163176899074,1653.74210616019
0.482550520798045,1653.75210616019
0.46445603934164,1653.76210616019
0.446238563191244,1653.77210616019
0.4275654054229,1653.78210616019
0.4085955599771,1653.79210616019
0.389862797112755,1653.80210616019
0.370743367790613,1653.81210616019
0.35212847311435,1653.82210616019
0.333452366800209,1653.83210616019
0.315208812948428,1653.84210616019
0.296437145110453,1653.85210616019
0.27779103708836,1653.86210616019
0.259399725944853,1653.87210616019
0.240403109250441,1653.88210616019
0.221616754317314,1653.89210616019
0.202977985209502,1653.90210616019
0.184636471542206,1653.91210616019
0.166722364763306,1653.92210616019
0.149682215783405,1653.93210616019
0.133133263324198,1653.94210616019
0.117037386905878,1653.95210616019
0.101772576050869,1653.96210616019
0.0863879020218203,1653.97210616019
0.0707916461741994,1653.98210616019
0.0552011640805967,1653.99210616019
0.0394023406820044,1654.00210616019
0.0234862033178633,1654.01210616019
0.00797763380621799,1654.02210616019
-0.00765253902130123,1654.03210616019
-0.0233917620994481,1654.04210616019
-0.0391641349161369,1654.05210616019
-0.0545135361650532,1654.06210616019
-0.0691665160697871,1654.07210616019
-0.0832075603493266,1654.08210616019
-0.0963517356193778,1654.09210616019
-0.108254487523507,1654.10210616019
-0.119794583428855,1654.11210616019
-0.131414727731367,1654.12210616019
-0.142722358900621,1654.13210616019
-0.154136454399869,1654.14210616019
-0.165048472981528,1654.15210616019
-0.176363058833026,1654.16210616019
-0.187205034671439,1654.17210616019
-0.198169729417916,1654.18210616019
-0.208707377914848,1654.19210616019
-0.219349734225617,1654.20210616019
-0.230138233838747,1654.21210616019
-0.240883367327007,1654.22210616019
-0.251311428049571,1654.23210616019
-0.260791289158057,1654.24210616019
-0.268120773180115,1654.25210616019
-0.272368256154955,1654.26210616019
-0.27090084359196,1654.27210616019
-0.261011606899616,1654.28210616019
-0.240830404497653,1654.29210616019
-0.209015969078138,1654.30210616019
-0.165442400857882,1654.31210616019
-0.111115296346369,1654.32210616019
-0.0477156858893211,1654.33210616019
0.0223378936109375,1654.34210616019
0.095715429551632,1654.35210616019
0.169612591704885,1654.36210616019
0.240757570035452,1654.37210616019
0.305876717540412,1654.38210616019
0.36338209356925,1654.39210616019
0.411277832445578,1654.40210616019
0.45001296010864,1654.41210616019
0.480339182512114,1654.42210616019
0.503503846652384,1654.43210616019
0.520712223951374,1654.44210616019
0.533593317403543,1654.45210616019
0.542715889732772,1654.46210616019
0.549601768847077,1654.47210616019
0.554737854356374,1654.48210616019
0.558830424150937,1654.49210616019
0.562940732107888,1654.50210616019
0.566615862987778,1654.51210616019
0.570383373883223,1654.52210616019
0.573386324345683,1654.53210616019
0.574888749749222,1654.54210616019
0.574437419174314,1654.55210616019
0.571384624207409,1654.56210616019
0.564789538416965,1654.57210616019
0.555736455565494,1654.58210616019
0.543755979908314,1654.59210616019
0.529701980495792,1654.60210616019
0.515620914281464,1654.61210616019
0.501253066638575,1654.62210616019
0.487998995977492,1654.63210616019
0.476490937152266,1654.64210616019
0.466740560888096,1654.65210616019
0.458253298726098,1654.66210616019
0.45203130502218,1654.67210616019
0.447391919130343,1654.68210616019
0.443823133410053,1654.69210616019
0.441487058639549,1654.70210616019
0.440224856846908,1654.71210616019
0.43953631775275,1654.72210616019
0.438770865523218,1654.73210616019
0.437145023766227,1654.74210616019
0.434158211548297,1654.75210616019
0.429541137218903,1654.76210616019
0.423722132583865,1654.77210616019
0.416692419329048,1654.78210616019
0.408835333030314,1654.79210616019
0.400265955786305,1654.80210616019
0.390478354534204,1654.81210616019
0.37986433158301,1654.82210616019
0.368845256445201,1654.83210616019
0.356856766084071,1654.84210616019
0.344484545156333,1654.85210616019
0.331780596722256,1654.86210616019
0.318178001543438,1654.87210616019
0.304865272581738,1654.88210616019
0.291696378855426,1654.89210616019
0.278391963573861,1654.90210616019
0.265171965794865,1654.91210616019
0.251679153556496,1654.92210616019
0.237565851053154,1654.93210616019
0.223270540433302,1654.94210616019
0.209434421782481,1654.95210616019
0.195463450489746,1654.96210616019
0.181590286933755,1654.97210616019
0.167912249560283,1654.98210616019
0.154022716658506,1654.99210616019
0.140213750560478,1655.00210616019
0.126320822314923,1655.01210616019
0.112595368230816,1655.02210616019
0.099429258960597,1655.03210616019
0.0861098343350827,1655.04210616019
0.0725150626952951,1655.05210616019
0.0590767569188393,1655.06210616019
0.0453618938700095,1655.07210616019
0.0322965232906149,1655.08210616019
0.0195657204662789,1655.09210616019
0.00697918386014895,1655.10210616019
-0.00522088282908856,1655.11210616019
-0.0183501133302073,1655.12210616019
-0.0306882227599886,1655.13210616019
-0.0424227719538631,1655.14210616019
-0.0528127756049355,1655.15210616019
-0.0603779527928273,1655.16210616019
-0.0634139021556611,1655.17210616019
-0.060131188737125,1655.18210616019
-0.0485618284545729,1655.19210616019
-0.0260275322671605,1655.20210616019
0.00750667572158328,1655.21210616019
0.0528146175748932,1655.22210616019
0.108455170909211,1655.23210616019
0.172694966977547,1655.24210616019
0.243038519507603,1655.25210616019
0.316054552870463,1655.26210616019
0.388821797594254,1655.27210616019
0.457579506180842,1655.28210616019
0.519624461403339,1655.29210616019
0.573207456358231,1655.30210616019
0.618123487673314,1655.31210616019
0.654393948496185,1655.32210616019
0.683018432049317,1655.33210616019
0.705716889708064,1655.34210616019
0.722426015840395,1655.35210616019
0.735482206682408,1655.36210616019
0.745335881200902,1655.37210616019
0.753637466132816,1655.38210616019
0.759965519738262,1655.39210616019
0.764655318194763,1655.40210616019
0.768743861639681,1655.41210616019
0.77163638714615,1655.42210616019
0.773352246869799,1655.43210616019
0.773386006933827,1655.44210616019
0.770957615032931,1655.45210616019
0.765767922052735,1655.46210616019
0.757274541669985,1655.47210616019
0.745298985538373,1655.48210616019
0.730004512600972,1655.49210616019
0.712349217516446,1655.50210616019
0.692996036585068,1655.51210616019
0.673326493859468,1655.52210616019
0.654002214222779,1655.53210616019
0.63570178544586,1655.54210616019
0.618525925101499,1655.55210616019
0.603733616245597,1655.56210616019
0.591207978904295,1655.57210616019
0.581275554741305,1655.58210616019
0.573317700288458,1655.59210616019
0.567469920610201,1655.60210616019
0.563159719152139,1655.61210616019
0.560030876615314,1655.62210616019
0.55664940542217,1655.63210616019
0.55340666006862,1655.64210616019
0.549464638734782,1655.65210616019
0.543792939743211,1655.66210616019
0.536221552669153,1655.67210616019
0.527017201820923,1655.68210616019
0.516790090247224,1655.69210616019
0.505348553734793,1655.70210616019
0.493077840838542,1655.71210616019
0.480518255288697,1655.72210616019
0.467075386373882,1655.73210616019
0.453152041848784,1655.74210616019
0.438422853774561,1655.75210616019
0.422684371226424,1655.76210616019
0.406595439454,1655.77210616019
0.390219082128211,1655.78210616019
0.373489278891174,1655.79210616019
0.356489074863174,1655.80210616019
0.339824652014321,1655.81210616019
0.323835148104778,1655.82210616019
0.307515765802629,1655.83210616019
0.291255019908023,1655.84210616019
0.273928361493349,1655.85210616019
0.256610511853725,1655.86210616019
0.239368976270061,1655.87210616019
0.222382430176876,1655.88210616019
0.205958005091613,1655.89210616019
0.189196635445081,1655.90210616019
0.173054206743841,1655.91210616019
0.156936275308923,1655.92210616019
0.141832842307076,1655.93210616019
0.127815331213104,1655.94210616019
0.113272098475883,1655.95210616019
0.0996183808492904,1655.96210616019
0.0866336542422632,1655.97210616019
0.075742951332729,1655.98210616019
0.069764291882587,1655.99210616019
0.0715974812218798,1656.00210616019
0.0831079988220493,1656.01210616019
0.106490547170479,1656.02210616019
0.142494568292811,1656.03210616019
0.190048950297155,1656.04210616019
0.247883697931322,1656.05210616019
0.314087354791281,1656.06210616019
0.385328203890793,1656.07210616019
0.458379751430665,1656.08210616019
0.530427771389523,1656.09210616019
0.598048672921976,1656.10210616019
0.658513511908936,1656.11210616019
0.709407833344159,1656.12210616019
0.750706517866218,1656.13210616019
0.782423811214254,1656.14210616019
0.805935375524363,1656.15210616019
0.822330067512736,1656.16210616019
0.83298107172742,1656.17210616019
0.839350681155872,1656.18210616019
0.842105736026036,1656.19210616019
0.842098474614233,1656.20210616019
0.840486385501737,1656.21210616019
0.837549713786784,1656.22210616019
0.833923354736986,1656.23210616019
0.828876207957394,1656.24210616019
0.822263465986273,1656.25210616019
0.812728105764843,1656.26210616019
0.79981515658805,1656.27210616019
0.783128289773271,1656.28210616019
0.762921778275213,1656.29210616019
0.739946865546098,1656.30210616019
0.714998970248058,1656.31210616019
0.689047829860174,1656.32210616019
0.663301107555824,1656.33210616019
0.638727965806773,1656.34210616019
0.616171410495542,1656.35210616019
0.595154783509086,1656.36210616019
0.576180187689309,1656.37210616019
0.559716395235451,1656.38210616019
0.54555066371001,1656.39210616019
0.534108078526266,1656.40210616019
0.525321831317178,1656.41210616019
0.518200351653053,1656.42210616019
0.512131058289713,1656.43210616019
0.506793809339382,1656.44210616019
0.501282651737641,1656.45210616019
0.494340632158379,1656.46210616019
0.48620650419964,1656.47210616019
0.47615238362367,1656.48210616019
0.464261842551051,1656.49210616019
0.450789122531381,1656.50210616019
0.435847366937269,1656.51210616019
0.419200675327194,1656.52210616019
0.40143927701289,1656.53210616019
0.383328317565145,1656.54210616019
0.364463266451051,1656.55210616019
0.345679310361318,1656.56210616019
0.326436517799698,1656.57210616019
0.306673296347773,1656.58210616019
0.286123165482907,1656.59210616019
0.264831631565494,1656.60210616019
0.2433399774861,1656.61210616019
0.221083021078254,1656.62210616019
0.199385840216617,1656.63210616019
0.177796289614315,1656.64210616019
0.157398819833088,1656.65210616019
0.137180493702722,1656.66210616019
0.117709054895533,1656.67210616019
0.0984869065913799,1656.68210616019
0.0794396482230617,1656.69210616019
0.060732876490538,1656.70210616019
0.0420605242717771,1656.71210616019
0.0237174068500141,1656.72210616019
0.00531019639025494,1656.73210616019
-0.012580628827467,1656.74210616019
-0.0312472100603213,1656.75210616019
-0.049748269425789,1656.76210616019
-0.0684388498646569,1656.77210616019
-0.087473690969163,1656.78210616019
-0.106443628591146,1656.79210616019
-0.124802921487506,1656.80210616019
-0.141484352831846,1656.81210616019
-0.154517498490004,1656.82210616019
-0.16129817380816,1656.83210616019
-0.159726988601441,1656.84210616019
-0.146887182478877,1656.85210616019
-0.121757566187189,1656.86210616019
-0.0839368513836929,1656.87210616019
-0.0348584869695798,1656.88210616019
0.0233556692306651,1656.89210616019
0.086947430925842,1656.90210616019
0.152929799147225,1656.91210616019
0.217160520040871,1656.92210616019
0.276371163335233,1656.93210616019
0.328727739425822,1656.94210616019
0.372415695486987,1656.95210616019
0.40689107528095,1656.96210616019
0.432143802744157,1656.97210616019
0.448656672477473,1656.98210616019
0.457971390599487,1656.99210616019
0.460748311633194,1657.00210616019
0.458581160424817,1657.01210616019
0.45219158015239,1657.02210616019
0.443268372576034,1657.03210616019
0.432588732216853,1657.04210616019
0.420922012784188,1657.05210616019
0.408832621050161,1657.06210616019
0.395633756948761,1657.07210616019
0.380877009796261,1657.08210616019
0.363854251975592,1657.09210616019
0.344352283265945,1657.10210616019
0.322182809570104,1657.11210616019
0.297625511737545,1657.12210616019
0.272139621184905,1657.13210616019
0.24699649140609,1657.14210616019
0.222242393926968,1657.15210616019
0.199572850483221,1657.16210616019
0.179009346575499,1657.17210616019
0.16144947871376,1657.18210616019
0.14738334460363,1657.19210616019
0.135962347008597,1657.20210616019
0.127040039111517,1657.21210616019
0.1204402499692,1657.22210616019
0.115196132475634,1657.23210616019
0.111430841652215,1657.24210616019
0.108982005103007,1657.25210616019
0.105903799996106,1657.26210616019
0.101496832540865,1657.27210616019
0.0956576734017374,1657.28210616019
0.0881834214028493,1657.29210616019
0.078838848592964,1657.30210616019
0.0681297485311939,1657.31210616019
0.0556559402663729,1657.32210616019
0.0419897713890205,1657.33210616019
0.0278903972018531,1657.34210616019
0.0128063317975594,1657.35210616019
-0.00289752524091322,1657.36210616019
-0.0195061240818055,1657.37210616019
-0.0365201220916907,1657.38210616019
-0.0538400987376592,1657.39210616019
-0.0710844692256066,1657.40210616019
-0.0882847381138972,1657.41210616019
-0.104789572364369,1657.42210616019
-0.121358265300523,1657.43210616019
-0.137886817197167,1657.44210616019
-0.154597715650066,1657.45210616019
-0.170867728260037,1657.46210616019
-0.187553515635131,1657.47210616019
-0.203875253695002,1657.48210616019
-0.219817956092335,1657.49210616019
-0.235704183619184,1657.50210616019
-0.250420587943947,1657.51210616019
-0.2647752030951,1657.52210616019
-0.279148789547073,1657.53210616019
-0.293272021970748,1657.54210616019
-0.307187149873615,1657.55210616019
-0.320583557215616,1657.56210616019
-0.333483029016726,1657.57210616019
-0.3465417860581,1657.58210616019
-0.359161528768584,1657.59210616019
-0.37255709589266,1657.60210616019
-0.386035958249019,1657.61210616019
-0.399830686764005,1657.62210616019
-0.413199545746786,1657.63210616019
-0.425272155116977,1657.64210616019
-0.435040324398739,1657.65210616019
-0.440587549305011,1657.66210616019
-0.439592357050994,1657.67210616019
-0.429601511350326,1657.68210616019
-0.40932296320418,1657.69210616019
-0.377226830993443,1657.70210616019
-0.333457073551307,1657.71210616019
-0.279722438911024,1657.72210616019
-0.217316946738743,1657.73210616019
-0.15149783869711,1657.74210616019
-0.0850594970725372,1657.75210616019
-0.0211205352061179,1657.76210616019
0.0366225500434123,1657.77210616019
0.0861128991405841,1657.78210616019
0.126330138484746,1657.79210616019
0.157442896170164,1657.80210616019
0.179251742882471,1657.81210616019
0.193973386962872,1657.82210616019
0.203089725366444,1657.83210616019
0.208213619934569,1657.84210616019
0.210734107129949,1657.85210616019
0.211499073734419,1657.86210616019
0.211691934504913,1657.87210616019
0.211812297399925,1657.88210616019
0.211931350005084,1657.89210616019
0.211920381053749,1657.90210616019
0.211486606617678,1657.91210616019
0.209446572989719,1657.92210616019
0.205279654728094,1657.93210616019
0.198969335079513,1657.94210616019
0.189961275723331,1657.95210616019
0.178048983334662,1657.96210616019
0.163208524486995,1657.97210616019
0.146810672995842,1657.98210616019
0.129769966380645,1657.99210616019
0.113173631830247,1658.00210616019
0.0979714927080661,1658.01210616019
0.0843579873278424,1658.02210616019
0.0725284143379198,1658.03210616019
0.0623563039455754,1658.04210616019
0.0532732169754833,1658.05210616019
0.046007970461635,1658.06210616019
0.0403554484285189,1658.07210616019
0.0356159023382306,1658.08210616019
0.0313284316853592,1658.09210616019
0.0268883296508303,1658.10210616019
0.0219124756445423,1658.11210616019
0.0159861895982434,1658.12210616019
0.00881874834028326,1658.13210616019
0.000928373366413643,1658.14210616019
-0.00857268480311907,1658.15210616019
-0.0196320877971641,1658.16210616019
-0.0315520773149671,1658.17210616019
-0.0448797391287301,1658.18210616019
-0.0584987856894896,1658.19210616019
-0.0731276728912348,1658.20210616019
-0.0877839344935919,1658.21210616019
-0.102310655636194,1658.22210616019
-0.116718510816922,1658.23210616019
-0.131234198696959,1658.24210616019
-0.145083523211523,1658.25210616019
-0.158889819439265,1658.26210616019
-0.17275212767974,1658.27210616019
-0.186209401379868,1658.28210616019
-0.199270957654629,1658.29210616019
-0.212133888699648,1658.30210616019
-0.225259503318906,1658.31210616019
-0.238733451385588,1658.32210616019
-0.251986936679538,1658.33210616019
-0.265080658946438,1658.34210616019
-0.278250823747585,1658.35210616019
-0.290788538843574,1658.36210616019
-0.30347203800719,1658.37210616019
-0.3162135402972,1658.38210616019
-0.329439851488504,1658.39210616019
-0.342571829338944,1658.40210616019
-0.355395935685315,1658.41210616019
-0.368108814373928,1658.42210616019
-0.380207958004835,1658.43210616019
-0.392095062448317,1658.44210616019
-0.403669958545091,1658.45210616019
-0.415390314165723,1658.46210616019
-0.427169935364554,1658.47210616019
-0.439123910140585,1658.48210616019
-0.451433114799144,1658.49210616019
-0.462817405393609,1658.50210616019
-0.473870132868772,1658.51210616019
-0.484402425359083,1658.52210616019
-0.494447583180904,1658.53210616019
-0.504754328189381,1658.54210616019
-0.51512568522101,1658.55210616019
-0.525788770060204,1658.56210616019
-0.536263746373852,1658.57210616019
-0.54529873331031,1658.58210616019
-0.550531669716107,1658.59210616019
-0.549923271005647,1658.60210616019
-0.541931322410824,1658.61210616019
-0.524241664225161,1658.62210616019
-0.495724663452983,1658.63210616019
-0.455864567521559,1658.64210616019
-0.404340565751584,1658.65210616019
-0.34334739756839,1658.66210616019
-0.276250550924925,1658.67210616019
-0.205791916466805,1658.68210616019
-0.136776952691753,1658.69210616019
-0.0709509533695931,1658.70210616019
-0.0121980920178626,1658.71210616019
0.0381015483854577,1658.72210616019
0.0786934325742616,1658.73210616019
0.108530002680008,1658.74210616019
0.130020804661926,1658.75210616019
0.14409979976305,1658.76210616019
0.152932271859311,1658.77210616019
0.158236251871136,1658.78210616019
0.161182215416902,1658.79210616019
0.162432018866824,1658.80210616019
0.163546197280609,1658.81210616019
0.165194725107319,1658.82210616019
0.167591210094122,1658.83210616019
0.171063577623174,1658.84210616019
0.175672535519185,1658.85210616019
0.180158337947369,1658.86210616019
0.183209682014401,1658.87210616019
0.183621784798508,1658.88210616019
0.180627473077391,1658.89210616019
0.174232754985326,1658.90210616019
0.164451231275231,1658.91210616019
0.152140157792472,1658.92210616019
0.138558900006847,1658.93210616019
0.12413405995714,1658.94210616019
0.110189203036653,1658.95210616019
0.097661502979166,1658.96210616019
0.0866859858655865,1658.97210616019
0.0776801350057606,1658.98210616019
0.0699880698504923,1658.99210616019
0.0642088434052582,1659.00210616019
0.0601030385250235,1659.01210616019
0.0574385343186936,1659.02210616019
0.0554859930059154,1659.03210616019
0.0542648900281161,1659.04210616019
0.0530855585999155,1659.05210616019
0.052137603221024,1659.06210616019
0.0501846072642381,1659.07210616019
0.0476374511040635,1659.08210616019
0.0433881766638411,1659.09210616019
0.0373376201866766,1659.10210616019
0.0294600197141385,1659.11210616019
0.0208029939852918,1659.12210616019
0.0111037215476461,1659.13210616019
0.000272222343131282,1659.14210616019
-0.0106363596382971,1659.15210616019
-0.0226318809135738,1659.16210616019
-0.0348782295708152,1659.17210616019
-0.0472314595755883,1659.18210616019
-0.0602034033936451,1659.19210616019
-0.0731573489217093,1659.20210616019
-0.0865334079436479,1659.21210616019
-0.0994893468057725,1659.22210616019
-0.112436883237213,1659.23210616019
-0.125475652552388,1659.24210616019
-0.139003299314801,1659.25210616019
-0.152828028337915,1659.26210616019
-0.166521226988058,1659.27210616019
-0.180083231139849,1659.28210616019
-0.193098982072061,1659.29210616019
-0.205636532782564,1659.30210616019
-0.217785063685695,1659.31210616019
-0.230418402573902,1659.32210616019
-0.242851042480778,1659.33210616019
-0.255787064304031,1659.34210616019
-0.268397130741586,1659.35210616019
-0.280871299613404,1659.36210616019
-0.293031005829048,1659.37210616019
-0.304356235242757,1659.38210616019
-0.315391258315178,1659.39210616019
-0.325686568259963,1659.40210616019
-0.335877144579493,1659.41210616019
-0.345994527746123,1659.42210616019
-0.355907614322588,1659.43210616019
-0.365790339824047,1659.44210616019
-0.376004755629279,1659.45210616019
-0.386502653555313,1659.46210616019
-0.39729016311899,1659.47210616019
-0.407368485260055,1659.48210616019
-0.417114712008171,1659.49210616019
-0.426497855492801,1659.50210616019
-0.436346251787456,1659.51210616019
-0.446357464805447,1659.52210616019
-0.456410840985979,1659.53210616019
-0.466213068283959,1659.54210616019
-0.476613473720734,1659.55210616019
-0.486787614483433,1659.56210616019
-0.496896832515415,1659.57210616019
-0.506508682945899,1659.58210616019
-0.514884739665483,1659.59210616019
-0.521716382320677,1659.60210616019
-0.524925632165044,1659.61210616019
-0.521859008390027,1659.62210616019
-0.510882069470968,1659.63210616019
-0.488698917239112,1659.64210616019
-0.454646133112164,1659.65210616019
-0.408185194191063,1659.66210616019
-0.351292913423654,1659.67210616019
-0.286994311119703,1659.68210616019
-0.217220739106683,1659.69210616019
-0.14583634589176,1659.70210616019
-0.0759210209521094,1659.71210616019
-0.0109018303444767,1659.72210616019
0.0462700901629202,1659.73210616019
0.0934233599502027,1659.74210616019
0.130846350022192,1659.75210616019
0.158822156211193,1659.76210616019
0.178204011482604,1659.77210616019
0.191121181973875,1659.78210616019
0.198743437663884,1659.79210616019
0.201992144527697,1659.80210616019
0.202838533264288,1659.81210616019
0.202666280862203,1659.82210616019
0.20210857458521,1659.83210616019
0.203051895726721,1659.84210616019
0.20523207720339,1659.85210616019
0.20851955827586,1659.86210616019
0.212530891582847,1659.87210616019
0.215045205464865,1659.88210616019
0.215657026536226,1659.89210616019
0.212866347500849,1659.90210616019
0.20667256536385,1659.91210616019
0.197075716400968,1659.92210616019
0.184197462281808,1659.93210616019
0.169490087080459,1659.94210616019
0.153350352084933,1659.95210616019
0.136309145084529,1659.96210616019
0.11979165226832,1659.97210616019
0.103877639721313,1659.98210616019
0.0901310683291237,1659.99210616019
0.0787863118295908,1660.00210616019
0.0685556810477369,1660.01210616019
0.0604822515250487,1660.02210616019
0.0539840704329333,1660.03210616019
0.0492746675203541,1660.04210616019
0.0463573719709041,1660.05210616019
0.0444308568208813,1660.06210616019
0.0429464052360063,1660.07210616019
0.0406434462858578,1660.08210616019
0.0371436824886267,1660.09210616019
0.0319172987216607,1660.10210616019
0.0245529640486399,1660.11210616019
0.0149564162967915,1660.12210616019
0.00442939250889306,1660.13210616019
-0.00718730339049172,1660.14210616019
-0.0194542506171471,1660.15210616019
-0.0324464020469916,1660.16210616019
-0.0463344527872447,1660.17210616019
-0.0609716435041303,1660.18210616019
-0.0759711148749867,1660.19210616019
-0.0916597660935368,1660.20210616019
-0.107392581002185,1660.21210616019
-0.123120392051763,1660.22210616019
-0.139207719686449,1660.23210616019
-0.155071728819724,1660.24210616019
-0.171702081396923,1660.25210616019
-0.188602742721505,1660.26210616019
-0.205338704263545,1660.27210616019
-0.221905891519072,1660.28210616019
-0.237807338708538,1660.29210616019
-0.252760682081686,1660.30210616019
-0.267140221264695,1660.31210616019
-0.282095804173485,1660.32210616019
-0.296438103678847,1660.33210616019
-0.311047921994567,1660.34210616019
-0.325209432692525,1660.35210616019
-0.338357982986882,1660.36210616019
-0.351318419668684,1660.37210616019
-0.364290165134927,1660.38210616019
-0.376858473467172,1660.39210616019
-0.389394217299575,1660.40210616019
-0.402582895158551,1660.41210616019
-0.415353006970982,1660.42210616019
-0.428841695731305,1660.43210616019
-0.442007539771074,1660.44210616019
-0.455060337897743,1660.45210616019
-0.467917410264402,1660.46210616019
-0.480649567428063,1660.47210616019
-0.49338931789572,1660.48210616019
-0.506452384626357,1660.49210616019
-0.51947920385939,1660.50210616019
-0.532632259734582,1660.51210616019
-0.54517003207816,1660.52210616019
-0.55787846497171,1660.53210616019
-0.569875295337041,1660.54210616019
-0.581570273392391,1660.55210616019
-0.59305656843207,1660.56210616019
-0.604403376100956,1660.57210616019
-0.615998022357825,1660.58210616019
-0.627251201334223,1660.59210616019
-0.638344687403707,1660.60210616019
-0.649102134858879,1660.61210616019
-0.659165918356198,1660.62210616019
-0.669278861352673,1660.63210616019
-0.679348190646563,1660.64210616019
-0.68921126467107,1660.65210616019
-0.699858859841988,1660.66210616019
-0.711681562608278,1660.67210616019
-0.724123666803671,1660.68210616019
-0.736166497932233,1660.69210616019
-0.747364220760853,1660.70210616019
-0.756706750548766,1660.71210616019
-0.761358474144323,1660.72210616019
-0.760177315729361,1660.73210616019
-0.751148752400271,1660.74210616019
-0.732448674027244,1660.75210616019
-0.702540060821716,1660.76210616019
-0.661394765558264,1660.77210616019
-0.609269978825817,1660.78210616019
-0.548117321091642,1660.79210616019
-0.480505376679902,1660.80210616019
-0.409980366725005,1660.81210616019
-0.339429063210398,1660.82210616019
-0.272871693601434,1660.83210616019
-0.213333288181193,1660.84210616019
-0.162632721786574,1660.85210616019
-0.122441394626464,1660.86210616019
-0.092431863440512,1660.87210616019
-0.071379622997973,1660.88210616019
-0.0589293869672783,1660.89210616019
-0.0529931411775149,1660.90210616019
-0.0522836115945037,1660.91210616019
-0.0541823333424545,1660.92210616019
-0.0576754916339406,1660.93210616019
-0.061799458883737,1660.94210616019
-0.0654688443091422,1660.95210616019
-0.0692013754215039,1660.96210616019
-0.0733693421001431,1660.97210616019
-0.0782323435804367,1660.98210616019
-0.084255719905007,1660.99210616019
-0.0912985459557426,1661.00210616019
-0.100404052996317,1661.01210616019
-0.110956046381508,1661.02210616019
-0.122172737237038,1661.03210616019
-0.133555445349941,1661.04210616019
-0.144530052329349,1661.05210616019
-0.153939186749761,1661.06210616019
-0.161588611049835,1661.07210616019
-0.167156543126795,1661.08210616019
-0.170115129712722,1661.09210616019
-0.17071165587338,1661.10210616019
-0.169416892828015,1661.11210616019
-0.165626160709973,1661.12210616019
-0.160369063748719,1661.13210616019
-0.154034119062193,1661.14210616019
-0.147228716246527,1661.15210616019
-0.140928475240043,1661.16210616019
-0.135994418048673,1661.17210616019
-0.133169999051844,1661.18210616019
-0.132305387550478,1661.19210616019
-0.133345693760104,1661.20210616019
-0.136158256466387,1661.21210616019
-0.140614799010127,1661.22210616019
-0.146098508803386,1661.23210616019
-0.152257363599987,1661.24210616019
-0.159677281992053,1661.25210616019
-0.168069170128888,1661.26210616019
-0.176984286644268,1661.27210616019
-0.185944604605039,1661.28210616019
-0.194792614480205,1661.29210616019
-0.203653762840917,1661.30210616019
-0.212258611601848,1661.31210616019
-0.220933619808748,1661.32210616019
-0.229247276281693,1661.33210616019
-0.237491923569926,1661.34210616019
-0.245772355988822,1661.35210616019
-0.254265376757072,1661.36210616019
-0.263292052425808,1661.37210616019
-0.272057084232192,1661.38210616019
-0.280702076467035,1661.39210616019
-0.288920525309275,1661.40210616019
-0.296688411300784,1661.41210616019
-0.304165902087579,1661.42210616019
-0.311069632121457,1661.43210616019
-0.318293040406698,1661.44210616019
-0.325514619288996,1661.45210616019
-0.333645498694355,1661.46210616019
-0.341361992983235,1661.47210616019
-0.349967069982851,1661.48210616019
-0.358382651565553,1661.49210616019
-0.366339616929993,1661.50210616019
-0.374973754304627,1661.51210616019
-0.383343422695097,1661.52210616019
-0.392336713983451,1661.53210616019
-0.400968451409558,1661.54210616019
-0.409233693431174,1661.55210616019
-0.416683525775157,1661.56210616019
-0.423769064256341,1661.57210616019
-0.430702079426485,1661.58210616019
-0.437546302045272,1661.59210616019
-0.444276734994256,1661.60210616019
-0.45080118044886,1661.61210616019
-0.457812669485106,1661.62210616019
-0.464311351300786,1661.63210616019
-0.470835820241614,1661.64210616019
-0.477081657586306,1661.65210616019
-0.483538904779483,1661.66210616019
-0.489834642564991,1661.67210616019
-0.496788709951275,1661.68210616019
-0.503380850115413,1661.69210616019
-0.509510247464569,1661.70210616019
-0.515738038948712,1661.71210616019
-0.52194176115092,1661.72210616019
-0.528203908160679,1661.73210616019
-0.533892458616942,1661.74210616019
-0.539286466025698,1661.75210616019
-0.543214919666998,1661.76210616019
-0.544334888400878,1661.77210616019
-0.54053591382064,1661.78210616019
-0.528478715869662,1661.79210616019
-0.50670746814379,1661.80210616019
-0.47302030833708,1661.81210616019
-0.426983521691462,1661.82210616019
-0.369212634705844,1661.83210616019
-0.302017795470386,1661.84210616019
-0.227034742722904,1661.85210616019
-0.147448546624846,1661.86210616019
-0.0673104882746629,1661.87210616019
0.00982905923079119,1661.88210616019
0.080677515101882,1661.89210616019
0.142583591605565,1661.90210616019
0.194368725164258,1661.91210616019
0.236384844268329,1661.92210616019
0.267925310702568,1661.93210616019
0.290780887762263,1661.94210616019
0.30668398708567,1661.95210616019
0.316721232588838,1661.96210616019
0.323560667249424,1661.97210616019
0.328120554906026,1661.98210616019
0.332014836244253,1661.99210616019
0.335911192836264,1662.00210616019
0.340155175657204,1662.01210616019
0.344636252247369,1662.02210616019
0.349250962923428,1662.03210616019
0.353564247706713,1662.04210616019
0.356183802923229,1662.05210616019
0.35713129370631,1662.06210616019
0.354671879499135,1662.07210616019
0.348985106444195,1662.08210616019
0.340422998167499,1662.09210616019
0.329073027752027,1662.10210616019
0.315862109954827,1662.11210616019
0.302006289030821,1662.12210616019
0.287830533735744,1662.13210616019
0.274747702198353,1662.14210616019
0.263165182576411,1662.15210616019
0.252905259455671,1662.16210616019
0.245084268469937,1662.17210616019
0.23911687841876,1662.18210616019
0.23480148792755,1662.19210616019
0.232123456052797,1662.20210616019
0.231561711909554,1662.21210616019
0.231696611745939,1662.22210616019
0.232354794324054,1662.23210616019
0.232696215523975,1662.24210616019
0.233249514204579,1662.25210616019
0.23318537905333,1662.26210616019
0.231693692762778,1662.27210616019
0.228535323589655,1662.28210616019
0.223103102658476,1662.29210616019
0.216420362322041,1662.30210616019
0.208397572427367,1662.31210616019
0.199276286345266,1662.32210616019
0.189696261209275,1662.33210616019
0.179432960541484,1662.34210616019
0.168459972164293,1662.35210616019
0.157174001881855,1662.36210616019
0.144757327545024,1662.37210616019
0.132323205989401,1662.38210616019
0.120164318352433,1662.39210616019
0.108269048606974,1662.40210616019
0.0962422893440385,1662.41210616019
0.0841179943846048,1662.42210616019
0.0711700210819391,1662.43210616019
0.0578307877745572,1662.44210616019
0.0441393990574477,1662.45210616019
0.0304327677866867,1662.46210616019
0.0164480710897831,1662.47210616019
0.00257579450288291,1662.48210616019
-0.0110222946538497,1662.49210616019
-0.0240968929766047,1662.50210616019
-0.037307703911807,1662.51210616019
-0.0499952455915999,1662.52210616019
-0.062687847466379,1662.53210616019
-0.0752863837669731,1662.54210616019
-0.0877857285109367,1662.55210616019
-0.0999583826048603,1662.56210616019
-0.111807399978322,1662.57210616019
-0.123207452024739,1662.58210616019
-0.133944725935348,1662.59210616019
-0.144356024600671,1662.60210616019
-0.154560598644619,1662.61210616019
-0.165009326584503,1662.62210616019
-0.175614996831426,1662.63210616019
-0.186035292186666,1662.64210616019
-0.196361674466388,1662.65210616019
-0.206777675087473,1662.66210616019
-0.217512518518205,1662.67210616019
-0.227882176803098,1662.68210616019
-0.238517962483796,1662.69210616019
-0.248382798426337,1662.70210616019
-0.25783444125735,1662.71210616019
-0.267221584348235,1662.72210616019
-0.276919853775675,1662.73210616019
-0.286384547216742,1662.74210616019
-0.296248472920493,1662.75210616019
-0.305787764750136,1662.76210616019
-0.314859651903088,1662.77210616019
-0.323847768784887,1662.78210616019
-0.332881095614464,1662.79210616019
-0.341612181044049,1662.80210616019
-0.350379233651399,1662.81210616019
-0.359088306348241,1662.82210616019
-0.366843706236881,1662.83210616019
-0.375095262955297,1662.84210616019
-0.382952484589508,1662.85210616019
-0.391503865027657,1662.86210616019
-0.399741851854397,1662.87210616019
-0.407476172016662,1662.88210616019
-0.412734301806045,1662.89210616019
-0.414255177745932,1662.90210616019
-0.409051963599618,1662.91210616019
-0.394777525115092,1662.92210616019
-0.369779420203566,1662.93210616019
-0.332180754912657,1662.94210616019
-0.282458125911435,1662.95210616019
-0.221251678159396,1662.96210616019
-0.150328510895951,1662.97210616019
-0.0720014022625809,1662.98210616019
0.00974689072528699,1662.99210616019
0.0902188638660857,1663.00210616019
0.165642505646074,1663.01210616019
0.232914768417941,1663.02210616019
0.290317347885087,1663.03210616019
0.336105070382806,1663.04210616019
0.370847566995061,1663.05210616019
0.395503199722842,1663.06210616019
0.411119244850815,1663.07210616019
0.419954558343316,1663.08210616019
0.422937413863677,1663.09210616019
0.422281932466264,1663.10210616019
0.419956447733234,1663.11210616019
0.417191596729934,1663.12210616019
0.414437511467863,1663.13210616019
0.412714951574686,1663.14210616019
0.412228246069811,1663.15210616019
0.412315915356935,1663.16210616019
0.412836198252991,1663.17210616019
0.412547798778209,1663.18210616019
0.409458685250601,1663.19210616019
0.403523999038999,1663.20210616019
0.394894360705945,1663.21210616019
0.382892050033114,1663.22210616019
0.369276399474714,1663.23210616019
0.354144332418815,1663.24210616019
0.338232449061987,1663.25210616019
0.322145805329291,1663.26210616019
0.30652737670731,1663.27210616019
0.292192421980763,1663.28210616019
0.279632308566812,1663.29210616019
0.269003093661422,1663.30210616019
0.260934641555692,1663.31210616019
0.256326337924591,1663.32210616019
0.253403853754126,1663.33210616019
0.251802542891351,1663.34210616019
0.250927035411646,1663.35210616019
0.249726001467089,1663.36210616019
0.247654984047643,1663.37210616019
0.244672146790264,1663.38210616019
0.240333048457331,1663.39210616019
0.234361113667979,1663.40210616019
0.226967085458343,1663.41210616019
0.217862581490225,1663.42210616019
0.207444704077355,1663.43210616019
0.196721276805508,1663.44210616019
0.184314475916338,1663.45210616019
0.171927807383084,1663.46210616019
0.158394303357854,1663.47210616019
0.1439592465187,1663.48210616019
0.129458632979854,1663.49210616019
0.114219792142701,1663.50210616019
0.0989442925375685,1663.51210616019
0.083121511759213,1663.52210616019
0.0673244734879311,1663.53210616019
0.0511934125396682,1663.54210616019
0.0353653957086111,1663.55210616019
0.0195623128016667,1663.56210616019
0.00403744515023701,1663.57210616019
-0.0114084756132455,1663.58210616019
-0.0268479251412739,1663.59210616019
-0.0421693465693605,1663.60210616019
-0.0575634160959332,1663.61210616019
-0.0730328679512052,1663.62210616019
-0.0882762048145436,1663.63210616019
-0.102896099548618,1663.64210616019
-0.117488490232501,1663.65210616019
-0.131777013812725,1663.66210616019
-0.145880178265748,1663.67210616019
-0.159901173038444,1663.68210616019
-0.173400725341241,1663.69210616019
-0.186770035797919,1663.70210616019
-0.199857452186945,1663.71210616019
-0.212522583390938,1663.72210616019
-0.225368756797537,1663.73210616019
-0.237798865766866,1663.74210616019
-0.249807069107684,1663.75210616019
-0.261288752830499,1663.76210616019
-0.272693597643961,1663.77210616019
-0.284499156740996,1663.78210616019
-0.296098956361866,1663.79210616019
-0.30818779716301,1663.80210616019
-0.320402998328344,1663.81210616019
-0.333037391565076,1663.82210616019
-0.345243302420273,1663.83210616019
-0.356709307584277,1663.84210616019
-0.367680598285358,1663.85210616019
-0.378097084368485,1663.86210616019
-0.388335639435845,1663.87210616019
-0.39846018153323,1663.88210616019
-0.408290024161916,1663.89210616019
-0.418379149906278,1663.90210616019
-0.428301873139618,1663.91210616019
-0.439024603733131,1663.92210616019
-0.449458815850957,1663.93210616019
-0.459685919260865,1663.94210616019
-0.469594452479717,1663.95210616019
-0.479006093390917,1663.96210616019
-0.487640702576621,1663.97210616019
-0.494580748813233,1663.98210616019
-0.497783222277024,1663.99210616019
-0.494808792182928,1664.00210616019
-0.482630724397134,1664.01210616019
-0.460510241290755,1664.02210616019
-0.427046706138872,1664.03210616019
-0.382445644660698,1664.04210616019
-0.329387182634325,1664.05210616019
-0.269621808606922,1664.06210616019
-0.206598875223544,1664.07210616019
-0.144083130350489,1664.08210616019
-0.084446270776958,1664.09210616019
-0.0309783814303189,1664.10210616019
0.0147805944071995,1664.11210616019
0.051068343605507,1664.12210616019
0.0776424910315926,1664.13210616019
0.0953522894864446,1664.14210616019
0.105031584772671,1664.15210616019
0.108083395381795,1664.16210616019
0.105764511198359,1664.17210616019
0.0996508299882462,1664.18210616019
0.0916080614277959,1664.19210616019
0.0830384102743983,1664.20210616019
0.0740412693516642,1664.21210616019
0.0659244779891025,1664.22210616019
0.0581060624498058,1664.23210616019
0.0504924201458859,1664.24210616019
0.0427275201622285,1664.25210616019
0.0336198526917335,1664.26210616019
0.0234227725299157,1664.27210616019
0.0114595210177107,1664.28210616019
-0.00139955605247029,1664.29210616019
-0.0155176071225183,1664.30210616019
-0.0298851593498269,1664.31210616019
-0.0429096460011245,1664.32210616019
-0.0549082135065525,1664.33210616019
-0.0643653216945637,1664.34210616019
-0.0712613668152067,1664.35210616019
-0.0754168236661766,1664.36210616019
-0.0776286067831971,1664.37210616019
-0.0775854153247373,1664.38210616019
-0.0757406284750252,1664.39210616019
-0.0730704705686562,1664.40210616019
-0.0697829319275681,1664.41210616019
-0.0667285411693912,1664.42210616019
-0.065047540338879,1664.43210616019
-0.0640608493833597,1664.44210616019
-0.0642294034523904,1664.45210616019
-0.0667497845401045,1664.46210616019
-0.070406939389836,1664.47210616019
-0.0762024465947648,1664.48210616019
-0.0827301618883858,1664.49210616019
-0.0897754070067618,1664.50210616019
-0.0977491215977318,1664.51210616019
-0.106294540860015,1664.52210616019
-0.114385408225592,1664.53210616019
-0.123011677824098,1664.54210616019
-0.131616369650581,1664.55210616019
-0.140791632062237,1664.56210616019
-0.150277448562478,1664.57210616019
-0.159486337650951,1664.58210616019
-0.16883609653109,1664.59210616019
-0.178088355879301,1664.60210616019
-0.187221301181054,1664.61210616019
-0.196349399729199,1664.62210616019
-0.205559007953408,1664.63210616019
-0.214666666422324,1664.64210616019
-0.223776372341445,1664.65210616019
-0.23331443074479,1664.66210616019
-0.242599025269003,1664.67210616019
-0.251746214603394,1664.68210616019
-0.261198463629777,1664.69210616019
-0.270690365559244,1664.70210616019
-0.280050740416523,1664.71210616019
-0.290164209877295,1664.72210616019
-0.300313397714774,1664.73210616019
-0.31019049386341,1664.74210616019
-0.319920608040922,1664.75210616019
-0.329209326122285,1664.76210616019
-0.337952534107759,1664.77210616019
-0.346850470887825,1664.78210616019
-0.355656993751172,1664.79210616019
-0.364127216302045,1664.80210616019
-0.372367699822013,1664.81210616019
-0.380048099491698,1664.82210616019
-0.387017980678061,1664.83210616019
-0.393246566277627,1664.84210616019
-0.399760505540849,1664.85210616019
-0.406495497174212,1664.86210616019
-0.413877433442421,1664.87210616019
-0.421945136267485,1664.88210616019
-0.429856356414918,1664.89210616019
-0.43814083484929,1664.90210616019
-0.445497829788915,1664.91210616019
-0.452306312865997,1664.92210616019
-0.458460881626015,1664.93210616019
-0.464323536008624,1664.94210616019
-0.470254159314456,1664.95210616019
-0.476319637029358,1664.96210616019
-0.482480309717932,1664.97210616019
-0.488843062834282,1664.98210616019
-0.495216841955247,1664.99210616019
-0.501315090082902,1665.00210616019
-0.507445125909935,1665.01210616019
-0.514147754882589,1665.02210616019
-0.520152495834551,1665.03210616019
-0.525568101392776,1665.04210616019
-0.529431593702805,1665.05210616019
-0.529807606404393,1665.06210616019
-0.524321831573164,1665.07210616019
-0.51100715467606,1665.08210616019
-0.488327092629631,1665.09210616019
-0.455769718688005,1665.10210616019
-0.413022173585261,1665.11210616019
-0.361989721796244,1665.12210616019
-0.30446084620626,1665.13210616019
-0.243076637948644,1665.14210616019
-0.181143205177233,1665.15210616019
-0.120972175644303,1665.16210616019
-0.0653496954320101,1665.17210616019
-0.016930091747047,1665.18210616019
0.0236900817658383,1665.19210616019
0.0552403394093519,1665.20210616019
0.0782973042974154,1665.21210616019
0.0935016690552081,1665.22210616019
0.102818615115504,1665.23210616019
0.107071171600434,1665.24210616019
0.108784373493367,1665.25210616019
0.10839228238798,1665.26210616019
0.107957978305511,1665.27210616019
0.107807362901472,1665.28210616019
0.108306795564302,1665.29210616019
0.11007166428061,1665.30210616019
0.113142233261629,1665.31210616019
0.117369860857309,1665.32210616019
0.121847859692605,1665.33210616019
0.125237353583067,1665.34210616019
0.126893460597306,1665.35210616019
0.125485467898904,1665.36210616019
0.121258733426297,1665.37210616019
0.114376191631061,1665.38210616019
0.106442066355251,1665.39210616019
0.0976839988649809,1665.40210616019
0.0882567027858777,1665.41210616019
0.0797138897363837,1665.42210616019
0.0717048930044267,1665.43210616019
0.0646809226419045,1665.44210616019
0.058597609493475,1665.45210616019
0.0536029133250443,1665.46210616019
0.0498026297672555,1665.47210616019
0.0470508540612212,1665.48210616019
0.0452667883477362,1665.49210616019
0.0437223202936466,1665.50210616019
0.0427377977380091,1665.51210616019
0.0416977885965813,1665.52210616019
0.0405692587986196,1665.53210616019
0.0381586642465031,1665.54210616019
0.0335813706201775,1665.55210616019
0.0272508011748888,1665.56210616019
0.0190569467457136,1665.57210616019
0.00967455379319279,1665.58210616019
-0.000331755040116693,1665.59210616019
-0.0107754248959528,1665.60210616019
-0.0216606462261464,1665.61210616019
-0.032687717194343,1665.62210616019
-0.0434201385852569,1665.63210616019
-0.0541891337021459,1665.64210616019
-0.0642473906892295,1665.65210616019
-0.0747748249100871,1665.66210616019
-0.0847381862636703,1665.67210616019
-0.0945784689895525,1665.68210616019
-0.104513271662017,1665.69210616019
-0.113882259000674,1665.70210616019
-0.123816016192759,1665.71210616019
-0.13406498044529,1665.72210616019
-0.144383176134665,1665.73210616019
-0.154711870785278,1665.74210616019
-0.164799460543374,1665.75210616019
-0.174959345896586,1665.76210616019
-0.185603122054601,1665.77210616019
-0.196006420917191,1665.78210616019
-0.206165151666618,1665.79210616019
-0.216538928258791,1665.80210616019
-0.227103782026515,1665.81210616019
-0.237420699945878,1665.82210616019
-0.24739222868308,1665.83210616019
-0.257319260142556,1665.84210616019
-0.266776580447393,1665.85210616019
-0.276359359921912,1665.86210616019
-0.285482084669266,1665.87210616019
-0.294378948557203,1665.88210616019
-0.303664502726497,1665.89210616019
-0.312944839510445,1665.90210616019
-0.322611840764616,1665.91210616019
-0.331819921195275,1665.92210616019
-0.34122027821493,1665.93210616019
-0.350654658619917,1665.94210616019
-0.360107058383438,1665.95210616019
-0.369031663063275,1665.96210616019
-0.377618711283652,1665.97210616019
-0.385648358914944,1665.98210616019
-0.393803814058102,1665.99210616019
-0.402483221228278,1666.00210616019
-0.410648864448121,1666.01210616019
-0.419076182297194,1666.02210616019
-0.427078154648269,1666.03210616019
-0.435013416552832,1666.04210616019
-0.442413097018789,1666.05210616019
-0.449077450307365,1666.06210616019
-0.455983744656468,1666.07210616019
-0.462957380968255,1666.08210616019
-0.469349709280376,1666.09210616019
-0.476125486790367,1666.10210616019
-0.482148006934504,1666.11210616019
-0.488390293780068,1666.12210616019
-0.494507615497619,1666.13210616019
-0.501096308465785,1666.14210616019
-0.508190293970096,1666.15210616019
-0.515636039087436,1666.16210616019
-0.523065469802269,1666.17210616019
-0.530090484709143,1666.18210616019
-0.535542124305492,1666.19210616019
-0.537958825715552,1666.20210616019
-0.534928469466114,1666.21210616019
-0.524569045695444,1666.22210616019
-0.505237219131494,1666.23210616019
-0.476291471374534,1666.24210616019
-0.437693671746636,1666.25210616019
-0.390100741122284,1666.26210616019
-0.335342035310507,1666.27210616019
-0.275839551298222,1666.28210616019
-0.213902893466255,1666.29210616019
-0.153463223659385,1666.30210616019
-0.095663495503784,1666.31210616019
-0.0437244498872355,1666.32210616019
0.000206513310471194,1666.33210616019
0.0359681906235987,1666.34210616019
0.0629014935416981,1666.35210616019
0.081740153032871,1666.36210616019
0.0938382952930898,1666.37210616019
0.100854769289404,1666.38210616019
0.103821847239032,1666.39210616019
0.104319086743092,1666.40210616019
0.103552961408608,1666.41210616019
0.102309453480023,1666.42210616019
0.101291191823845,1666.43210616019
0.101714238573195,1666.44210616019
0.103136719328125,1666.45210616019
0.105870071016684,1666.46210616019
0.108761032313336,1666.47210616019
0.110930823175655,1666.48210616019
0.112413452739389,1666.49210616019
0.111612102949209,1666.50210616019
0.108417249143251,1666.51210616019
0.102500982123042,1666.52210616019
0.0947517901988611,1666.53210616019
0.0852056372673912,1666.54210616019
0.0750241383536967,1666.55210616019
0.0644458582026559,1666.56210616019
0.0538527368827596,1666.57210616019
0.0444010072173216,1666.58210616019
0.0355418405154502,1666.59210616019
0.0276969698762614,1666.60210616019
0.0218766683746701,1666.61210616019
0.0176475423222726,1666.62210616019
0.0150555487332251,1666.63210616019
0.013987504322665,1666.64210616019
0.0140818005083544,1666.65210616019
0.0149947383379375,1666.66210616019
0.0154217419708028,1666.67210616019
0.0152702699365551,1666.68210616019
0.0140936894018452,1666.69210616019
0.0115461423159609,1666.70210616019
0.00739245532442935,1666.71210616019
0.00232054064423119,1666.72210616019
-0.00443184121820138,1666.73210616019
-0.0119267867407212,1666.74210616019
-0.0203944330839817,1666.75210616019
-0.0298379167934042,1666.76210616019
-0.0391967233619598,1666.77210616019
-0.0491132777468194,1666.78210616019
-0.0592530505421006,1666.79210616019
-0.0695982244537832,1666.80210616019
-0.0800706561289954,1666.81210616019
-0.0912522868143424,1666.82210616019
-0.102232249816734,1666.83210616019
-0.113743556582812,1666.84210616019
-0.125063370612967,1666.85210616019
-0.136049673526701,1666.86210616019
-0.147486633946759,1666.87210616019
-0.159082812825768,1666.88210616019
-0.170996005403697,1666.89210616019
-0.183546878125341,1666.90210616019
-0.195906213795269,1666.91210616019
-0.208476542120823,1666.92210616019
-0.221002515253912,1666.93210616019
-0.23280850000184,1666.94210616019
-0.244114119013479,1666.95210616019
-0.25484856335931,1666.96210616019
-0.2656729160957,1666.97210616019
-0.276023706017147,1666.98210616019
-0.286325191183584,1666.99210616019
-0.297050987965973,1667.00210616019
-0.307169222132997,1667.01210616019
-0.317316456297178,1667.02210616019
-0.327278873081944,1667.03210616019
-0.336529067976601,1667.04210616019
-0.34581233886446,1667.05210616019
-0.355432618391674,1667.06210616019
-0.365237122351916,1667.07210616019
-0.375304798690156,1667.08210616019
-0.385520879612361,1667.09210616019
-0.396203428772329,1667.10210616019
-0.406772432629735,1667.11210616019
-0.417053635643576,1667.12210616019
-0.427037842306944,1667.13210616019
-0.436538838377895,1667.14210616019
-0.445643966399899,1667.15210616019
-0.454089883893415,1667.16210616019
-0.462552766879677,1667.17210616019
-0.470410062714019,1667.18210616019
-0.47809925852131,1667.19210616019
-0.485117033020544,1667.20210616019
-0.491703636462727,1667.21210616019
-0.498104353085662,1667.22210616019
-0.50354334547102,1667.23210616019
-0.508860613826663,1667.24210616019
-0.514406609144049,1667.25210616019
-0.519552796470751,1667.26210616019
-0.525408560128041,1667.27210616019
-0.531410693616109,1667.28210616019
-0.537615179758321,1667.29210616019
-0.544031509494096,1667.30210616019
-0.549918097148272,1667.31210616019
-0.554331018195133,1667.32210616019
-0.555041428455821,1667.33210616019
-0.550288969649715,1667.34210616019
-0.537596030948389,1667.35210616019
-0.516165694067945,1667.36210616019
-0.485034348049481,1667.37210616019
-0.444215804590082,1667.38210616019
-0.396402198356239,1667.39210616019
-0.342466161339446,1667.40210616019
-0.286477323431525,1667.41210616019
-0.229540734729369,1667.42210616019
-0.174747979757783,1667.43210616019
-0.125589541856771,1667.44210616019
-0.0830169539731948,1667.45210616019
-0.0485891095640565,1667.46210616019
-0.0219052890276203,1667.47210616019
-0.00330667446188306,1667.48210616019
0.00878537637225042,1667.49210616019
0.0152079300891197,1667.50210616019
0.0176200133477802,1667.51210616019
0.0175195464395593,1667.52210616019
0.0163487856572794,1667.53210616019
0.0142172583850439,1667.54210616019
0.012160713850782,1667.55210616019
0.0106742236027233,1667.56210616019
0.00845826996264635,1667.57210616019
0.00624071178115004,1667.58210616019
0.00402398547629816,1667.59210616019
0.00123594583793482,1667.60210616019
-0.0026832790163978,1667.61210616019
-0.00824681885596549,1667.62210616019
-0.0152725863667992,1667.63210616019
-0.0237835243444318,1667.64210616019
-0.0327903509403491,1667.65210616019
-0.0422592360451923,1667.66210616019
-0.0514064151866451,1667.67210616019
-0.0595376209006596,1667.68210616019
-0.0668248804118886,1667.69210616019
-0.0725944099680162,1667.70210616019
-0.0763688331093396,1667.71210616019
-0.0783219606391785,1667.72210616019
-0.0778522511525599,1667.73210616019
-0.0756394279826535,1667.74210616019
-0.0720671520926483,1667.75210616019
-0.0676264919566445,1667.76210616019
-0.0637043163874757,1667.77210616019
-0.0609747515561947,1667.78210616019
-0.0595142680209351,1667.79210616019
-0.0595018663976037,1667.80210616019
-0.0606436893741116,1667.81210616019
-0.0635224526244998,1667.82210616019
-0.0675179043667346,1667.83210616019
-0.0729531618255964,1667.84210616019
-0.0790453506419758,1667.85210616019
-0.0861613073404373,1667.86210616019
-0.0936224791926375,1667.87210616019
-0.100860970462702,1667.88210616019
-0.108402770655862,1667.89210616019
-0.115794137869036,1667.90210616019
-0.122702069531199,1667.91210616019
-0.12952792622263,1667.92210616019
-0.136652227287518,1667.93210616019
-0.144100106618012,1667.94210616019
-0.15186466227175,1667.95210616019
-0.160250564757282,1667.96210616019
-0.168922233888854,1667.97210616019
-0.1781673309678,1667.98210616019
-0.187006897485273,1667.99210616019
-0.195375777451954,1668.00210616019
-0.20292707481573,1668.01210616019
-0.210767200726354,1668.02210616019
-0.218635536059408,1668.03210616019
-0.226464689929519,1668.04210616019
-0.234321319164413,1668.05210616019
-0.241485845783249,1668.06210616019
-0.248635623590635,1668.07210616019
-0.254850267839538,1668.08210616019
-0.260986529975492,1668.09210616019
-0.266970685067003,1668.10210616019
-0.27309463006558,1668.11210616019
-0.278981579005289,1668.12210616019
-0.284879359186873,1668.13210616019
-0.290929056271314,1668.14210616019
-0.297762315560955,1668.15210616019
-0.304888865803237,1668.16210616019
-0.312088707032834,1668.17210616019
-0.319085909310745,1668.18210616019
-0.326282195691579,1668.19210616019
-0.332891956538177,1668.20210616019
-0.339646857935901,1668.21210616019
-0.346054044462651,1668.22210616019
-0.352187051645745,1668.23210616019
-0.358181859599426,1668.24210616019
-0.363578677681712,1668.25210616019
-0.368735339976171,1668.26210616019
-0.373789407749361,1668.27210616019
-0.378137238632492,1668.28210616019
-0.38241735020904,1668.29210616019
-0.387229230234141,1668.30210616019
-0.392798777842625,1668.31210616019
-0.398321712936877,1668.32210616019
-0.404373909744504,1668.33210616019
-0.410548622310123,1668.34210616019
-0.415797601461121,1668.35210616019
-0.420300068175443,1668.36210616019
-0.422474860604159,1668.37210616019
-0.420110236384831,1668.38210616019
-0.410836542803601,1668.39210616019
-0.39274614406199,1668.40210616019
-0.364659839375256,1668.41210616019
-0.32657716880835,1668.42210616019
-0.27872023654374,1668.43210616019
-0.222293048070871,1668.44210616019
-0.160458778338137,1668.45210616019
-0.0950419159477767,1668.46210616019
-0.0292691581016307,1668.47210616019
0.0330717071840092,1668.48210616019
0.0899736559771273,1668.49210616019
0.139235621960616,1668.50210616019
0.180040159738138,1668.51210616019
0.211247771031421,1668.52210616019
0.23465249885494,1668.53210616019
0.251164973919908,1668.54210616019
0.261648767905285,1668.55210616019
0.267762837834948,1668.56210616019
0.271162672489791,1668.57210616019
0.272361082131094,1668.58210616019
0.273790709805107,1668.59210616019
0.274934918181113,1668.60210616019
0.276672456975875,1668.61210616019
0.279217732318477,1668.62210616019
0.281707893884727,1668.63210616019
0.283145224121904,1668.64210616019
0.28414490642051,1668.65210616019
0.281844976288038,1668.66210616019
0.277447696071081,1668.67210616019
0.270649974653289,1668.68210616019
0.262650036132193,1668.69210616019
0.254081074436982,1668.70210616019
0.244756108229932,1668.71210616019
0.235173676246529,1668.72210616019
0.22552568623232,1668.73210616019
0.217249050396466,1668.74210616019
0.209633828185084,1668.75210616019
0.203165232802045,1668.76210616019
0.198745564530256,1668.77210616019
0.196208063533887,1668.78210616019
0.195966431269263,1668.79210616019
0.197403170491371,1668.80210616019
0.200026222006684,1668.81210616019
0.203253794780401,1668.82210616019
0.206247381533201,1668.83210616019
0.208120090451426,1668.84210616019
