PPG,time
-0.165225968570057,2452.97028427563
-0.330244577376653,2452.98028427563
-0.295686326354521,2452.99028427563
-0.321518365163021,2453.00028427563
-0.312624869869264,2453.01028427563
-0.324907862346075,2453.02028427563
-0.323536105696806,2453.03028427563
-0.330293946729816,2453.04028427563
-0.332517725095913,2453.05028427563
-0.337119231274991,2453.06028427563
-0.340691782200477,2453.07028427563
-0.344584422601195,2453.08028427563
-0.347032571032607,2453.09028427563
-0.347844174201705,2453.10028427563
-0.344727349194234,2453.11028427563
-0.335764701586056,2453.12028427563
-0.32018503188118,2453.13028427563
-0.298109469136699,2453.14028427563
-0.271116511632867,2453.15028427563
-0.24063730685212,2453.16028427563
-0.208831851382944,2453.17028427563
-0.178819340882709,2453.18028427563
-0.151704708032545,2453.19028427563
-0.128309760497705,2453.20028427563
-0.11000636175987,2453.21028427563
-0.0966688255978745,2453.22028427563
-0.0882526177063523,2453.23028427563
-0.0830017634908011,2453.24028427563
-0.0799006186578502,2453.25028427563
-0.0790344425288512,2453.26028427563
-0.0793018254686055,2453.27028427563
-0.0806235365548174,2453.28028427563
-0.0824226766660921,2453.29028427563
-0.0849621171136833,2453.30028427563
-0.0869443140979307,2453.31028427563
-0.0886715395318775,2453.32028427563
-0.0902745003538556,2453.33028427563
-0.0914650425727726,2453.34028427563
-0.092516907935109,2453.35028427563
-0.0943423664581509,2453.36028427563
-0.0965841801872346,2453.37028427563
-0.0995323051217047,2453.38028427563
-0.103405202905502,2453.39028427563
-0.107834990437588,2453.40028427563
-0.111485808762083,2453.41028427563
-0.114068264736179,2453.42028427563
-0.114933094927243,2453.43028427563
-0.113707866683605,2453.44028427563
-0.111294368417007,2453.45028427563
-0.107808967891602,2453.46028427563
-0.103860401900557,2453.47028427563
-0.0988314588588216,2453.48028427563
-0.0934585773130178,2453.49028427563
-0.0873708436107503,2453.50028427563
-0.0812005556685526,2453.51028427563
-0.0751797902362512,2453.52028427563
-0.069782737631581,2453.53028427563
-0.0654854869557601,2453.54028427563
-0.0620376212693571,2453.55028427563
-0.0594201997740107,2453.56028427563
-0.0577573977641253,2453.57028427563
-0.057728872514692,2453.58028427563
-0.0587917710291858,2453.59028427563
-0.0615584240576516,2453.60028427563
-0.0656042106846182,2453.61028427563
-0.0702622363278921,2453.62028427563
-0.0745064842810622,2453.63028427563
-0.0783521682305062,2453.64028427563
-0.0817949213867986,2453.65028427563
-0.0849156735244657,2453.66028427563
-0.0881014992114046,2453.67028427563
-0.0912716866675752,2453.68028427563
-0.0944048706276911,2453.69028427563
-0.0979739443244697,2453.70028427563
-0.101654403296012,2453.71028427563
-0.104865869726383,2453.72028427563
-0.108458721748529,2453.73028427563
-0.112111480176827,2453.74028427563
-0.115183755681683,2453.75028427563
-0.118123383468167,2453.76028427563
-0.120816754346466,2453.77028427563
-0.123593128424489,2453.78028427563
-0.126689407446629,2453.79028427563
-0.130209071320709,2453.80028427563
-0.133875661539923,2453.81028427563
-0.13771764161632,2453.82028427563
-0.141386488599458,2453.83028427563
-0.144828985273309,2453.84028427563
-0.147976574432168,2453.85028427563
-0.151011479026802,2453.86028427563
-0.153824224425732,2453.87028427563
-0.157022042856927,2453.88028427563
-0.15960649071175,2453.89028427563
-0.161799833209411,2453.90028427563
-0.163858190410241,2453.91028427563
-0.166164521725414,2453.92028427563
-0.169139236352504,2453.93028427563
-0.172561828201452,2453.94028427563
-0.176880535532795,2453.95028427563
-0.181437674452948,2453.96028427563
-0.186053012216015,2453.97028427563
-0.190399158626535,2453.98028427563
-0.194539081882689,2453.99028427563
-0.198510242866835,2454.00028427563
-0.202743255189484,2454.01028427563
-0.206453004866913,2454.02028427563
-0.210023723472548,2454.03028427563
-0.21284299995941,2454.04028427563
-0.214769196480598,2454.05028427563
-0.21354406270357,2454.06028427563
-0.207607196903109,2454.07028427563
-0.194925996812721,2454.08028427563
-0.173877820165534,2454.09028427563
-0.144955333522236,2454.10028427563
-0.108201424895814,2454.11028427563
-0.0663020170191437,2454.12028427563
-0.0224473575031636,2454.13028427563
0.0206278146379947,2454.14028427563
0.0602288457113146,2454.15028427563
0.0946278487699279,2454.16028427563
0.122754253615873,2454.17028427563
0.144030317407953,2454.18028427563
0.159309451298741,2454.19028427563
0.169655741072365,2454.20028427563
0.176590177631959,2454.21028427563
0.180744477690849,2454.22028427563
0.183109055479418,2454.23028427563
0.185180635252277,2454.24028427563
0.187178796295739,2454.25028427563
0.190219918782985,2454.26028427563
0.193243675692992,2454.27028427563
0.197316755996144,2454.28028427563
0.201483894388932,2454.29028427563
0.205975463764945,2454.30028427563
0.210598891777244,2454.31028427563
0.214822034193397,2454.32028427563
0.218207666201303,2454.33028427563
0.220470510614059,2454.34028427563
0.221472919488456,2454.35028427563
0.220520135213739,2454.36028427563
0.218209555477669,2454.37028427563
0.215309261169732,2454.38028427563
0.212039168767624,2454.39028427563
0.209585054726984,2454.40028427563
0.20796274177802,2454.41028427563
0.207560495705044,2454.42028427563
0.208575785448038,2454.43028427563
0.210415402265394,2454.44028427563
0.212602722988916,2454.45028427563
0.215790247113134,2454.46028427563
0.218856548530646,2454.47028427563
0.222355784696382,2454.48028427563
0.22604506148406,2454.49028427563
0.229244947209576,2454.50028427563
0.231786991254929,2454.51028427563
0.232905356401097,2454.52028427563
0.233511193140532,2454.53028427563
0.233132745693727,2454.54028427563
0.232237964920781,2454.55028427563
0.230080877545031,2454.56028427563
0.227815484705737,2454.57028427563
0.224392396203152,2454.58028427563
0.220556635321139,2454.59028427563
0.216313969793893,2454.60028427563
0.211967820639911,2454.61028427563
0.207708608069204,2454.62028427563
0.203188952623337,2454.63028427563
0.198051229138509,2454.64028427563
0.192675744477938,2454.65028427563
0.186932981960595,2454.66028427563
0.181080019248339,2454.67028427563
0.175111407142039,2454.68028427563
0.169455190750965,2454.69028427563
0.163820102986426,2454.70028427563
0.158698769672468,2454.71028427563
0.153273594164619,2454.72028427563
0.148318284850467,2454.73028427563
0.144184182537044,2454.74028427563
0.139630080437253,2454.75028427563
0.134732394667871,2454.76028427563
0.129285989383735,2454.77028427563
0.123146365417189,2454.78028427563
0.116981636877448,2454.79028427563
0.110818530015552,2454.80028427563
0.104510562496806,2454.81028427563
0.0983830856223982,2454.82028427563
0.0919387616376657,2454.83028427563
0.0860030321187873,2454.84028427563
0.0798870832229374,2454.85028427563
0.0738678128077683,2454.86028427563
0.0684679389968633,2454.87028427563
0.0630455216707959,2454.88028427563
0.0573712011619133,2454.89028427563
0.0516212134436592,2454.90028427563
0.0458938864069398,2454.91028427563
0.0400665698501012,2454.92028427563
0.0337611482210073,2454.93028427563
0.0277665089822914,2454.94028427563
0.0223177431915202,2454.95028427563
0.0170383343309592,2454.96028427563
0.0113450738813884,2454.97028427563
0.0060923801613459,2454.98028427563
0.000373496921932596,2454.99028427563
-0.00645672820084796,2455.00028427563
-0.0132517935522069,2455.01028427563
-0.0205435211295166,2455.02028427563
-0.0281675865370934,2455.03028427563
-0.0351468112063374,2455.04028427563
-0.0418441502700426,2455.05028427563
-0.0476417582668365,2455.06028427563
-0.0531159230228528,2455.07028427563
-0.0583029028807871,2455.08028427563
-0.0606976870133021,2455.09028427563
-0.0583817096274268,2455.10028427563
-0.0495209398037328,2455.11028427563
-0.0316663133557599,2455.12028427563
-0.00535058359855011,2455.13028427563
0.0287664665739109,2455.14028427563
0.0675827086462028,2455.15028427563
0.107865775790168,2455.16028427563
0.147064865560585,2455.17028427563
0.181558022681675,2455.18028427563
0.210326822736453,2455.19028427563
0.2324820790544,2455.20028427563
0.248409906943652,2455.21028427563
0.258522172448523,2455.22028427563
0.264274062714374,2455.23028427563
0.266684584067235,2455.24028427563
0.266520308728665,2455.25028427563
0.265442955850544,2455.26028427563
0.263244085608154,2455.27028427563
0.261470913097257,2455.28028427563
0.259288813792603,2455.29028427563
0.257036782169926,2455.30028427563
0.255221643945575,2455.31028427563
0.254782225774664,2455.32028427563
0.255147968530549,2455.33028427563
0.256198088645046,2455.34028427563
0.257910588911241,2455.35028427563
0.259630207503509,2455.36028427563
0.260692848364856,2455.37028427563
0.260321121651513,2455.38028427563
0.257397295292916,2455.39028427563
0.25287670305174,2455.40028427563
0.247445910204432,2455.41028427563
0.241792219611524,2455.42028427563
0.236189204924929,2455.43028427563
0.231794262998668,2455.44028427563
0.22853835753524,2455.45028427563
0.226337204555519,2455.46028427563
0.225069173841851,2455.47028427563
0.224284645168484,2455.48028427563
0.223756984349046,2455.49028427563
0.223961172684088,2455.50028427563
0.225105327906404,2455.51028427563
0.225602705038581,2455.52028427563
0.225877886353143,2455.53028427563
0.226432966377362,2455.54028427563
0.224999735318494,2455.55028427563
0.22309101021129,2455.56028427563
0.22038754574065,2455.57028427563
0.216924475886338,2455.58028427563
0.212740187862183,2455.59028427563
0.207631462924858,2455.60028427563
0.201845871151446,2455.61028427563
0.195677022460689,2455.62028427563
0.18896694702997,2455.63028427563
0.182643651948512,2455.64028427563
0.175759032156564,2455.65028427563
0.16836024818266,2455.66028427563
0.161256059645197,2455.67028427563
0.153624917258063,2455.68028427563
0.146297611224956,2455.69028427563
0.139360988471854,2455.70028427563
0.132718904159606,2455.71028427563
0.125861839020797,2455.72028427563
0.119289717046227,2455.73028427563
0.11282342440915,2455.74028427563
0.106983817542712,2455.75028427563
0.101491574038439,2455.76028427563
0.0961054262181582,2455.77028427563
0.0902022092664172,2455.78028427563
0.0837453977135611,2455.79028427563
0.0771242541450652,2455.80028427563
0.0702334122241973,2455.81028427563
0.0634177265200904,2455.82028427563
0.0566489809862015,2455.83028427563
0.050048626371097,2455.84028427563
0.043294562866865,2455.85028427563
0.0362741340314023,2455.86028427563
0.0293195651247535,2455.87028427563
0.0222904452440694,2455.88028427563
0.0157982353554872,2455.89028427563
0.00945670430985773,2455.90028427563
0.00335452811848326,2455.91028427563
-0.00325639411051193,2455.92028427563
-0.00985949610938538,2455.93028427563
-0.0171763748969208,2455.94028427563
-0.0248758549579483,2455.95028427563
-0.0322881020264332,2455.96028427563
-0.0396300765205218,2455.97028427563
-0.0465703685710095,2455.98028427563
-0.053569521143576,2455.99028427563
-0.0602307895021052,2456.00028427563
-0.0667591869155751,2456.01028427563
-0.0735771481548779,2456.02028427563
-0.080349098310702,2456.03028427563
-0.087448461469366,2456.04028427563
-0.0950401260643611,2456.05028427563
-0.10243329060249,2456.06028427563
-0.109735883594751,2456.07028427563
-0.117262048825177,2456.08028427563
-0.124420203958707,2456.09028427563
-0.131076461977662,2456.10028427563
-0.137224962764042,2456.11028427563
-0.143206459462472,2456.12028427563
-0.149370073671958,2456.13028427563
-0.155468976293631,2456.14028427563
-0.16188045833194,2456.15028427563
-0.16838705565701,2456.16028427563
-0.173727711535285,2456.17028427563
-0.177411437327842,2456.18028427563
-0.176213557970464,2456.19028427563
-0.169317054282496,2456.20028427563
-0.154576565519255,2456.21028427563
-0.13211355131998,2456.22028427563
-0.103342984298464,2456.23028427563
-0.0707025503565546,2456.24028427563
-0.0371084491579033,2456.25028427563
-0.00504876778470657,2456.26028427563
0.0237290679262709,2456.27028427563
0.047910634699596,2456.28028427563
0.0666382482342969,2456.29028427563
0.0806751701964971,2456.30028427563
0.0896728445121675,2456.31028427563
0.094934842664669,2456.32028427563
0.0966699312522095,2456.33028427563
0.0958347560493881,2456.34028427563
0.0931726530264829,2456.35028427563
0.0894775342077981,2456.36028427563
0.0860094107512063,2456.37028427563
0.0825033459360131,2456.38028427563
0.0801639807236067,2456.39028427563
0.0787927950863032,2456.40028427563
0.0773057323676614,2456.41028427563
0.0771464579622324,2456.42028427563
0.0780988079747245,2456.43028427563
0.079460854041234,2456.44028427563
0.0804093686979383,2456.45028427563
0.0806525804228354,2456.46028427563
0.0796481426923714,2456.47028427563
0.0772306413720682,2456.48028427563
0.0736613249691508,2456.49028427563
0.0695281148096366,2456.50028427563
0.065366206110231,2456.51028427563
0.0612762708995415,2456.52028427563
0.0573160290228388,2456.53028427563
0.0546069906913772,2456.54028427563
0.052809898240337,2456.55028427563
0.0515221697816274,2456.56028427563
0.0515071722116739,2456.57028427563
0.0520039622093988,2456.58028427563
0.052392102368848,2456.59028427563
0.052915961678325,2456.60028427563
0.0533123502154332,2456.61028427563
0.0533966861203562,2456.62028427563
0.0532970722057812,2456.63028427563
0.0528797595571329,2456.64028427563
0.0517338677398257,2456.65028427563
0.0501478983204809,2456.66028427563
0.0477008831759865,2456.67028427563
0.0444866486583535,2456.68028427563
0.0410272222418846,2456.69028427563
0.0375150914220295,2456.70028427563
0.0337960623442958,2456.71028427563
0.030245696336149,2456.72028427563
0.026099436151982,2456.73028427563
0.020817969242065,2456.74028427563
0.0154914842929151,2456.75028427563
0.00981680653278663,2456.76028427563
0.00403690703080386,2456.77028427563
-0.00133548083414357,2456.78028427563
-0.00690331759935292,2456.79028427563
-0.0118723718040431,2456.80028427563
-0.0171948334637032,2456.81028427563
-0.023378942655129,2456.82028427563
-0.028886084043134,2456.83028427563
-0.0346089573211149,2456.84028427563
-0.0402141686982821,2456.85028427563
-0.0454166841081787,2456.86028427563
-0.0504621272364223,2456.87028427563
-0.055455239823735,2456.88028427563
-0.0606281202459715,2456.89028427563
-0.0655669954848109,2456.90028427563
-0.0705532876074984,2456.91028427563
-0.075639770447179,2456.92028427563
-0.0816466244229144,2456.93028427563
-0.0872520527479194,2456.94028427563
-0.0927502187707378,2456.95028427563
-0.0981804572562566,2456.96028427563
-0.103458948429708,2456.97028427563
-0.108486716324704,2456.98028427563
-0.113655082607061,2456.99028427563
-0.119285791959359,2457.00028427563
-0.124820821956404,2457.01028427563
-0.130657818522179,2457.02028427563
-0.13645454716586,2457.03028427563
-0.142612603661981,2457.04028427563
-0.148350188429992,2457.05028427563
-0.154356745359865,2457.06028427563
-0.160305163547031,2457.07028427563
-0.16624115304777,2457.08028427563
-0.171415588161481,2457.09028427563
-0.17647024638989,2457.10028427563
-0.181168188006952,2457.11028427563
-0.185843884291143,2457.12028427563
-0.190567655883805,2457.13028427563
-0.195157105654023,2457.14028427563
-0.19953213118947,2457.15028427563
-0.204297850763139,2457.16028427563
-0.209129266806033,2457.17028427563
-0.214149473068241,2457.18028427563
-0.219107639400312,2457.19028427563
-0.224547588916676,2457.20028427563
-0.230084596953528,2457.21028427563
-0.235602404675111,2457.22028427563
-0.241384460198757,2457.23028427563
-0.24710067446784,2457.24028427563
-0.2534335158668,2457.25028427563
-0.259641956579013,2457.26028427563
-0.26550553370346,2457.27028427563
-0.269751125764587,2457.28028427563
-0.271189909760521,2457.29028427563
-0.267315325771099,2457.30028427563
-0.256995674977227,2457.31028427563
-0.238893436540459,2457.32028427563
-0.213188404098182,2457.33028427563
-0.18176128440938,2457.34028427563
-0.146504251150519,2457.35028427563
-0.109595050110902,2457.36028427563
-0.0736636645607406,2457.37028427563
-0.0403035351703313,2457.38028427563
-0.0115635829610318,2457.39028427563
0.0115447360761672,2457.40028427563
0.028636547934623,2457.41028427563
0.0406052990194622,2457.42028427563
0.0480241192736213,2457.43028427563
0.0516339489550451,2457.44028427563
0.0523130632170316,2457.45028427563
0.0510343644086793,2457.46028427563
0.0493223762314334,2457.47028427563
0.0479155766440019,2457.48028427563
0.0466429828291853,2457.49028427563
0.0463609231076194,2457.50028427563
0.0463591559294238,2457.51028427563
0.0471172336007359,2457.52028427563
0.0487384506309892,2457.53028427563
0.0507793984886085,2457.54028427563
0.052802945189244,2457.55028427563
0.0546839798164834,2457.56028427563
0.0555380068285533,2457.57028427563
0.0548103723031041,2457.58028427563
0.0528923939305917,2457.59028427563
0.0498952540168803,2457.60028427563
0.0466726522453892,2457.61028427563
0.043391213529463,2457.62028427563
0.0411500294727944,2457.63028427563
0.0402379666306799,2457.64028427563
0.0398831944929528,2457.65028427563
0.0405589906738461,2457.66028427563
0.0419458651373644,2457.67028427563
0.0444065878190591,2457.68028427563
0.0470470543744174,2457.69028427563
0.0503330925394228,2457.70028427563
0.0537533837409161,2457.71028427563
0.0571549631877269,2457.72028427563
0.059451161727082,2457.73028427563
0.0608317019708635,2457.74028427563
0.0611487911994382,2457.75028427563
0.0604376724753191,2457.76028427563
0.0585634318235867,2457.77028427563
0.0559574946676428,2457.78028427563
0.0533595871801866,2457.79028427563
0.0501664087282362,2457.80028427563
0.0468941101805812,2457.81028427563
0.0437432442475611,2457.82028427563
0.040364942833161,2457.83028427563
0.0368841235074443,2457.84028427563
0.0329575414285048,2457.85028427563
0.0283976691114586,2457.86028427563
0.0232455706993542,2457.87028427563
0.0176948535582732,2457.88028427563
0.0121640467136322,2457.89028427563
0.00662628615352041,2457.90028427563
0.00108437751294745,2457.91028427563
-0.00373759991128979,2457.92028427563
-0.00850488622491613,2457.93028427563
-0.0126596045137309,2457.94028427563
-0.0170800260038247,2457.95028427563
-0.0218017169788166,2457.96028427563
-0.0268419702897238,2457.97028427563
-0.0321721986828524,2457.98028427563
-0.0374622867324943,2457.99028427563
-0.0425621676852828,2458.00028427563
-0.0472536643432189,2458.01028427563
-0.0521651941787559,2458.02028427563
-0.0565938668083724,2458.03028427563
-0.0611179337859909,2458.04028427563
-0.0661362651944861,2458.05028427563
-0.0713583196460801,2458.06028427563
-0.076518612707974,2458.07028427563
-0.0815462462331154,2458.08028427563
-0.0866992013535691,2458.09028427563
-0.0924138311738567,2458.10028427563
-0.0982857660392895,2458.11028427563
-0.104478136385275,2458.12028427563
-0.110812273818507,2458.13028427563
-0.116944961842432,2458.14028427563
-0.123132001088327,2458.15028427563
-0.129266683199733,2458.16028427563
-0.135478979727723,2458.17028427563
-0.140965806721173,2458.18028427563
-0.146204291428781,2458.19028427563
-0.151240411770424,2458.20028427563
-0.156787037757834,2458.21028427563
-0.162760003198815,2458.22028427563
-0.169194091603919,2458.23028427563
-0.175544828976653,2458.24028427563
-0.181680457435668,2458.25028427563
-0.188334033890702,2458.26028427563
-0.194181990346238,2458.27028427563
-0.199444753082861,2458.28028427563
-0.204521813711327,2458.29028427563
-0.20918029463865,2458.30028427563
-0.214215179582239,2458.31028427563
-0.2191017826326,2458.32028427563
-0.224309303178853,2458.33028427563
-0.230630403558964,2458.34028427563
-0.237279279075305,2458.35028427563
-0.243543885012864,2458.36028427563
-0.249049684153094,2458.37028427563
-0.253332507115903,2458.38028427563
-0.255935704656937,2458.39028427563
-0.254099392042634,2458.40028427563
-0.246037609878976,2458.41028427563
-0.229856952113147,2458.42028427563
-0.205353821010585,2458.43028427563
-0.174175869135709,2458.44028427563
-0.138285544259377,2458.45028427563
-0.0995930757936326,2458.46028427563
-0.060401743170339,2458.47028427563
-0.0235250768027337,2458.48028427563
0.0102014215756358,2458.49028427563
0.0382291457870119,2458.50028427563
0.0612112485097207,2458.51028427563
0.0782790928749523,2458.52028427563
0.0900474185056871,2458.53028427563
0.0975200510794901,2458.54028427563
0.100952400105799,2458.55028427563
0.101788152839776,2458.56028427563
0.101173721842133,2458.57028427563
0.0992380700620755,2458.58028427563
0.0967139133440677,2458.59028427563
0.0939762523335857,2458.60028427563
0.0919746826333501,2458.61028427563
0.0905692374303347,2458.62028427563
0.0892899589293967,2458.63028427563
0.0882538089929211,2458.64028427563
0.0870199962407205,2458.65028427563
0.0855338500192805,2458.66028427563
0.0827966265140403,2458.67028427563
0.0791069970407653,2458.68028427563
0.0737750724869679,2458.69028427563
0.0677573618006431,2458.70028427563
0.0622223569380415,2458.71028427563
0.0573990787521125,2458.72028427563
0.0544827441128139,2458.73028427563
0.0528601945291346,2458.74028427563
0.0527315249706874,2458.75028427563
0.0544268245056532,2458.76028427563
0.0571403070485985,2458.77028427563
0.0609558123393718,2458.78028427563
0.0653685190383598,2458.79028427563
0.0701045073613225,2458.80028427563
0.0744606483833797,2458.81028427563
0.0779529529429573,2458.82028427563
0.080698766534987,2458.83028427563
0.0828212820669018,2458.84028427563
0.0846848893407521,2458.85028427563
0.0854283875751691,2458.86028427563
0.0858486325328498,2458.87028427563
0.0855757032205697,2458.88028427563
0.0848626827611036,2458.89028427563
0.0832804155378002,2458.90028427563
0.0805856384700087,2458.91028427563
0.0773572055458868,2458.92028427563
0.0732810080806413,2458.93028427563
0.0684405560360187,2458.94028427563
0.0628616249500457,2458.95028427563
0.0574974780875811,2458.96028427563
0.052041305742531,2458.97028427563
0.0466707305712127,2458.98028427563
0.0413713385246097,2458.99028427563
0.0360489112403277,2459.00028427563
0.0305539342334129,2459.01028427563
0.0249360044289116,2459.02028427563
0.0193138306389179,2459.03028427563
0.0138333513052879,2459.04028427563
0.00787810729725262,2459.05028427563
0.0026546796610801,2459.06028427563
-0.00256181814382531,2459.07028427563
-0.00780848929746469,2459.08028427563
-0.0126102260068891,2459.09028427563
-0.0172977416549706,2459.10028427563
-0.0219439436183084,2459.11028427563
-0.0264145568873091,2459.12028427563
-0.030753086130406,2459.13028427563
-0.0352868417520183,2459.14028427563
-0.040094636363382,2459.15028427563
-0.044611599647094,2459.16028427563
-0.0497159735251021,2459.17028427563
-0.0548952160106762,2459.18028427563
-0.0599926947468677,2459.19028427563
-0.0649905959368194,2459.20028427563
-0.070792150144065,2459.21028427563
-0.0761899590943673,2459.22028427563
-0.0821114124303373,2459.23028427563
-0.0878196352058888,2459.24028427563
-0.0925996408920583,2459.25028427563
-0.0976029202615057,2459.26028427563
-0.10320564046186,2459.27028427563
-0.10869200653676,2459.28028427563
-0.114823316734619,2459.29028427563
-0.121302198191372,2459.30028427563
-0.127990975608955,2459.31028427563
-0.134522747707138,2459.32028427563
-0.141122475316915,2459.33028427563
-0.147434071112731,2459.34028427563
-0.152826466045653,2459.35028427563
-0.157809102931029,2459.36028427563
-0.163369893056294,2459.37028427563
-0.169280617698008,2459.38028427563
-0.175018932272074,2459.39028427563
-0.181204454959023,2459.40028427563
-0.186602725654667,2459.41028427563
-0.190104693325755,2459.42028427563
-0.189743909566617,2459.43028427563
-0.182950643815472,2459.44028427563
-0.167439467579464,2459.45028427563
-0.142508426345343,2459.46028427563
-0.109199530448074,2459.47028427563
-0.068755734452579,2459.48028427563
-0.0246459898269128,2459.49028427563
0.0204582448009234,2459.50028427563
0.0636913251308493,2459.51028427563
0.103160829687725,2459.52028427563
0.136717870098046,2459.53028427563
0.163897070440461,2459.54028427563
0.184641007827847,2459.55028427563
0.199347691690767,2459.56028427563
0.208531592739477,2459.57028427563
0.213447248380892,2459.58028427563
0.215646853519943,2459.59028427563
0.215570720534492,2459.60028427563
0.214027958974478,2459.61028427563
0.211939786260566,2459.62028427563
0.209308672224568,2459.63028427563
0.207232795457275,2459.64028427563
0.2056494681046,2459.65028427563
0.203929069637928,2459.66028427563
0.20261347326021,2459.67028427563
0.200767485126468,2459.68028427563
0.198725390367758,2459.69028427563
0.196434943785506,2459.70028427563
0.193717502574932,2459.71028427563
0.190515562860502,2459.72028427563
0.186672251545495,2459.73028427563
0.182434049933428,2459.74028427563
0.178513716567997,2459.75028427563
0.174593397205081,2459.76028427563
0.171540543160553,2459.77028427563
0.169427553769224,2459.78028427563
0.168431375173525,2459.79028427563
0.168224687335143,2459.80028427563
0.168614674306433,2459.81028427563
0.169560454981304,2459.82028427563
0.171261688540974,2459.83028427563
0.173028151057727,2459.84028427563
0.174790554706523,2459.85028427563
0.176577393131695,2459.86028427563
0.177864867513633,2459.87028427563
0.178563748353172,2459.88028427563
0.178388930154831,2459.89028427563
0.177483144084203,2459.90028427563
0.175209451475725,2459.91028427563
0.172340392466539,2459.92028427563
0.168491499283535,2459.93028427563
0.163332030916689,2459.94028427563
0.158099770496595,2459.95028427563
0.152049170724612,2459.96028427563
0.14580205852639,2459.97028427563
0.139538462860859,2459.98028427563
0.133513418122417,2459.99028427563
0.127430901680243,2460.00028427563
0.121170585424271,2460.01028427563
0.114924940846876,2460.02028427563
0.10819649334986,2460.03028427563
0.101052627719788,2460.04028427563
0.0936525672466427,2460.05028427563
0.0861443679953481,2460.06028427563
0.0788230651242306,2460.07028427563
0.0717505817810889,2460.08028427563
0.0652068564597806,2460.09028427563
0.0585503274699858,2460.10028427563
0.0521842631732262,2460.11028427563
0.045711542057361,2460.12028427563
0.0384610515598514,2460.13028427563
0.0307705336243451,2460.14028427563
0.0228366563281309,2460.15028427563
0.0151915357907453,2460.16028427563
0.00787746579001907,2460.17028427563
0.000862812180243574,2460.18028427563
-0.0061078940911067,2460.19028427563
-0.0124176675891621,2460.20028427563
-0.0190665875651582,2460.21028427563
-0.0259811103555702,2460.22028427563
-0.0325147252291446,2460.23028427563
-0.039182508259758,2460.24028427563
-0.0454629831236995,2460.25028427563
-0.0515375199499562,2460.26028427563
-0.0576664685901167,2460.27028427563
-0.0636857544766108,2460.28028427563
-0.0701097826074119,2460.29028427563
-0.0770782691180968,2460.30028427563
-0.0838986408767638,2460.31028427563
-0.0906500749394141,2460.32028427563
-0.0973384368776392,2460.33028427563
-0.103947822201137,2460.34028427563
-0.110865674625457,2460.35028427563
-0.117639598958399,2460.36028427563
-0.124229066610563,2460.37028427563
-0.13050351608515,2460.38028427563
-0.136209586782565,2460.39028427563
-0.142252856226292,2460.40028427563
-0.148863743936262,2460.41028427563
-0.155615057428649,2460.42028427563
-0.16232953266665,2460.43028427563
-0.169213063372452,2460.44028427563
-0.176227998123923,2460.45028427563
-0.18303605915552,2460.46028427563
-0.189519146374628,2460.47028427563
-0.196122998040803,2460.48028427563
-0.20322083480089,2460.49028427563
-0.209638706851846,2460.50028427563
-0.215875291900548,2460.51028427563
-0.220971255877088,2460.52028427563
-0.223120238869499,2460.53028427563
-0.219855730403752,2460.54028427563
-0.209049531156187,2460.55028427563
-0.188321817845483,2460.56028427563
-0.15815416700193,2460.57028427563
-0.120712230611608,2460.58028427563
-0.0775477533105127,2460.59028427563
-0.0327378316685535,2460.60028427563
0.0108381976716766,2460.61028427563
0.0499653336200691,2460.62028427563
0.0832486224821275,2460.63028427563
0.110066475034292,2460.64028427563
0.130420908950545,2460.65028427563
0.144914576052638,2460.66028427563
0.154513051511678,2460.67028427563
0.159463141419711,2460.68028427563
0.160719841808233,2460.69028427563
0.159668546514752,2460.70028427563
0.156705075032628,2460.71028427563
0.152696095082361,2460.72028427563
0.148010510794408,2460.73028427563
0.143695973186659,2460.74028427563
0.139380464629683,2460.75028427563
0.13580326038892,2460.76028427563
0.133082189254231,2460.77028427563
0.130681368124764,2460.78028427563
0.128474987658139,2460.79028427563
0.126025463587878,2460.80028427563
0.123278071535014,2460.81028427563
0.119146802507477,2460.82028427563
0.113622501868602,2460.83028427563
0.107864179510949,2460.84028427563
0.101585965817573,2460.85028427563
0.0955564775377405,2460.86028427563
0.0906209640995217,2460.87028427563
0.0867957924720969,2460.88028427563
0.0843998675801693,2460.89028427563
0.0835274960842755,2460.90028427563
0.083235180062271,2460.91028427563
0.0840537619557222,2460.92028427563
0.0847551563800071,2460.93028427563
0.0855726201738052,2460.94028427563
0.0866067808140191,2460.95028427563
0.0882277077290403,2460.96028427563
0.089866315955442,2460.97028427563
0.0910653309734264,2460.98028427563
0.0918688452469123,2460.99028427563
0.0918189812736572,2461.00028427563
0.0907644262826125,2461.01028427563
0.0886212599890408,2461.02028427563
0.0856207608726768,2461.03028427563
0.0816671692072275,2461.04028427563
0.0771054712300614,2461.05028427563
0.0714826832534767,2461.06028427563
0.0660479747325405,2461.07028427563
0.0600689336330374,2461.08028427563
0.054627619117549,2461.09028427563
0.0492250786069614,2461.10028427563
0.0437458736032447,2461.11028427563
0.0377762658531236,2461.12028427563
0.0314784347623948,2461.13028427563
0.0251350010940339,2461.14028427563
0.0184773361588786,2461.15028427563
0.0111965846057586,2461.16028427563
0.00435170051505632,2461.17028427563
-0.00212775577507437,2461.18028427563
-0.00823818511603959,2461.19028427563
-0.014488711138747,2461.20028427563
-0.0205706227678237,2461.21028427563
-0.0266818743274745,2461.22028427563
-0.0327973857620541,2461.23028427563
-0.0393143399619945,2461.24028427563
-0.0456809387522043,2461.25028427563
-0.0524627190424392,2461.26028427563
-0.0590385633702688,2461.27028427563
-0.0649711225111509,2461.28028427563
-0.0712116571073547,2461.29028427563
-0.0773856682464055,2461.30028427563
-0.0835040816264326,2461.31028427563
-0.0894435733013595,2461.32028427563
-0.0953114169281414,2461.33028427563
-0.101029824256326,2461.34028427563
-0.106712931281704,2461.35028427563
-0.112437086708197,2461.36028427563
-0.118313855444614,2461.37028427563
-0.12395038286821,2461.38028427563
-0.13009041965467,2461.39028427563
-0.136316008055311,2461.40028427563
-0.142069345093032,2461.41028427563
-0.148107274965942,2461.42028427563
-0.153641152765568,2461.43028427563
-0.159951409933691,2461.44028427563
-0.166021104691062,2461.45028427563
-0.171560076756809,2461.46028427563
-0.177499124320233,2461.47028427563
-0.183557755097564,2461.48028427563
-0.189753376567252,2461.49028427563
-0.196251053117426,2461.50028427563
-0.202822167436324,2461.51028427563
-0.20911336904843,2461.52028427563
-0.215215290070322,2461.53028427563
-0.221453588793286,2461.54028427563
-0.227438896449362,2461.55028427563
-0.233171568801036,2461.56028427563
-0.23927649167127,2461.57028427563
-0.245259425195667,2461.58028427563
-0.250873405421043,2461.59028427563
-0.256276302641403,2461.60028427563
-0.261282784659191,2461.61028427563
-0.264129730692535,2461.62028427563
-0.26320135880693,2461.63028427563
-0.254992224028091,2461.64028427563
-0.238487180770953,2461.65028427563
-0.212102196767439,2461.66028427563
-0.176772681744063,2461.67028427563
-0.135105651763261,2461.68028427563
-0.0895432932819549,2461.69028427563
-0.0435902339751953,2461.70028427563
-0.000134141683753628,2461.71028427563
0.0382667057427218,2461.72028427563
0.0705051182479308,2461.73028427563
0.0949695512394896,2461.74028427563
0.112151550471573,2461.75028427563
0.123782388372838,2461.76028427563
0.130402638818051,2461.77028427563
0.133662631631416,2461.78028427563
0.134778008622673,2461.79028427563
0.134245320827024,2461.80028427563
0.133393552689347,2461.81028427563
0.131592752308535,2461.82028427563
0.129655091166152,2461.83028427563
0.126926381050012,2461.84028427563
0.124096469303497,2461.85028427563
0.121359221750795,2461.86028427563
0.117648538674062,2461.87028427563
0.113952871491865,2461.88028427563
0.110531775092766,2461.89028427563
0.106637367298024,2461.90028427563
0.102262084437485,2461.91028427563
0.0978084499435525,2461.92028427563
0.0925014031705807,2461.93028427563
0.0876006559245272,2461.94028427563
0.0824278870113503,2461.95028427563
0.078741167613773,2461.96028427563
0.0754324347189925,2461.97028427563
0.0733999560581474,2461.98028427563
0.0720963725490091,2461.99028427563
0.0731611109669003,2462.00028427563
0.0756660570947023,2462.01028427563
0.0790336466098876,2462.02028427563
0.0828733860373769,2462.03028427563
0.0867362246608418,2462.04028427563
0.090299279210991,2462.05028427563
0.093411610598868,2462.06028427563
0.0962399726711974,2462.07028427563
0.0985563417554379,2462.08028427563
0.0999764265384798,2462.09028427563
0.100727460037219,2462.10028427563
0.100275416368128,2462.11028427563
0.098656021784326,2462.12028427563
0.0955630761621996,2462.13028427563
0.0914544027977812,2462.14028427563
0.0868759353667551,2462.15028427563
0.0817867108937504,2462.16028427563
0.0768027723297982,2462.17028427563
0.0716487940810606,2462.18028427563
0.0668550735616057,2462.19028427563
0.0616174776229678,2462.20028427563
0.0561993143869238,2462.21028427563
0.0511872516029228,2462.22028427563
0.045895384689739,2462.23028427563
0.0403476256879751,2462.24028427563
0.0346493849006996,2462.25028427563
0.028282906426573,2462.26028427563
0.0217425621339536,2462.27028427563
0.0156021608561633,2462.28028427563
0.00880784748341812,2462.29028427563
0.00236286265167527,2462.30028427563
-0.00386608197339846,2462.31028427563
-0.0100318670154999,2462.32028427563
-0.0159845497951865,2462.33028427563
-0.0218353720060645,2462.34028427563
-0.027686730870587,2462.35028427563
-0.0334039126526212,2462.36028427563
-0.038491069376936,2462.37028427563
-0.043349737331847,2462.38028427563
-0.0486307032788791,2462.39028427563
-0.0546329451235306,2462.40028427563
-0.0610563631731903,2462.41028427563
-0.0677012770311261,2462.42028427563
-0.0740868790995681,2462.43028427563
-0.0806636359093008,2462.44028427563
-0.0864024808052824,2462.45028427563
-0.0916538709416527,2462.46028427563
-0.0965314720137957,2462.47028427563
-0.101781918046772,2462.48028427563
-0.107401985174379,2462.49028427563
-0.113288788231822,2462.50028427563
-0.119379801795701,2462.51028427563
-0.125649787047816,2462.52028427563
-0.131309845773231,2462.53028427563
-0.135958205370433,2462.54028427563
-0.140520154805682,2462.55028427563
-0.145494313692584,2462.56028427563
-0.15118114804819,2462.57028427563
-0.156997947026803,2462.58028427563
-0.163038762017546,2462.59028427563
-0.169424804432812,2462.60028427563
-0.175918003789278,2462.61028427563
-0.182636696460448,2462.62028427563
-0.189273668295889,2462.63028427563
-0.195573557411244,2462.64028427563
-0.201453803413385,2462.65028427563
-0.206513212320826,2462.66028427563
-0.208625929029825,2462.67028427563
-0.206303292724612,2462.68028427563
-0.196560253852168,2462.69028427563
-0.177153045371328,2462.70028427563
-0.147363852812496,2462.71028427563
-0.108153217615973,2462.72028427563
-0.0619103803934336,2462.73028427563
-0.0122917160462374,2462.74028427563
0.0377962222536302,2462.75028427563
0.085106637944486,2462.76028427563
0.127288393299216,2462.77028427563
0.163488620290519,2462.78028427563
0.192582588561318,2462.79028427563
0.214633725679604,2462.80028427563
0.23050169043394,2462.81028427563
0.239993560146713,2462.82028427563
0.245371901505486,2462.83028427563
0.247825732995653,2462.84028427563
0.247707491114692,2462.85028427563
0.246551198152502,2462.86028427563
0.244421477246667,2462.87028427563
0.242316911611883,2462.88028427563
0.239671194822889,2462.89028427563
0.236975360716004,2462.90028427563
0.234735429831682,2462.91028427563
0.23244454604234,2462.92028427563
0.229967900874154,2462.93028427563
0.227583250974445,2462.94028427563
0.225226068856082,2462.95028427563
0.221929714927563,2462.96028427563
0.218165438235958,2462.97028427563
0.213691594132689,2462.98028427563
0.208934144713762,2462.99028427563
0.203574386888754,2463.00028427563
0.19887879039612,2463.01028427563
0.194654466769959,2463.02028427563
0.192355571647508,2463.03028427563
0.191949556644412,2463.04028427563
0.192669212125638,2463.05028427563
0.194648718513096,2463.06028427563
0.197540616368445,2463.07028427563
0.200686212286338,2463.08028427563
0.204155391727762,2463.09028427563
0.207721156311722,2463.10028427563
0.210785238019838,2463.11028427563
0.213594645041108,2463.12028427563
0.215599913417742,2463.13028427563
0.217104470556367,2463.14028427563
0.216843746396383,2463.15028427563
0.215158858496921,2463.16028427563
0.212052781601804,2463.17028427563
0.208060022074866,2463.18028427563
0.203118578216039,2463.19028427563
0.197885690345992,2463.20028427563
0.191788996071433,2463.21028427563
0.185698952172499,2463.22028427563
0.179670494489129,2463.23028427563
0.173308563375219,2463.24028427563
0.166738138327792,2463.25028427563
0.160178136737668,2463.26028427563
0.153506229109335,2463.27028427563
0.146834622027071,2463.28028427563
0.140278222629191,2463.29028427563
0.133458518265281,2463.30028427563
0.126663955784293,2463.31028427563
0.119690590774599,2463.32028427563
0.112578047655811,2463.33028427563
0.105898497842861,2463.34028427563
0.098840595684454,2463.35028427563
0.0915500627480186,2463.36028427563
0.0843325136432752,2463.37028427563
0.0770657858416768,2463.38028427563
0.0695639578210409,2463.39028427563
0.0624181240937343,2463.40028427563
0.0557735042347034,2463.41028427563
0.0497131005631024,2463.42028427563
0.0445843835088414,2463.43028427563
0.0390202483251468,2463.44028427563
0.03342586816486,2463.45028427563
0.0279158040013691,2463.46028427563
0.0220010960601028,2463.47028427563
0.0155532158583194,2463.48028427563
0.00917051913969845,2463.49028427563
0.00239141566507206,2463.50028427563
-0.00415005945115606,2463.51028427563
-0.010528478253123,2463.52028427563
-0.0169088302547956,2463.53028427563
-0.0232207005618202,2463.54028427563
-0.0298616137961118,2463.55028427563
-0.0369828517238977,2463.56028427563
-0.0443730856367474,2463.57028427563
-0.0518931593434846,2463.58028427563
-0.0595721528724418,2463.59028427563
-0.0667019648004057,2463.60028427563
-0.0742893866436535,2463.61028427563
-0.0815627607000091,2463.62028427563
-0.0888679970982577,2463.63028427563
-0.0959693783118313,2463.64028427563
-0.103067696949749,2463.65028427563
-0.1090276369316,2463.66028427563
-0.113594560834115,2463.67028427563
-0.114126379044918,2463.68028427563
-0.109161661842323,2463.69028427563
-0.0968287302536533,2463.70028427563
-0.0771211658896188,2463.71028427563
-0.0502848534501094,2463.72028427563
-0.0197503182686286,2463.73028427563
0.0128441787294503,2463.74028427563
0.0446429304745029,2463.75028427563
0.0731913702592307,2463.76028427563
0.097339457657735,2463.77028427563
0.116330889468282,2463.78028427563
0.129999804982683,2463.79028427563
0.138941847356646,2463.80028427563
0.143001983867857,2463.81028427563
0.143345114656584,2463.82028427563
0.14073942242833,2463.83028427563
0.136237209922717,2463.84028427563
0.13018902341302,2463.85028427563
0.123881917712487,2463.86028427563
0.117421553832922,2463.87028427563
0.111010460261344,2463.88028427563
0.105433704124646,2463.89028427563
0.0999114866540577,2463.90028427563
0.0950180382866881,2463.91028427563
0.0901161938023435,2463.92028427563
0.084334821140533,2463.93028427563
0.0782339192726093,2463.94028427563
0.0713381938802327,2463.95028427563
0.0638463801785556,2463.96028427563
0.0557448905425092,2463.97028427563
0.0473119951615823,2463.98028427563
0.0396836125365952,2463.99028427563
0.0327360870621444,2464.00028427563
0.028131140680794,2464.01028427563
0.0245469365886419,2464.02028427563
0.022932437431673,2464.03028427563
0.0225807710376876,2464.04028427563
0.0234397985432457,2464.05028427563
0.0254088725078441,2464.06028427563
0.0277663271475024,2464.07028427563
0.0301403568372418,2464.08028427563
0.0321344372616054,2464.09028427563
0.0330526676755639,2464.10028427563
0.0330455478163238,2464.11028427563
0.0324663891233199,2464.12028427563
0.0311098651936661,2464.13028427563
0.0288528594046183,2464.14028427563
0.0258823180219913,2464.15028427563
0.0216404614937223,2464.16028427563
0.0168834499555186,2464.17028427563
0.0115797852328514,2464.18028427563
0.00532722265543934,2464.19028427563
-0.0010534412465629,2464.20028427563
-0.0077069791280785,2464.21028427563
-0.0142820672966172,2464.22028427563
-0.0209095732281787,2464.23028427563
-0.0276013320089235,2464.24028427563
-0.0344066027083038,2464.25028427563
-0.0407100921176633,2464.26028427563
-0.0469456960330603,2464.27028427563
-0.05283194012424,2464.28028427563
-0.0586348814720653,2464.29028427563
-0.0642577577329226,2464.30028427563
-0.069925387779042,2464.31028427563
-0.0751522063911719,2464.32028427563
-0.0803604988727906,2464.33028427563
-0.0856334999940587,2464.34028427563
-0.0906146120119361,2464.35028427563
-0.096068605530679,2464.36028427563
-0.101955469589572,2464.37028427563
-0.107556915725391,2464.38028427563
-0.112973924732646,2464.39028427563
-0.118478248516826,2464.40028427563
-0.123432673914468,2464.41028427563
-0.127924454862275,2464.42028427563
-0.132758594454591,2464.43028427563
-0.13766756002511,2464.44028427563
-0.142506042456372,2464.45028427563
-0.147833859211113,2464.46028427563
-0.152828531258764,2464.47028427563
-0.157396025205131,2464.48028427563
-0.162416737244761,2464.49028427563
-0.167674541338029,2464.50028427563
-0.173259820496335,2464.51028427563
-0.179041792385294,2464.52028427563
-0.184625718479706,2464.53028427563
-0.189558104184092,2464.54028427563
-0.194728056411167,2464.55028427563
-0.199483726220293,2464.56028427563
-0.204125758007456,2464.57028427563
-0.209096566757977,2464.58028427563
-0.213922127235533,2464.59028427563
-0.219346987427474,2464.60028427563
-0.224342661760229,2464.61028427563
-0.228705816528728,2464.62028427563
-0.231537353662313,2464.63028427563
-0.231964895303579,2464.64028427563
-0.227983619805619,2464.65028427563
-0.218198564463593,2464.66028427563
-0.202778321114761,2464.67028427563
-0.181816630214938,2464.68028427563
-0.158010313905915,2464.69028427563
-0.133268764504971,2464.70028427563
-0.10976367312625,2464.71028427563
-0.0889832991837138,2464.72028427563
-0.0718534304352688,2464.73028427563
-0.058967620500429,2464.74028427563
-0.0504493337184227,2464.75028427563
-0.0454442373333496,2464.76028427563
-0.0438062262315039,2464.77028427563
-0.0448366205068909,2464.78028427563
-0.0468492462642563,2464.79028427563
-0.0503142146203437,2464.80028427563
-0.0539749776971041,2464.81028427563
-0.0582917770067706,2464.82028427563
-0.0618836310601668,2464.83028427563
-0.0654223900461497,2464.84028427563
-0.0675609526253959,2464.85028427563
-0.069561407347405,2464.86028427563
-0.0711131928487005,2464.87028427563
-0.0729394925183926,2464.88028427563
-0.0748732773680982,2464.89028427563
-0.0768228778455395,2464.90028427563
-0.0796223135419303,2464.91028427563
-0.0825408640241602,2464.92028427563
-0.0862786222516077,2464.93028427563
-0.0905622330840645,2464.94028427563
-0.0943823767069221,2464.95028427563
-0.0982151919763466,2464.96028427563
-0.100796898570935,2464.97028427563
-0.103099925860323,2464.98028427563
-0.104236370112804,2464.99028427563
-0.105599970860005,2465.00028427563
-0.106314373155881,2465.01028427563
-0.106575951328727,2465.02028427563
-0.106460422392409,2465.03028427563
-0.105652310355769,2465.04028427563
-0.105367909347843,2465.05028427563
-0.105089216243418,2465.06028427563
-0.105224201300846,2465.07028427563
-0.10546828646301,2465.08028427563
-0.106423590515794,2465.09028427563
-0.10713754222166,2465.10028427563
-0.108168178395408,2465.11028427563
-0.109649787111955,2465.12028427563
-0.111778502889497,2465.13028427563
-0.11444019726925,2465.14028427563
-0.117985212297902,2465.15028427563
-0.12187205289941,2465.16028427563
-0.126203207405088,2465.17028427563
-0.130671383552291,2465.18028427563
-0.135396898412282,2465.19028427563
-0.140065400373338,2465.20028427563
-0.144281790471859,2465.21028427563
-0.148148402415936,2465.22028427563
-0.151763341301446,2465.23028427563
-0.155339693066154,2465.24028427563
-0.158768299247203,2465.25028427563
-0.162701742621098,2465.26028427563
-0.167433108003369,2465.27028427563
-0.172194398854573,2465.28028427563
-0.177514020690544,2465.29028427563
-0.182554423966755,2465.30028427563
-0.186984179618116,2465.31028427563
-0.190869210111982,2465.32028427563
-0.194553365395622,2465.33028427563
-0.198554255267463,2465.34028427563
-0.202393165726349,2465.35028427563
-0.206520658527874,2465.36028427563
-0.21089648563458,2465.37028427563
-0.21466791548643,2465.38028427563
-0.218438542494235,2465.39028427563
-0.222098971399667,2465.40028427563
-0.226025123714509,2465.41028427563
-0.23062905234616,2465.42028427563
-0.235684793895281,2465.43028427563
-0.240700392307041,2465.44028427563
-0.245487438596461,2465.45028427563
-0.250036334621702,2465.46028427563
-0.254505736645874,2465.47028427563
-0.258884146654839,2465.48028427563
-0.26282816817881,2465.49028427563
-0.26691911947796,2465.50028427563
-0.270471957525697,2465.51028427563
-0.273964946437436,2465.52028427563
-0.27734875251401,2465.53028427563
-0.28038215853939,2465.54028427563
-0.283590889027435,2465.55028427563
-0.287727637851345,2465.56028427563
-0.292564816706597,2465.57028427563
-0.296977002670084,2465.58028427563
-0.301635447613237,2465.59028427563
-0.306331113349634,2465.60028427563
-0.310746042980563,2465.61028427563
-0.314937152891539,2465.62028427563
-0.318010604158485,2465.63028427563
-0.319840086373198,2465.64028427563
-0.319063972350991,2465.65028427563
-0.314418949496386,2465.66028427563
-0.304397303989338,2465.67028427563
-0.289089019612647,2465.68028427563
-0.268820713669764,2465.69028427563
-0.245370072686297,2465.70028427563
-0.220231216290687,2465.71028427563
-0.196313790233923,2465.72028427563
-0.17503451231453,2465.73028427563
-0.156919651367689,2465.74028427563
-0.143819629112751,2465.75028427563
-0.134552443537348,2465.76028427563
-0.129120016889825,2465.77028427563
-0.126153899033842,2465.78028427563
-0.125474991101124,2465.79028427563
-0.125770433222796,2465.80028427563
-0.126525871540864,2465.81028427563
-0.128251214597758,2465.82028427563
-0.129982385252373,2465.83028427563
-0.131707807353682,2465.84028427563
-0.133086050488295,2465.85028427563
-0.133740716313704,2465.86028427563
-0.133339057825733,2465.87028427563
-0.13283480866393,2465.88028427563
-0.132119655867083,2465.89028427563
-0.131138989874837,2465.90028427563
-0.130921249544677,2465.91028427563
-0.13017942902991,2465.92028427563
-0.130605097254991,2465.93028427563
-0.131370788122191,2465.94028427563
-0.133345285648035,2465.95028427563
-0.136122769254137,2465.96028427563
-0.139145767346124,2465.97028427563
-0.142166392010033,2465.98028427563
-0.144318768897979,2465.99028427563
-0.145450926001223,2466.00028427563
-0.145720025007159,2466.01028427563
-0.144772979680491,2466.02028427563
-0.143368746937689,2466.03028427563
-0.141313719201726,2466.04028427563
-0.139366823611323,2466.05028427563
-0.137600697605592,2466.06028427563
-0.135929771450337,2466.07028427563
-0.134926298074202,2466.08028427563
-0.134484662753594,2466.09028427563
-0.134664299146386,2466.10028427563
-0.135538134741901,2466.11028427563
-0.136651070650877,2466.12028427563
-0.138285636139206,2466.13028427563
-0.140291014964994,2466.14028427563
-0.142663818699395,2466.15028427563
-0.145187811435667,2466.16028427563
-0.147684685787603,2466.17028427563
-0.150169042591664,2466.18028427563
-0.152419878252435,2466.19028427563
-0.154581515293874,2466.20028427563
-0.157062242442235,2466.21028427563
-0.159806242442009,2466.22028427563
-0.162514370680965,2466.23028427563
-0.165582865874351,2466.24028427563
-0.168566580412639,2466.25028427563
-0.17147967487885,2466.26028427563
-0.174787836610325,2466.27028427563
-0.177768352541799,2466.28028427563
-0.180837928309284,2466.29028427563
-0.183398914459657,2466.30028427563
-0.185921940849957,2466.31028427563
-0.188224096565705,2466.32028427563
-0.190665337241817,2466.33028427563
-0.193348640047685,2466.34028427563
-0.195709989876908,2466.35028427563
-0.198485387043396,2466.36028427563
-0.20156491094629,2466.37028427563
-0.204765253827943,2466.38028427563
-0.207589805087522,2466.39028427563
-0.210497881298,2466.40028427563
-0.213125618650395,2466.41028427563
-0.216125096693449,2466.42028427563
-0.219144085613117,2466.43028427563
-0.221796870251858,2466.44028427563
-0.224292003781357,2466.45028427563
-0.226716184543005,2466.46028427563
-0.229369774646883,2466.47028427563
-0.232111333467858,2466.48028427563
-0.235273874696614,2466.49028427563
-0.238798434821346,2466.50028427563
-0.242170948025709,2466.51028427563
-0.245721601271331,2466.52028427563
-0.249265379866649,2466.53028427563
-0.25291284265466,2466.54028427563
-0.256815999733644,2466.55028427563
-0.260592473710245,2466.56028427563
-0.264491661158749,2466.57028427563
-0.268240644412255,2466.58028427563
-0.271588056264166,2466.59028427563
-0.274845061134015,2466.60028427563
-0.277878616255149,2466.61028427563
-0.280454823969766,2466.62028427563
-0.282013528772977,2466.63028427563
-0.28179805145167,2466.64028427563
-0.277990128647937,2466.65028427563
-0.269936149545272,2466.66028427563
-0.256320000009184,2466.67028427563
-0.237207959320945,2466.68028427563
-0.214831749846874,2466.69028427563
-0.190302202335187,2466.70028427563
-0.166555462810068,2466.71028427563
-0.144938792522,2466.72028427563
-0.12681918623515,2466.73028427563
-0.112862859898497,2466.74028427563
-0.102909996677035,2466.75028427563
-0.0962882367160465,2466.76028427563
-0.092845725373146,2466.77028427563
-0.0917194587571599,2466.78028427563
-0.0925753369930896,2466.79028427563
-0.0942303511063159,2466.80028427563
-0.0961804255521106,2466.81028427563
-0.0976934187068552,2466.82028427563
-0.0979751370176853,2466.83028427563
-0.0976312817159399,2466.84028427563
-0.0966500055146249,2466.85028427563
-0.0952473833544742,2466.86028427563
-0.0932271825776437,2466.87028427563
-0.0909090528436581,2466.88028427563
-0.0884480820201133,2466.89028427563
-0.0866817271957409,2466.90028427563
-0.0857051234615261,2466.91028427563
-0.0858025091728784,2466.92028427563
-0.0876686493124586,2466.93028427563
-0.0900552799703362,2466.94028427563
-0.0926509854644215,2466.95028427563
-0.0951399061970716,2466.96028427563
-0.0965879627177016,2466.97028427563
-0.0977747468354432,2466.98028427563
-0.09846080351748,2466.99028427563
-0.0989198350150415,2467.00028427563
-0.0988755123332083,2467.01028427563
-0.097540956151305,2467.02028427563
-0.0959612361215164,2467.03028427563
-0.0936693532514144,2467.04028427563
-0.0906578779049115,2467.05028427563
-0.0882922704726213,2467.06028427563
-0.0860502969413389,2467.07028427563
-0.0845668221102001,2467.08028427563
-0.083958749908736,2467.09028427563
-0.0841558388887435,2467.10028427563
-0.0851345278287794,2467.11028427563
-0.0864707667682177,2467.12028427563
-0.087864457986279,2467.13028427563
-0.0898169077986592,2467.14028427563
-0.0915835529124135,2467.15028427563
-0.0932619723601504,2467.16028427563
-0.0951794979471352,2467.17028427563
-0.0969341041863679,2467.18028427563
-0.099203835032015,2467.19028427563
-0.101699989364715,2467.20028427563
-0.104517487325173,2467.21028427563
-0.106820333033904,2467.22028427563
-0.109514583124827,2467.23028427563
-0.112196247441793,2467.24028427563
-0.114870909822306,2467.25028427563
-0.117863267518773,2467.26028427563
-0.120420904748199,2467.27028427563
-0.122598530871848,2467.28028427563
-0.124982462549796,2467.29028427563
-0.127503504848826,2467.30028427563
-0.130683805494068,2467.31028427563
-0.134128263310415,2467.32028427563
-0.137830163982369,2467.33028427563
-0.141582187778958,2467.34028427563
-0.144725925300449,2467.35028427563
-0.14757308985157,2467.36028427563
-0.150236146870615,2467.37028427563
-0.152805426017926,2467.38028427563
-0.155111354466394,2467.39028427563
-0.157308859438681,2467.40028427563
-0.159362523107617,2467.41028427563
-0.161241752734473,2467.42028427563
-0.162878822076187,2467.43028427563
-0.164742291232828,2467.44028427563
-0.167373578941858,2467.45028427563
-0.17060539633778,2467.46028427563
-0.173712743373608,2467.47028427563
-0.176613950574418,2467.48028427563
-0.179565801996463,2467.49028427563
-0.182449544041974,2467.50028427563
-0.185179120737743,2467.51028427563
-0.187982965760368,2467.52028427563
-0.191068092425054,2467.53028427563
-0.194594596411802,2467.54028427563
-0.197923433036091,2467.55028427563
-0.201117250231978,2467.56028427563
-0.204644562731904,2467.57028427563
-0.207772705701503,2467.58028427563
-0.210428978648922,2467.59028427563
-0.212504976211872,2467.60028427563
-0.2128856128273,2467.61028427563
-0.210309469086667,2467.62028427563
-0.203204076217774,2467.63028427563
-0.19125580896461,2467.64028427563
-0.174277797043268,2467.65028427563
-0.153351541193709,2467.66028427563
-0.130673755409068,2467.67028427563
-0.107666724295964,2467.68028427563
-0.0863626947111723,2467.69028427563
-0.0684009422821861,2467.70028427563
-0.0545993721390758,2467.71028427563
-0.0447063971596074,2467.72028427563
-0.0385233245007202,2467.73028427563
-0.0354191611508213,2467.74028427563
-0.0344877222806816,2467.75028427563
-0.0343973623813638,2467.76028427563
-0.0356230880241372,2467.77028427563
-0.0370549543281194,2467.78028427563
-0.0380689086756662,2467.79028427563
-0.0386956890432654,2467.80028427563
-0.0388926030068019,2467.81028427563
-0.0386511436121408,2467.82028427563
-0.03770487237362,2467.83028427563
-0.0367716246837789,2467.84028427563
-0.0360650335308408,2467.85028427563
-0.036127479094746,2467.86028427563
-0.0364165983103314,2467.87028427563
-0.0374942856533862,2467.88028427563
-0.0381931469207585,2467.89028427563
-0.0391334993939348,2467.90028427563
-0.0400627200631713,2467.91028427563
-0.0409133288198955,2467.92028427563
-0.0418376033989305,2467.93028427563
-0.0428670591741541,2467.94028427563
-0.0432825777367964,2467.95028427563
-0.0435118035501665,2467.96028427563
-0.042622061505669,2467.97028427563
-0.0413021569629965,2467.98028427563
-0.03895702804121,2467.99028427563
-0.0362687396622004,2468.00028427563
-0.0339525815724415,2468.01028427563
-0.0318213274421136,2468.02028427563
-0.0302195079699726,2468.03028427563
-0.029151275749497,2468.04028427563
-0.0279629937143378,2468.05028427563
-0.0267374045606087,2468.06028427563
-0.0260179312904012,2468.07028427563
-0.0253895547052576,2468.08028427563
-0.0255634964934847,2468.09028427563
-0.0265106995418692,2468.10028427563
-0.0280685071261256,2468.11028427563
-0.0301747687910602,2468.12028427563
-0.0324720217887071,2468.13028427563
-0.0343276355505168,2468.14028427563
-0.0359914767432171,2468.15028427563
-0.0376760801553163,2468.16028427563
-0.0390573835130208,2468.17028427563
-0.0406523602719015,2468.18028427563
-0.0418109899096516,2468.19028427563
-0.0430785659748694,2468.20028427563
-0.0449855647571741,2468.21028427563
-0.0474093151944576,2468.22028427563
-0.050126353603195,2468.23028427563
-0.053157756335942,2468.24028427563
-0.056602273709524,2468.25028427563
-0.0599569346050661,2468.26028427563
-0.0633709080685369,2468.27028427563
-0.0666984598122759,2468.28028427563
-0.0700624313304589,2468.29028427563
-0.0735402681480893,2468.30028427563
-0.0770951117160256,2468.31028427563
-0.0804739520069947,2468.32028427563
-0.083397521599354,2468.33028427563
-0.0861760883676062,2468.34028427563
-0.0885395659567406,2468.35028427563
-0.0908183982296556,2468.36028427563
-0.0927077551470562,2468.37028427563
-0.094236987605226,2468.38028427563
-0.0957570758577286,2468.39028427563
-0.0980452452754924,2468.40028427563
-0.100656392066112,2468.41028427563
-0.103766540462229,2468.42028427563
-0.107151099572398,2468.43028427563
-0.11081483998485,2468.44028427563
-0.114561815661352,2468.45028427563
-0.118436753691499,2468.46028427563
-0.121678996645368,2468.47028427563
-0.125280304068918,2468.48028427563
-0.12877392703009,2468.49028427563
-0.132522185003631,2468.50028427563
-0.136181731706354,2468.51028427563
-0.139513985543854,2468.52028427563
-0.14234136671375,2468.53028427563
-0.144390240232381,2468.54028427563
-0.145120223573211,2468.55028427563
-0.143221411508205,2468.56028427563
-0.137794821179548,2468.57028427563
-0.127192283034416,2468.58028427563
-0.11086568596039,2468.59028427563
-0.0896602595035252,2468.60028427563
-0.0647716884680357,2468.61028427563
-0.038230477739133,2468.62028427563
-0.0125545445753528,2468.63028427563
0.0103190437250526,2468.64028427563
0.0291950311582651,2468.65028427563
0.0435945898571967,2468.66028427563
0.0532220680238187,2468.67028427563
0.0592011344519229,2468.68028427563
0.0622109194209879,2468.69028427563
0.0633587723756744,2468.70028427563
0.0634300975144891,2468.71028427563
0.063484688655384,2468.72028427563
0.0635217577251515,2468.73028427563
0.0637371735871167,2468.74028427563
0.0639127152046379,2468.75028427563
0.0648089344228395,2468.76028427563
0.0653019638719473,2468.77028427563
0.0663774801509299,2468.78028427563
0.0675585621206005,2468.79028427563
0.0687983108932807,2468.80028427563
0.0700601165877614,2468.81028427563
0.0708160404974269,2468.82028427563
0.0704304506692083,2468.83028427563
0.0689965323165066,2468.84028427563
0.0668598763853195,2468.85028427563
0.0645911665167993,2468.86028427563
0.0622134868900162,2468.87028427563
0.0611612430247748,2468.88028427563
0.0609061798809528,2468.89028427563
0.0616699441702101,2468.90028427563
0.0634728844976234,2468.91028427563
0.0659130191090275,2468.92028427563
0.0691514356937804,2468.93028427563
0.0724929748989615,2468.94028427563
0.07549806057115,2468.95028427563
0.0774957769148276,2468.96028427563
0.0789304408057934,2468.97028427563
0.0798343778180891,2468.98028427563
0.0800021923088698,2468.99028427563
0.0800715925162961,2469.00028427563
0.0799390308689267,2469.01028427563
0.0795289890786359,2469.02028427563
0.0783370754541351,2469.03028427563
0.0767990411691535,2469.04028427563
0.0757449423999375,2469.05028427563
0.0749060798978549,2469.06028427563
0.0738019319412656,2469.07028427563
0.0723259085483698,2469.08028427563
0.0707923247741093,2469.09028427563
0.0688806509503559,2469.10028427563
0.0660313201294349,2469.11028427563
0.0623961438850997,2469.12028427563
0.0586184544122883,2469.13028427563
0.0544462022111336,2469.14028427563
0.0503554655516643,2469.15028427563
0.0464811641948727,2469.16028427563
0.042629723721048,2469.17028427563
0.0388548107797369,2469.18028427563
0.035245860261804,2469.19028427563
0.0321640882820463,2469.20028427563
0.0291280170234215,2469.21028427563
0.0262386730249916,2469.22028427563
0.0235783876535452,2469.23028427563
0.020826839135072,2469.24028427563
0.0184616094928803,2469.25028427563
0.0163059734956518,2469.26028427563
0.0136036892035482,2469.27028427563
0.0106923840635257,2469.28028427563
0.00700472165441764,2469.29028427563
0.00324190012064097,2469.30028427563
-0.000530074888080222,2469.31028427563
-0.00479481892979059,2469.32028427563
-0.00892166132530521,2469.33028427563
-0.0124152029734384,2469.34028427563
-0.0160776226933081,2469.35028427563
-0.0198268098040929,2469.36028427563
-0.0239689815665517,2469.37028427563
-0.0282328659055445,2469.38028427563
-0.0324197224010915,2469.39028427563
-0.0359687587828177,2469.40028427563
-0.0391549801182977,2469.41028427563
-0.0423448195618189,2469.42028427563
-0.0453188228466671,2469.43028427563
-0.0486503599686904,2469.44028427563
-0.0523596635608281,2469.45028427563
-0.0568871988725598,2469.46028427563
-0.0615728931860657,2469.47028427563
-0.0655270609503813,2469.48028427563
-0.0691467531152384,2469.49028427563
-0.0711515147351489,2469.50028427563
-0.0697068510846396,2469.51028427563
-0.0633394965970038,2469.52028427563
-0.0511865259629175,2469.53028427563
-0.0325307743782888,2469.54028427563
-0.0092857376633675,2469.55028427563
0.0169270263767365,2469.56028427563
0.0443752722718564,2469.57028427563
0.0707766103048926,2469.58028427563
0.094824350483585,2469.59028427563
0.115410308840133,2469.60028427563
0.131621993945962,2469.61028427563
0.143642576226219,2469.62028427563
0.151874329824645,2469.63028427563
0.156904361694725,2469.64028427563
0.159617732884711,2469.65028427563
0.160551231180966,2469.66028427563
0.160804054805087,2469.67028427563
0.160496020784621,2469.68028427563
0.160113115951174,2469.69028427563
0.159545609485909,2469.70028427563
0.159394778900439,2469.71028427563
0.160375961052409,2469.72028427563
0.161740831028899,2469.73028427563
0.163662146089417,2469.74028427563
0.165754129602258,2469.75028427563
0.167519620177066,2469.76028427563
0.168143737364144,2469.77028427563
0.167786046076971,2469.78028427563
0.16610659278416,2469.79028427563
0.163602630307072,2469.80028427563
0.160752254130861,2469.81028427563
0.157447850632233,2469.82028427563
0.154555281913954,2469.83028427563
0.152154762321842,2469.84028427563
0.150023070176792,2469.85028427563
0.148726780520563,2469.86028427563
0.14899673219792,2469.87028427563
0.15028759394954,2469.88028427563
0.15236699090241,2469.89028427563
0.154765332354239,2469.90028427563
0.157371204138811,2469.91028427563
0.159662688966266,2469.92028427563
0.161581230371129,2469.93028427563
0.163243762732119,2469.94028427563
0.163855217688768,2469.95028427563
0.163656202118386,2469.96028427563
0.162794860176631,2469.97028427563
0.160775566550994,2469.98028427563
0.158735660202632,2469.99028427563
0.156504513093777,2470.00028427563
0.153561052156079,2470.01028427563
0.150458488401763,2470.02028427563
0.147269709353358,2470.03028427563
0.143676092828194,2470.04028427563
0.140467179737199,2470.05028427563
0.136756397815232,2470.06028427563
0.133379593413043,2470.07028427563
0.129793651807298,2470.08028427563
0.125699774170784,2470.09028427563
0.121792699906873,2470.10028427563
0.11730579659903,2470.11028427563
0.112645417434377,2470.12028427563
0.107521263000872,2470.13028427563
0.102157314414396,2470.14028427563
0.0970909653041185,2470.15028427563
0.0919187580085992,2470.16028427563
0.0871647185815094,2470.17028427563
0.0826209344775476,2470.18028427563
0.0788644895851657,2470.19028427563
0.0743575092152485,2470.20028427563
0.0698243558704212,2470.21028427563
0.0651948610362712,2470.22028427563
0.0603792554272606,2470.23028427563
0.0555693328677841,2470.24028427563
0.050635125797966,2470.25028427563
0.045973230748264,2470.26028427563
0.0408229929745797,2470.27028427563
0.0361970489934618,2470.28028427563
0.0317033696532159,2470.29028427563
0.0269409911635976,2470.30028427563
0.0225863781744752,2470.31028427563
0.0183088489093994,2470.32028427563
0.0144730285729186,2470.33028427563
0.0104712685119291,2470.34028427563
0.00634875306885799,2470.35028427563
0.00199698111331194,2470.36028427563
-0.00270375883284473,2470.37028427563
-0.00765891659186378,2470.38028427563
-0.0128821606021107,2470.39028427563
-0.0179456231036352,2470.40028427563
-0.0232645754477713,2470.41028427563
-0.0283048491349449,2470.42028427563
-0.033604111585125,2470.43028427563
-0.0388244677579547,2470.44028427563
-0.043850451014367,2470.45028427563
-0.048582224507411,2470.46028427563
-0.0515158332386461,2470.47028427563
-0.0516150853490734,2470.48028427563
-0.047364288707253,2470.49028427563
-0.036857666372798,2470.50028427563
-0.0205665232387123,2470.51028427563
0.000811116882163204,2470.52028427563
0.0253215947354452,2470.53028427563
0.0514967577963496,2470.54028427563
0.0764082202928475,2470.55028427563
0.0987147300038433,2470.56028427563
0.117336749741177,2470.57028427563
0.131498472371056,2470.58028427563
0.141359515326337,2470.59028427563
0.147339444340647,2470.60028427563
0.150441472683469,2470.61028427563
0.151559496751651,2470.62028427563
0.150773797688553,2470.63028427563
0.148986498989649,2470.64028427563
0.146693542489228,2470.65028427563
0.144606767118885,2470.66028427563
0.143084585517144,2470.67028427563
0.14171361444602,2470.68028427563
0.141021880888574,2470.69028427563
0.140503212745884,2470.70028427563
0.140061313400687,2470.71028427563
0.140068303165117,2470.72028427563
0.139670361114306,2470.73028427563
0.139128130004009,2470.74028427563
0.13877232113653,2470.75028427563
0.137445014549932,2470.76028427563
0.135325706902644,2470.77028427563
0.132949419626721,2470.78028427563
0.130216055391136,2470.79028427563
0.127365842975923,2470.80028427563
0.12496391506119,2470.81028427563
0.123552157232032,2470.82028427563
0.123193508127376,2470.83028427563
0.123654271975447,2470.84028427563
0.124799340222656,2470.85028427563
0.126313736548288,2470.86028427563
0.127888142781246,2470.87028427563
0.129154325047361,2470.88028427563
0.130265377399071,2470.89028427563
0.13075244255363,2470.90028427563
0.130976043564452,2470.91028427563
0.130630066814513,2470.92028427563
0.129814055454745,2470.93028427563
0.128704414374664,2470.94028427563
0.126961803570524,2470.95028427563
0.124586723307997,2470.96028427563
0.12163156346157,2470.97028427563
0.117809041622374,2470.98028427563
0.113619275986798,2470.99028427563
0.109751426607316,2471.00028427563
0.105378527088065,2471.01028427563
0.100851590734553,2471.02028427563
0.0962255980224136,2471.03028427563
0.0916959132540644,2471.04028427563
0.0873277777052923,2471.05028427563
0.0831601590310938,2471.06028427563
0.0789317972790021,2471.07028427563
0.0748316633561997,2471.08028427563
0.0705247232867345,2471.09028427563
0.0659887967103772,2471.10028427563
0.0612903443110078,2471.11028427563
0.0565434280190614,2471.12028427563
0.051434626575351,2471.13028427563
0.0462938641693221,2471.14028427563
0.0413389864332058,2471.15028427563
0.0364468088252096,2471.16028427563
0.031343992952149,2471.17028427563
0.0267135839878148,2471.18028427563
0.0223957793561955,2471.19028427563
0.0180516041997778,2471.20028427563
0.0134837732280555,2471.21028427563
0.00950171434995641,2471.22028427563
0.00556065854705426,2471.23028427563
0.00159496562757417,2471.24028427563
-0.00185304010185206,2471.25028427563
-0.00539531157180465,2471.26028427563
-0.00840767579789112,2471.27028427563
-0.0119709442261478,2471.28028427563
-0.0156052052252297,2471.29028427563
-0.0199085926793145,2471.30028427563
-0.024475245665368,2471.31028427563
-0.0287956186815592,2471.32028427563
-0.0335760546321437,2471.33028427563
-0.0383568401825566,2471.34028427563
-0.0436875399660448,2471.35028427563
-0.0487953609116318,2471.36028427563
-0.0542554033882173,2471.37028427563
-0.0596851009162588,2471.38028427563
-0.0646152597341163,2471.39028427563
-0.0693077125515557,2471.40028427563
-0.0733872075887477,2471.41028427563
-0.0765961844887922,2471.42028427563
-0.0775299299131742,2471.43028427563
-0.0743092628426886,2471.44028427563
-0.0653473052364218,2471.45028427563
-0.0500096407936923,2471.46028427563
-0.0289576927801294,2471.47028427563
-0.0043668683361297,2471.48028427563
0.0214869203265711,2471.49028427563
0.0469274397035025,2471.50028427563
0.0695154784792367,2471.51028427563
0.0883269370337599,2471.52028427563
0.103049984192517,2471.53028427563
0.113345963450137,2471.54028427563
0.119791980653466,2471.55028427563
0.122630773950632,2471.56028427563
0.122666431952494,2471.57028427563
0.121041312384132,2471.58028427563
0.1187497150832,2471.59028427563
0.116622271603664,2471.60028427563
0.114659909055237,2471.61028427563
0.113149772487037,2471.62028427563
0.111267938961718,2471.63028427563
0.109569167376044,2471.64028427563
0.108065675732357,2471.65028427563
0.106450420303683,2471.66028427563
0.105001043658587,2471.67028427563
0.10385588518576,2471.68028427563
0.101776192698379,2471.69028427563
0.0992858665029908,2471.70028427563
0.0958797749146763,2471.71028427563
0.092026388748528,2471.72028427563
0.0876977890927559,2471.73028427563
0.0832823995672526,2471.74028427563
0.078965155893402,2471.75028427563
0.0751840592258274,2471.76028427563
0.0720609016164543,2471.77028427563
0.0695746035308104,2471.78028427563
0.0679963256840667,2471.79028427563
0.0669322401812861,2471.80028427563
0.0668548386941205,2471.81028427563
0.067455109039674,2471.82028427563
0.0684130301811961,2471.83028427563
0.0691902212058259,2471.84028427563
0.0697381633392159,2471.85028427563
0.0698457014957552,2471.86028427563
0.0696777680625001,2471.87028427563
0.0690887575218617,2471.88028427563
0.067516078801426,2471.89028427563
0.0648769863392482,2471.90028427563
0.0618002164575374,2471.91028427563
0.0575867503308889,2471.92028427563
0.0528345606989584,2471.93028427563
0.0480233833542584,2471.94028427563
0.0432886658552659,2471.95028427563
0.0388987466986044,2471.96028427563
0.034543218975467,2471.97028427563
0.0306314301702066,2471.98028427563
0.026389410474488,2471.99028427563
0.0214405570751804,2472.00028427563
0.0167319818585342,2472.01028427563
0.0115650023840795,2472.02028427563
0.00630721526490961,2472.03028427563
0.00126372119918948,2472.04028427563
-0.00326690226751201,2472.05028427563
-0.00737126727438968,2472.06028427563
-0.0109401535328594,2472.07028427563
-0.0144832201795918,2472.08028427563
-0.0186223115401517,2472.09028427563
-0.0232741400789441,2472.10028427563
-0.0281788201223918,2472.11028427563
-0.0335113673301997,2472.12028427563
-0.0383365262559618,2472.13028427563
-0.0432690320922317,2472.14028427563
-0.047690320414533,2472.15028427563
-0.0520368877867369,2472.16028427563
-0.0562755711000464,2472.17028427563
-0.0603444764339054,2472.18028427563
-0.064276485850486,2472.19028427563
-0.06854906022515,2472.20028427563
-0.072788109218666,2472.21028427563
-0.0775916393100344,2472.22028427563
-0.0821588294891144,2472.23028427563
-0.0866628504603553,2472.24028427563
-0.0911165449609508,2472.25028427563
-0.0954786468454419,2472.26028427563
-0.0999279189839562,2472.27028427563
-0.104115915914545,2472.28028427563
-0.108660671849598,2472.29028427563
-0.113360319629978,2472.30028427563
-0.118922372406378,2472.31028427563
-0.123508468313976,2472.32028427563
-0.128589428024373,2472.33028427563
-0.133586537728373,2472.34028427563
-0.138317236197254,2472.35028427563
-0.143094458762486,2472.36028427563
-0.147568333499938,2472.37028427563
-0.152026836558088,2472.38028427563
-0.15639859127759,2472.39028427563
-0.160642184576224,2472.40028427563
-0.163640202441066,2472.41028427563
-0.164206020044006,2472.42028427563
-0.160965006756217,2472.43028427563
-0.152052352171856,2472.44028427563
-0.13730309323028,2472.45028427563
-0.116630125695822,2472.46028427563
-0.0912754013256922,2472.47028427563
-0.0629574901264312,2472.48028427563
-0.0336383947006247,2472.49028427563
-0.00578464540426777,2472.50028427563
0.0190194300780787,2472.51028427563
0.0395278539910025,2472.52028427563
0.054825104881126,2472.53028427563
0.0656983705353906,2472.54028427563
0.0720031209559892,2472.55028427563
0.0750395757038325,2472.56028427563
0.0756118842964601,2472.57028427563
0.0747960114074927,2472.58028427563
0.0732223405394317,2472.59028427563
0.0706539453142985,2472.60028427563
0.0685409528820227,2472.61028427563
0.0667732015720809,2472.62028427563
0.0659790474448608,2472.63028427563
0.0656653109049955,2472.64028427563
0.0663354002720595,2472.65028427563
0.0671394012384959,2472.66028427563
0.0681953363292789,2472.67028427563
0.068849297657671,2472.68028427563
0.069076713210979,2472.69028427563
0.0681199425877524,2472.70028427563
0.0663743696041819,2472.71028427563
0.0637497589179481,2472.72028427563
0.0605050809525732,2472.73028427563
0.0575649575091812,2472.74028427563
0.055042087927675,2472.75028427563
0.0530180957514583,2472.76028427563
0.0518389190102928,2472.77028427563
0.0523074335056796,2472.78028427563
0.0532375740795984,2472.79028427563
0.0548216927970716,2472.80028427563
0.056358175742396,2472.81028427563
0.0573229922630768,2472.82028427563
0.0588121156664502,2472.83028427563
0.0602017587398017,2472.84028427563
0.0612887481677164,2472.85028427563
0.0627034637623456,2472.86028427563
0.0632191648907201,2472.87028427563
0.0629772478536828,2472.88028427563
0.0615029687365738,2472.89028427563
0.0597847578997153,2472.90028427563
0.0574898746449601,2472.91028427563
0.0547815107325189,2472.92028427563
0.0518711963760448,2472.93028427563
0.0483815390113046,2472.94028427563
0.0445210796680116,2472.95028427563
0.0410522913596416,2472.96028427563
0.0373113015242664,2472.97028427563
0.0345805012575747,2472.98028427563
0.0312385494840779,2472.99028427563
0.0280752461302692,2473.00028427563
0.0242183277487063,2473.01028427563
0.0200215791054145,2473.02028427563
0.015144082929699,2473.03028427563
0.0098016520660669,2473.04028427563
0.00473445752760583,2473.05028427563
-0.000760842237769649,2473.06028427563
-0.00588604860316375,2473.07028427563
-0.0107345819775566,2473.08028427563
-0.0150243767718914,2473.09028427563
-0.0180892745953227,2473.10028427563
-0.0214078763901305,2473.11028427563
-0.0254708596800097,2473.12028427563
-0.0295451325174785,2473.13028427563
-0.0344313761486984,2473.14028427563
-0.0395190426633564,2473.15028427563
-0.0443695147440209,2473.16028427563
-0.0482824787893156,2473.17028427563
-0.0519474520008273,2473.18028427563
-0.0555757996492621,2473.19028427563
-0.0593538134057284,2473.20028427563
-0.0635369955530232,2473.21028427563
-0.068260472014877,2473.22028427563
-0.0728933497621829,2473.23028427563
-0.0776212875389277,2473.24028427563
-0.081976471245127,2473.25028427563
-0.0861561104934213,2473.26028427563
-0.0897254227599257,2473.27028427563
-0.0935347203535209,2473.28028427563
-0.0974126158698766,2473.29028427563
-0.101298995543248,2473.30028427563
-0.105417717242322,2473.31028427563
-0.109712057916291,2473.32028427563
-0.11409361868727,2473.33028427563
-0.118372064668199,2473.34028427563
-0.123044422448578,2473.35028427563
-0.127626953361286,2473.36028427563
-0.132513781719312,2473.37028427563
-0.137382958371282,2473.38028427563
-0.142610774829825,2473.39028427563
-0.147771954026673,2473.40028427563
-0.152443441329438,2473.41028427563
-0.155908080748081,2473.42028427563
-0.156335309535667,2473.43028427563
-0.151773023968269,2473.44028427563
-0.140909370658177,2473.45028427563
-0.123043242610048,2473.46028427563
-0.0987594405918767,2473.47028427563
-0.0693955834998122,2473.48028427563
-0.037050937030477,2473.49028427563
-0.00439423220953665,2473.50028427563
0.0264411308758916,2473.51028427563
0.0544386200758683,2473.52028427563
0.0780726448733633,2473.53028427563
0.096099730085501,2473.54028427563
0.109055078439961,2473.55028427563
0.118152949346072,2473.56028427563
0.123146418813541,2473.57028427563
0.125187735286745,2473.58028427563
0.125545290267103,2473.59028427563
0.124159132584707,2473.60028427563
0.12293055495613,2473.61028427563
0.12102099100488,2473.62028427563
0.119336211847383,2473.63028427563
0.118494987099273,2473.64028427563
0.117519119062154,2473.65028427563
0.117389914888125,2473.66028427563
0.117706999746125,2473.67028427563
0.119030784711941,2473.68028427563
0.119874534968998,2473.69028427563
0.120318729553388,2473.70028427563
0.120000270767681,2473.71028427563
0.118820330537432,2473.72028427563
0.116668705564777,2473.73028427563
0.114019372733872,2473.74028427563
0.112003172243438,2473.75028427563
0.110077195077385,2473.76028427563
0.109497848980114,2473.77028427563
0.109564606229768,2473.78028427563
0.110177165047666,2473.79028427563
0.112031941622312,2473.80028427563
0.114779125473341,2473.81028427563
0.117874535997829,2473.82028427563
0.121565433865335,2473.83028427563
0.125557928812153,2473.84028427563
0.129564788494204,2473.85028427563
0.133002076694322,2473.86028427563
0.135143502974268,2473.87028427563
0.135743520823264,2473.88028427563
0.135022658819659,2473.89028427563
0.13259498120025,2473.90028427563
0.129856316568319,2473.91028427563
0.12758442357001,2473.92028427563
0.125385832945809,2473.93028427563
0.122745258722098,2473.94028427563
0.119733129033852,2473.95028427563
0.115792310612468,2473.96028427563
0.111422315959083,2473.97028427563
0.106437121619867,2473.98028427563
0.101664999369766,2473.99028427563
0.0969407065138593,2474.00028427563
0.0920157744244844,2474.01028427563
0.0870703195427069,2474.02028427563
0.0821505343879645,2474.03028427563
0.0772288039620426,2474.04028427563
0.071827031529139,2474.05028427563
0.0668683483576496,2474.06028427563
0.0620675631697378,2474.07028427563
0.057343763553616,2474.08028427563
0.0529367490756665,2474.09028427563
0.0485488372443773,2474.10028427563
0.0441464411717763,2474.11028427563
0.0397821737497352,2474.12028427563
0.0355882534429641,2474.13028427563
0.0304897367599021,2474.14028427563
0.0257222924173121,2474.15028427563
0.0208262217855087,2474.16028427563
0.0165030901169346,2474.17028427563
0.0129401520725107,2474.18028427563
0.00975641635107632,2474.19028427563
0.00631802814141049,2474.20028427563
0.00193522676923703,2474.21028427563
-0.00297230735960438,2474.22028427563
-0.00813760487615844,2474.23028427563
-0.0141645442253225,2474.24028427563
-0.0210159837661274,2474.25028427563
-0.0271322677809239,2474.26028427563
-0.033553113672176,2474.27028427563
-0.0393040665578433,2474.28028427563
-0.0447538291726626,2474.29028427563
-0.0497807203722236,2474.30028427563
-0.0544785489035255,2474.31028427563
-0.0588917371424885,2474.32028427563
-0.0628245396367082,2474.33028427563
-0.06702050134993,2474.34028427563
-0.0705197158098447,2474.35028427563
-0.0744624064504064,2474.36028427563
-0.0787519128349803,2474.37028427563
-0.0838645828395905,2474.38028427563
-0.0895213680484212,2474.39028427563
-0.0950097003533108,2474.40028427563
-0.100328690677345,2474.41028427563
-0.104955165456884,2474.42028427563
-0.10892756957956,2474.43028427563
-0.111250699584581,2474.44028427563
-0.111092804652267,2474.45028427563
-0.106091597038444,2474.46028427563
-0.0940011411984114,2474.47028427563
-0.0739840383156523,2474.48028427563
-0.0462372074468454,2474.49028427563
-0.0125669673245098,2474.50028427563
0.0249813806924956,2474.51028427563
0.0642323179219026,2474.52028427563
0.101422147796047,2474.53028427563
0.134999155161426,2474.54028427563
0.163659548264784,2474.55028427563
0.186554649588465,2474.56028427563
0.20349238944169,2474.57028427563
0.216025420227887,2474.58028427563
0.223716982619245,2474.59028427563
0.227921196466843,2474.60028427563
0.229179466576839,2474.61028427563
0.22857901382162,2474.62028427563
0.227865888632537,2474.63028427563
0.227144096450983,2474.64028427563
0.227137425246574,2474.65028427563
0.227416138572398,2474.66028427563
0.227749856085651,2474.67028427563
0.228085007912953,2474.68028427563
0.228452505158945,2474.69028427563
0.228441361263818,2474.70028427563
0.228005159462833,2474.71028427563
0.226658607442123,2474.72028427563
0.224423461975767,2474.73028427563
0.221324139173335,2474.74028427563
0.218222968050437,2474.75028427563
0.214441900055701,2474.76028427563
0.210502439788468,2474.77028427563
0.20712286286541,2474.78028427563
0.204345351513266,2474.79028427563
0.202931355434515,2474.80028427563
0.202746340485864,2474.81028427563
0.203649198195888,2474.82028427563
0.205430547540659,2474.83028427563
0.208089771678891,2474.84028427563
0.210824770621447,2474.85028427563
0.213648075492659,2474.86028427563
0.216502755592996,2474.87028427563
0.219359986281492,2474.88028427563
0.221975401539944,2474.89028427563
0.22363448520271,2474.90028427563
0.224615117772955,2474.91028427563
0.224799083305075,2474.92028427563
0.22406453013768,2474.93028427563
0.222206940657039,2474.94028427563
0.220302635259589,2474.95028427563
0.217215095014955,2474.96028427563
0.213367897360343,2474.97028427563
0.20892641115928,2474.98028427563
0.204337100508655,2474.99028427563
0.199542748310654,2475.00028427563
0.193660496467605,2475.01028427563
0.188032215518975,2475.02028427563
0.182660490944509,2475.03028427563
0.176832220798997,2475.04028427563
0.171293178584181,2475.05028427563
0.16603260820271,2475.06028427563
0.160945412461513,2475.07028427563
0.155577629192213,2475.08028427563
0.150116399135453,2475.09028427563
0.144482074425211,2475.10028427563
0.138649820967602,2475.11028427563
0.132914013809883,2475.12028427563
0.127528148218099,2475.13028427563
0.12212884032581,2475.14028427563
0.116168518098435,2475.15028427563
0.110401679534899,2475.16028427563
0.104492064343487,2475.17028427563
0.0986756149716647,2475.18028427563
0.0931021927639104,2475.19028427563
0.0874401246390314,2475.20028427563
0.0823111571081997,2475.21028427563
0.0777433251432632,2475.22028427563
0.0728066195106806,2475.23028427563
0.0682667583294296,2475.24028427563
0.0634826266523795,2475.25028427563
0.0584915389598681,2475.26028427563
0.0532667138773566,2475.27028427563
0.0477714672862206,2475.28028427563
0.0414638926491405,2475.29028427563
0.0351417601792971,2475.30028427563
0.029006321797239,2475.31028427563
0.0229193789337742,2475.32028427563
0.017077282910974,2475.33028427563
0.0117012459623743,2475.34028427563
0.00629518605625018,2475.35028427563
0.0003209921062484,2475.36028427563
-0.00572978004368421,2475.37028427563
-0.0117600024218347,2475.38028427563
-0.018390795168844,2475.39028427563
-0.0249812760025118,2475.40028427563
-0.031673585075445,2475.41028427563
-0.0379056314607522,2475.42028427563
-0.0443861875129056,2475.43028427563
-0.0503092374734883,2475.44028427563
-0.0559617010424121,2475.45028427563
-0.0619016064233826,2475.46028427563
-0.0670766347347947,2475.47028427563
-0.0706806914544163,2475.48028427563
-0.0700167123279073,2475.49028427563
-0.0628125763537349,2475.50028427563
-0.0465742006725942,2475.51028427563
-0.0212122279174126,2475.52028427563
0.0126363867114221,2475.53028427563
0.0523476683113914,2475.54028427563
0.0944964434857177,2475.55028427563
0.136611322234961,2475.56028427563
0.17662584971635,2475.57028427563
0.21243294468069,2475.58028427563
0.242617243156214,2475.59028427563
0.266874415612515,2475.60028427563
0.285541075976836,2475.61028427563
0.299043182190623,2475.62028427563
0.306963160347851,2475.63028427563
0.310920202980564,2475.64028427563
0.312085534677104,2475.65028427563
0.311627893520563,2475.66028427563
0.310355377389946,2475.67028427563
0.308372189323712,2475.68028427563
0.305830549973966,2475.69028427563
0.30395223693952,2475.70028427563
0.301794401863117,2475.71028427563
0.300496077970624,2475.72028427563
0.29970116604978,2475.73028427563
0.299229761267369,2475.74028427563
0.29874910790697,2475.75028427563
0.296891539794377,2475.76028427563
0.293738595911759,2475.77028427563
0.289445649636948,2475.78028427563
0.283908624581736,2475.79028427563
0.277893644289566,2475.80028427563
0.272283628516572,2475.81028427563
0.266368004315528,2475.82028427563
0.262310292294389,2475.83028427563
0.258876343952278,2475.84028427563
0.256754487407962,2475.85028427563
0.255855712118548,2475.86028427563
0.25624922891136,2475.87028427563
0.2583089736005,2475.88028427563
0.261520435750748,2475.89028427563
0.265286494256073,2475.90028427563
0.268852919864778,2475.91028427563
0.271238985676941,2475.92028427563
0.273057694591946,2475.93028427563
0.273263914369474,2475.94028427563
0.272616794882475,2475.95028427563
0.270856194938564,2475.96028427563
0.268412161041627,2475.97028427563
0.265071375467459,2475.98028427563
0.261305461825106,2475.99028427563
0.257250306456692,2476.00028427563
0.252701964191273,2476.01028427563
0.247939313347172,2476.02028427563
0.242837168080258,2476.03028427563
0.23729594376436,2476.04028427563
0.23148046280458,2476.05028427563
0.225236115801497,2476.06028427563
0.218758267829053,2476.07028427563
0.211834824590232,2476.08028427563
0.204519586902876,2476.09028427563
0.197357781483971,2476.10028427563
0.190752399622631,2476.11028427563
0.183929988473374,2476.12028427563
0.177659045985225,2476.13028427563
0.170927510495505,2476.14028427563
0.164135627355617,2476.15028427563
0.157235918317155,2476.16028427563
0.150264122038633,2476.17028427563
0.143292255360895,2476.18028427563
0.136120248235307,2476.19028427563
0.128682442852089,2476.20028427563
0.12126942510454,2476.21028427563
0.114729205582814,2476.22028427563
0.108527415084725,2476.23028427563
0.102982565559622,2476.24028427563
0.0968109512046336,2476.25028427563
0.0906273439491616,2476.26028427563
0.0844934156435543,2476.27028427563
0.078194581893512,2476.28028427563
0.0713912236671559,2476.29028427563
0.0643896055265168,2476.30028427563
0.0573843847386394,2476.31028427563
0.0506826674421379,2476.32028427563
0.0441484930735376,2476.33028427563
0.0381807234317971,2476.34028427563
0.0319313809649164,2476.35028427563
0.0253494986020936,2476.36028427563
0.0190265507702177,2476.37028427563
0.0124411313491242,2476.38028427563
0.00538861083407059,2476.39028427563
-0.00143874697481379,2476.40028427563
-0.00823071490657896,2476.41028427563
-0.0149796133586959,2476.42028427563
-0.021437588866076,2476.43028427563
-0.0277715763249327,2476.44028427563
-0.0337627631276463,2476.45028427563
-0.0394796646114105,2476.46028427563
-0.0455387249859114,2476.47028427563
-0.0518445463423838,2476.48028427563
-0.0582387550147484,2476.49028427563
-0.0647745226811661,2476.50028427563
-0.070713660770699,2476.51028427563
-0.0755220711191772,2476.52028427563
-0.0770669333531587,2476.53028427563
-0.0730631067971437,2476.54028427563
-0.0602666459666329,2476.55028427563
-0.0381747814031093,2476.56028427563
-0.00690011045313284,2476.57028427563
0.0317624229628334,2476.58028427563
0.0738691400234595,2476.59028427563
0.116314919791554,2476.60028427563
0.157321473946165,2476.61028427563
0.194170158578956,2476.62028427563
0.225639440153741,2476.63028427563
0.251001471352108,2476.64028427563
0.269564475336003,2476.65028427563
0.282671494055748,2476.66028427563
0.291178747856559,2476.67028427563
0.295406540278432,2476.68028427563
0.296245225729128,2476.69028427563
0.295539377648769,2476.70028427563
0.292768334601852,2476.71028427563
0.288864261884599,2476.72028427563
0.284659879201145,2476.73028427563
0.280480381929453,2476.74028427563
0.276674316364522,2476.75028427563
0.272647243149219,2476.76028427563
0.267961208501525,2476.77028427563
0.263629600355442,2476.78028427563
0.258535214086303,2476.79028427563
0.252487902893801,2476.80028427563
0.245462857269791,2476.81028427563
0.237946084647338,2476.82028427563
0.229642824356786,2476.83028427563
0.221563512426148,2476.84028427563
0.214190486312105,2476.85028427563
0.207980903819443,2476.86028427563
0.202853705992489,2476.87028427563
0.199867485682294,2476.88028427563
0.198475339555247,2476.89028427563
0.199426770276379,2476.90028427563
0.201663139378785,2476.91028427563
0.205716509197523,2476.92028427563
0.210927083957177,2476.93028427563
0.216168100205807,2476.94028427563
0.221049104877883,2476.95028427563
0.224744898591602,2476.96028427563
0.22739821812527,2476.97028427563
0.229507866779094,2476.98028427563
0.230572505477999,2476.99028427563
0.230496524710919,2477.00028427563
0.229356641383523,2477.01028427563
0.227535969607156,2477.02028427563
0.224552635330304,2477.03028427563
0.220926071485037,2477.04028427563
0.216906235441542,2477.05028427563
0.212378890025104,2477.06028427563
0.207256682058136,2477.07028427563
0.201170237339581,2477.08028427563
0.194385765670384,2477.09028427563
0.187999575657736,2477.10028427563
0.18134474346216,2477.11028427563
0.174804954495539,2477.12028427563
0.168276307956968,2477.13028427563
0.161485291219339,2477.14028427563
0.154059359079768,2477.15028427563
0.146624929518795,2477.16028427563
0.139028036481108,2477.17028427563
0.131685328110178,2477.18028427563
0.124551148844141,2477.19028427563
0.118070672180225,2477.20028427563
0.111845535984539,2477.21028427563
0.105549117658775,2477.22028427563
0.0994013958868285,2477.23028427563
0.0932842749907708,2477.24028427563
0.0870159976538131,2477.25028427563
0.0803379334261076,2477.26028427563
0.0738952105269034,2477.27028427563
0.0676845974161624,2477.28028427563
0.0616134967643109,2477.29028427563
0.0556976890903365,2477.30028427563
0.0499727036680301,2477.31028427563
0.0445656133719842,2477.32028427563
0.0385023763927775,2477.33028427563
0.0327788884961382,2477.34028427563
0.0268658239493839,2477.35028427563
0.0209723737302447,2477.36028427563
0.0146954776723341,2477.37028427563
0.00837238587714039,2477.38028427563
0.00183676698817921,2477.39028427563
-0.00363233042737337,2477.40028427563
-0.00930770293837332,2477.41028427563
-0.0147672227735276,2477.42028427563
-0.0204073703876734,2477.43028427563
-0.0263862311981755,2477.44028427563
-0.0330266749483282,2477.45028427563
-0.0400887496339985,2477.46028427563
-0.0471742825484861,2477.47028427563
-0.0542642982650704,2477.48028427563
-0.0605016381734565,2477.49028427563
-0.0654345543591487,2477.50028427563
-0.067473997510636,2477.51028427563
-0.0644925472584955,2477.52028427563
-0.0541276909637174,2477.53028427563
-0.0339558304545347,2477.54028427563
-0.00402148590243896,2477.55028427563
0.0343712580813757,2477.56028427563
0.0783638443817357,2477.57028427563
0.124629099347964,2477.58028427563
0.170404542754816,2477.59028427563
0.212306411075502,2477.60028427563
0.248894970804863,2477.61028427563
0.278632087801828,2477.62028427563
0.302170143614381,2477.63028427563
0.319854427914215,2477.64028427563
0.332354197783587,2477.65028427563
0.339686001728043,2477.66028427563
0.34407221425164,2477.67028427563
0.345823728934359,2477.68028427563
0.345324156202663,2477.69028427563
0.34338938284875,2477.70028427563
0.340041282202709,2477.71028427563
0.336076522412927,2477.72028427563
0.332026255266675,2477.73028427563
0.327628725027193,2477.74028427563
0.323028794749849,2477.75028427563
0.317937404466234,2477.76028427563
0.312509555326026,2477.77028427563
0.306594480345588,2477.78028427563
0.300409525317403,2477.79028427563
0.293842304834097,2477.80028427563
0.286796996723222,2477.81028427563
0.279751540691217,2477.82028427563
0.272674252882731,2477.83028427563
0.265911325897933,2477.84028427563
0.259141586566777,2477.85028427563
0.253393399365884,2477.86028427563
0.249411172118126,2477.87028427563
0.246438697142438,2477.88028427563
0.245029533585467,2477.89028427563
0.244947750811151,2477.90028427563
0.246297737890824,2477.91028427563
0.248700513007343,2477.92028427563
0.251338353993684,2477.93028427563
0.254593206073875,2477.94028427563
0.257325181547245,2477.95028427563
0.259727152780044,2477.96028427563
0.260959804818571,2477.97028427563
0.260936927666352,2477.98028427563
0.260276494389134,2477.99028427563
0.258242985934434,2478.00028427563
0.255245041667842,2478.01028427563
0.250764123178188,2478.02028427563
0.245537983854425,2478.03028427563
0.239251969004483,2478.04028427563
0.232327158176144,2478.05028427563
0.225159349381881,2478.06028427563
0.217577372394172,2478.07028427563
0.20954863487737,2478.08028427563
0.201702622124058,2478.09028427563
0.194051432322789,2478.10028427563
0.186929876430247,2478.11028427563
0.179967401086023,2478.12028427563
0.17298249831241,2478.13028427563
0.165628944633759,2478.14028427563
0.157922686394009,2478.15028427563
0.149788828288084,2478.16028427563
0.14180309631085,2478.17028427563
0.13368536750285,2478.18028427563
0.126076311332415,2478.19028427563
0.11870060086519,2478.20028427563
0.111841037450254,2478.21028427563
0.105100832262045,2478.22028427563
0.0979415155391965,2478.23028427563
0.0912320107560147,2478.24028427563
0.0842896005703634,2478.25028427563
0.0773728216232039,2478.26028427563
0.070240314601056,2478.27028427563
0.062835204094918,2478.28028427563
0.0549618943199115,2478.29028427563
0.0470342968562528,2478.30028427563
0.0393587276827559,2478.31028427563
0.0325743713125849,2478.32028427563
0.0254792704673475,2478.33028427563
0.0181191193169706,2478.34028427563
0.0106485682211481,2478.35028427563
0.00364830704327779,2478.36028427563
-0.00346922835677829,2478.37028427563
-0.0103430827926094,2478.38028427563
-0.0164246784044469,2478.39028427563
-0.0229911989415831,2478.40028427563
-0.0293169652979889,2478.41028427563
-0.0362168264899145,2478.42028427563
-0.0429165518858855,2478.43028427563
-0.0496370457390718,2478.44028427563
-0.0560942325289899,2478.45028427563
-0.0626370802826867,2478.46028427563
-0.0694159448193016,2478.47028427563
-0.0759972350864208,2478.48028427563
-0.0831591155207147,2478.49028427563
-0.0904565560107988,2478.50028427563
-0.0971831309735582,2478.51028427563
-0.101936758917112,2478.52028427563
-0.102277990344042,2478.53028427563
-0.0949961228412622,2478.54028427563
-0.0782022952581738,2478.55028427563
-0.0512092220111562,2478.56028427563
-0.0143147793431765,2478.57028427563
0.0300627037049393,2478.58028427563
0.0786103715371892,2478.59028427563
0.127588527515787,2478.60028427563
0.173826656370482,2478.61028427563
0.215141166915973,2478.62028427563
0.25050791681691,2478.63028427563
0.278860914746379,2478.64028427563
0.30095146850741,2478.65028427563
0.317350619025137,2478.66028427563
0.32849586573621,2478.67028427563
0.335340482159014,2478.68028427563
0.338275856532871,2478.69028427563
0.338689344539383,2478.70028427563
0.337351691288853,2478.71028427563
0.333889061319447,2478.72028427563
0.329438468845988,2478.73028427563
0.325078640484317,2478.74028427563
0.320079313321504,2478.75028427563
0.315417150821522,2478.76028427563
0.310022758637793,2478.77028427563
0.303996216758942,2478.78028427563
0.297668924421068,2478.79028427563
0.290559951923551,2478.80028427563
0.28261094773448,2478.81028427563
0.273945323218392,2478.82028427563
0.264407171083169,2478.83028427563
0.255405033388361,2478.84028427563
0.246024380618606,2478.85028427563
0.237312503222213,2478.86028427563
0.229955157902524,2478.87028427563
0.223963141255858,2478.88028427563
0.219611254118676,2478.89028427563
0.217344361185796,2478.90028427563
0.217277675637662,2478.91028427563
0.218560464876326,2478.92028427563
0.221794140360403,2478.93028427563
0.225508752980223,2478.94028427563
0.229083359729818,2478.95028427563
0.232692540666977,2478.96028427563
0.235963903144177,2478.97028427563
0.23802412154825,2478.98028427563
0.239076300277139,2478.99028427563
0.238410658502002,2479.00028427563
0.236588976780075,2479.01028427563
0.23315133226247,2479.02028427563
0.228478804836385,2479.03028427563
0.223440153725847,2479.04028427563
0.217845274066247,2479.05028427563
0.211271648130348,2479.06028427563
0.204667732075619,2479.07028427563
0.197971582396357,2479.08028427563
0.191459409392961,2479.09028427563
0.184942390928406,2479.10028427563
0.178125823434135,2479.11028427563
0.171290679376331,2479.12028427563
0.16376695372506,2479.13028427563
0.155846578632119,2479.14028427563
0.148077535144739,2479.15028427563
0.140430989100359,2479.16028427563
0.132538792959526,2479.17028427563
0.124906191312207,2479.18028427563
0.117295495877798,2479.19028427563
0.109642210483871,2479.20028427563
0.102643060289545,2479.21028427563
0.0955122007802604,2479.22028427563
0.0882212245548253,2479.23028427563
0.0810175357584058,2479.24028427563
0.0730743631020094,2479.25028427563
0.0656057460614307,2479.26028427563
0.0576877150987557,2479.27028427563
0.0495242797260661,2479.28028427563
0.0419683031065094,2479.29028427563
0.0350060457823998,2479.30028427563
0.0282475835945093,2479.31028427563
0.0219651009688184,2479.32028427563
0.0160536863869573,2479.33028427563
0.00989599445142283,2479.34028427563
0.00415510400783848,2479.35028427563
-0.00182967919949147,2479.36028427563
-0.00778038846083485,2479.37028427563
-0.0130634886584422,2479.38028427563
-0.0183752940554514,2479.39028427563
-0.0239574090496072,2479.40028427563
-0.0295162788275617,2479.41028427563
-0.0348590204967739,2479.42028427563
-0.0405448683941076,2479.43028427563
-0.0462840336409589,2479.44028427563
-0.0512925431675535,2479.45028427563
-0.0571871712617898,2479.46028427563
-0.0626920945006961,2479.47028427563
-0.0686605157535609,2479.48028427563
-0.0746272631654521,2479.49028427563
-0.0806332349476227,2479.50028427563
-0.084185997418498,2479.51028427563
-0.0830530222678737,2479.52028427563
-0.0747931042397464,2479.53028427563
-0.0570682953986918,2479.54028427563
-0.0290240731606708,2479.55028427563
0.00864484365150171,2479.56028427563
0.0532126181675959,2479.57028427563
0.101763210053247,2479.58028427563
0.151380901118834,2479.59028427563
0.198520389131022,2479.60028427563
0.240778428387072,2479.61028427563
0.276231314462829,2479.62028427563
0.304430875064677,2479.63028427563
0.325582263434901,2479.64028427563
0.341003656276708,2479.65028427563
0.351114752381358,2479.66028427563
0.35696468987956,2479.67028427563
0.359748811907799,2479.68028427563
0.359498564920548,2479.69028427563
0.35746803445367,2479.70028427563
0.354073638820852,2479.71028427563
0.349876654517931,2479.72028427563
0.345112371252293,2479.73028427563
0.339898890653634,2479.74028427563
0.334985842886662,2479.75028427563
0.329812895448793,2479.76028427563
0.324831175973901,2479.77028427563
0.319591201154804,2479.78028427563
0.313805925036677,2479.79028427563
0.307544322473682,2479.80028427563
0.300012272160442,2479.81028427563
0.29171274309407,2479.82028427563
0.282559861612394,2479.83028427563
0.273522407260842,2479.84028427563
0.264803523960356,2479.85028427563
0.25737318940426,2479.86028427563
0.251097386634752,2479.87028427563
0.246656843842131,2479.88028427563
0.243734669965929,2479.89028427563
0.242779661920039,2479.90028427563
0.242857260071258,2479.91028427563
0.244419893500108,2479.92028427563
0.246475242583683,2479.93028427563
0.249142727036568,2479.94028427563
0.251034556021822,2479.95028427563
0.253050061077245,2479.96028427563
0.254301062538923,2479.97028427563
0.254339516227907,2479.98028427563
0.252821161663967,2479.99028427563
0.250004115621779,2480.00028427563
0.246358927996555,2480.01028427563
0.241020047788533,2480.02028427563
0.235111473493277,2480.03028427563
0.228020875553801,2480.04028427563
0.220554918819067,2480.05028427563
0.21318253001886,2480.06028427563
0.205482746668393,2480.07028427563
0.198048129851346,2480.08028427563
0.190149518394887,2480.09028427563
0.182445452488903,2480.10028427563
0.174730959481675,2480.11028427563
0.166902651992157,2480.12028427563
0.159072546908762,2480.13028427563
0.151067957249672,2480.14028427563
0.14307416078865,2480.15028427563
0.134992531827516,2480.16028427563
0.126859940129066,2480.17028427563
0.11885768131794,2480.18028427563
0.110568469728837,2480.19028427563
0.102101870951672,2480.20028427563
0.0934611261166826,2480.21028427563
0.0852898835550763,2480.22028427563
0.0774122620618062,2480.23028427563
0.0696507485505715,2480.24028427563
0.0622476296041376,2480.25028427563
0.0548242502820306,2480.26028427563
0.047370841345256,2480.27028427563
0.0395750236536289,2480.28028427563
0.0310282217760573,2480.29028427563
0.0222879979287169,2480.30028427563
0.0135506501512986,2480.31028427563
0.00499200466080788,2480.32028427563
-0.00301989162840851,2480.33028427563
-0.010249441188034,2480.34028427563
-0.0177104532435409,2480.35028427563
-0.0255242863336263,2480.36028427563
-0.0335315175567365,2480.37028427563
-0.0417371807523986,2480.38028427563
-0.0494888216159022,2480.39028427563
-0.0566906290732872,2480.40028427563
-0.0640531372253023,2480.41028427563
-0.070960825251828,2480.42028427563
-0.0778534142356559,2480.43028427563
-0.0845927666251784,2480.44028427563
-0.0922127310584712,2480.45028427563
-0.100078518345314,2480.46028427563
-0.107714485605924,2480.47028427563
-0.116097711583464,2480.48028427563
-0.124420184591974,2480.49028427563
-0.132444705775084,2480.50028427563
-0.139655307340425,2480.51028427563
-0.144675291557676,2480.52028427563
-0.144854449538034,2480.53028427563
-0.137832644555319,2480.54028427563
-0.121247256421134,2480.55028427563
-0.0951026060306999,2480.56028427563
-0.0600484673652634,2480.57028427563
-0.0185071830557817,2480.58028427563
0.0259026011050186,2480.59028427563
0.0708563157180832,2480.60028427563
0.112792189943508,2480.61028427563
0.150226403560574,2480.62028427563
0.181514121502375,2480.63028427563
0.206525608567749,2480.64028427563
0.225444075767833,2480.65028427563
0.239261031615221,2480.66028427563
0.248378697470686,2480.67028427563
0.25409779285311,2480.68028427563
0.256093880889043,2480.69028427563
0.25646937089516,2480.70028427563
0.255105696238076,2480.71028427563
0.251787676177021,2480.72028427563
0.248105696223678,2480.73028427563
0.244163982464156,2480.74028427563
0.239991802598924,2480.75028427563
0.235772129678888,2480.76028427563
0.231196816001292,2480.77028427563
0.226360412680973,2480.78028427563
0.220823346376694,2480.79028427563
0.214515360424722,2480.80028427563
0.207578426974535,2480.81028427563
0.20042764514482,2480.82028427563
0.192610034771805,2480.83028427563
0.184540284881264,2480.84028427563
0.176550293168701,2480.85028427563
0.168778026441872,2480.86028427563
0.161751425429301,2480.87028427563
0.155953234400612,2480.88028427563
0.151743299184113,2480.89028427563
0.149439040588339,2480.90028427563
0.149837271420914,2480.91028427563
0.152583007687413,2480.92028427563
0.156089644657323,2480.93028427563
0.160534164150082,2480.94028427563
0.165348611638787,2480.95028427563
0.170045813083014,2480.96028427563
0.174349448296983,2480.97028427563
0.177610803864013,2480.98028427563
0.179949360101187,2480.99028427563
0.181765313579054,2481.00028427563
0.182606208456541,2481.01028427563
0.182710846978424,2481.02028427563
0.182019226653473,2481.03028427563
0.180047794874392,2481.04028427563
0.177469707216391,2481.05028427563
0.173528271376021,2481.06028427563
0.169258603352753,2481.07028427563
0.164205129540015,2481.08028427563
0.158711173031028,2481.09028427563
0.152109717713253,2481.10028427563
0.145700674674814,2481.11028427563
0.139009934405108,2481.12028427563
0.13306274853255,2481.13028427563
0.127263526398452,2481.14028427563
0.12183194857383,2481.15028427563
0.116104413993804,2481.16028427563
0.110071237360271,2481.17028427563
0.103491992187076,2481.18028427563
0.0968411075724891,2481.19028427563
0.0893862683032983,2481.20028427563
0.0820608330618205,2481.21028427563
0.0744230785635763,2481.22028427563
0.0664465752831798,2481.23028427563
0.0585120880676081,2481.24028427563
0.0512275205968457,2481.25028427563
0.0449864438033591,2481.26028427563
0.03887507682008,2481.27028427563
0.0327604829901002,2481.28028427563
0.0270584540401084,2481.29028427563
0.021425100709824,2481.30028427563
0.015643712363494,2481.31028427563
0.0100295714377595,2481.32028427563
0.00393758068535123,2481.33028427563
-0.00191177549558954,2481.34028427563
-0.00769413000271352,2481.35028427563
-0.0138605352547324,2481.36028427563
-0.0200409936804767,2481.37028427563
-0.0265696395818576,2481.38028427563
-0.0331860792188336,2481.39028427563
-0.0398600347955937,2481.40028427563
-0.0468720306766948,2481.41028427563
-0.0533967321255206,2481.42028427563
-0.0602486502828877,2481.43028427563
-0.0669595331819751,2481.44028427563
-0.0736993559176926,2481.45028427563
-0.0802533381418478,2481.46028427563
-0.0851589397039626,2481.47028427563
-0.0861281878443288,2481.48028427563
-0.0814105977537866,2481.49028427563
-0.0684490944961402,2481.50028427563
-0.0463526720213355,2481.51028427563
-0.0154419150836454,2481.52028427563
0.0224452002110008,2481.53028427563
0.0645498627949034,2481.54028427563
0.107470907670353,2481.55028427563
0.148671695099239,2481.56028427563
0.186081747165449,2481.57028427563
0.218080997282019,2481.58028427563
0.244514134075201,2481.59028427563
0.264809528536593,2481.60028427563
0.279861933733457,2481.61028427563
0.290341700121837,2481.62028427563
0.296712566626634,2481.63028427563
0.299721402358115,2481.64028427563
0.29970814207302,2481.65028427563
0.297473633959265,2481.66028427563
0.293751700245699,2481.67028427563
0.28929572028124,2481.68028427563
0.285052152648551,2481.69028427563
0.281004680723156,2481.70028427563
0.276592350826724,2481.71028427563
0.272079554520483,2481.72028427563
0.266993873690384,2481.73028427563
0.260981132494063,2481.74028427563
0.253162723605156,2481.75028427563
0.244274484400215,2481.76028427563
0.234610674787749,2481.77028427563
0.224415153325059,2481.78028427563
0.213927778062386,2481.79028427563
0.203896916840036,2481.80028427563
0.194476870926192,2481.81028427563
0.186264571142413,2481.82028427563
0.179629423528318,2481.83028427563
0.174485025031418,2481.84028427563
0.171172967320135,2481.85028427563
0.169766300237292,2481.86028427563
0.169862699297827,2481.87028427563
0.171324598745945,2481.88028427563
0.173431810760961,2481.89028427563
0.175912317246934,2481.90028427563
0.178521494803909,2481.91028427563
0.18031041996247,2481.92028427563
0.181862508656627,2481.93028427563
0.182954851586607,2481.94028427563
0.182785916734273,2481.95028427563
0.181570023404261,2481.96028427563
0.179167042469206,2481.97028427563
0.175494469198719,2481.98028427563
0.171052525288631,2481.99028427563
0.166435058789175,2482.00028427563
0.161525021433504,2482.01028427563
0.156108223604372,2482.02028427563
0.149905407311862,2482.03028427563
0.143537221593174,2482.04028427563
0.136453199863833,2482.05028427563
0.129230023729323,2482.06028427563
0.122186024889025,2482.07028427563
0.115433051852844,2482.08028427563
0.109185237679236,2482.09028427563
0.102937977164161,2482.10028427563
0.0962972445251525,2482.11028427563
0.0888177688457096,2482.12028427563
0.081023496180078,2482.13028427563
0.0727796408028192,2482.14028427563
0.0642767244572488,2482.15028427563
0.0565638476349191,2482.16028427563
0.0491912417508464,2482.17028427563
0.0420216255360977,2482.18028427563
0.0350049096274093,2482.19028427563
0.0281905525885672,2482.20028427563
0.0204361486757597,2482.21028427563
0.0128782405816374,2482.22028427563
0.00511635020470655,2482.23028427563
-0.00223244012764024,2482.24028427563
-0.0096385246816797,2482.25028427563
-0.0169288781993049,2482.26028427563
-0.0236378837088247,2482.27028427563
-0.0302783935265096,2482.28028427563
-0.0362358313446889,2482.29028427563
-0.0422906583267257,2482.30028427563
-0.0484918650435358,2482.31028427563
-0.0549173844813006,2482.32028427563
-0.0617611197928963,2482.33028427563
-0.0691826530088559,2482.34028427563
-0.0767400898611376,2482.35028427563
-0.0844817511463662,2482.36028427563
-0.0921270347840976,2482.37028427563
-0.0997588084427908,2482.38028427563
-0.106976672256298,2482.39028427563
-0.113556676509094,2482.40028427563
-0.118439799954864,2482.41028427563
-0.119562873236002,2482.42028427563
-0.113889905563395,2482.43028427563
-0.0993272116355004,2482.44028427563
-0.0741398738836224,2482.45028427563
-0.0396077786992396,2482.46028427563
0.00119482342556669,2482.47028427563
0.0457564672872942,2482.48028427563
0.0907493508145484,2482.49028427563
0.133260748311125,2482.50028427563
0.1715434424477,2482.51028427563
0.203934220458787,2482.52028427563
0.229809872390689,2482.53028427563
0.24927378096916,2482.54028427563
0.263028664118502,2482.55028427563
0.272222552945755,2482.56028427563
0.277807727034782,2482.57028427563
0.280301233397553,2482.58028427563
0.280483542959414,2482.59028427563
0.279366099364131,2482.60028427563
0.277053871713086,2482.61028427563
0.274018429341766,2482.62028427563
0.27092127639511,2482.63028427563
0.267103369504282,2482.64028427563
0.262729912454588,2482.65028427563
0.258813446848112,2482.66028427563
0.254444420138774,2482.67028427563
0.250083392501989,2482.68028427563
0.245380155075776,2482.69028427563
0.239556137989018,2482.70028427563
0.232370590286772,2482.71028427563
0.22458591882328,2482.72028427563
0.215851869161509,2482.73028427563
0.207322998678801,2482.74028427563
0.199199759117297,2482.75028427563
0.191515726569033,2482.76028427563
0.184925746960869,2482.77028427563
0.179180465431303,2482.78028427563
0.175021693618937,2482.79028427563
0.172095042179073,2482.80028427563
0.170342440576244,2482.81028427563
0.169773936614055,2482.82028427563
0.169657359833964,2482.83028427563
0.16997329367582,2482.84028427563
0.170612576590721,2482.85028427563
0.171110992749161,2482.86028427563
0.17069833703564,2482.87028427563
0.169719955457476,2482.88028427563
0.167815794433237,2482.89028427563
0.165093681029491,2482.90028427563
0.161272273362783,2482.91028427563
0.156722835152271,2482.92028427563
0.151139993736281,2482.93028427563
0.145804281167033,2482.94028427563
0.140132001299364,2482.95028427563
0.133863677671271,2482.96028427563
0.127465869973083,2482.97028427563
0.12055776708941,2482.98028427563
0.113867762411165,2482.99028427563
0.107263274316828,2483.00028427563
0.101048294110589,2483.01028427563
0.0948732636067315,2483.02028427563
0.0880073385914934,2483.03028427563
0.0808807958383327,2483.04028427563
0.0731469405537118,2483.05028427563
0.0653460179125021,2483.06028427563
0.0577158203740813,2483.07028427563
0.050534495546171,2483.08028427563
0.0433471493396108,2483.09028427563
0.0365435059057087,2483.10028427563
0.0297005639000693,2483.11028427563
0.0227109198781514,2483.12028427563
0.0152484894001076,2483.13028427563
0.0081927702252248,2483.14028427563
0.00117027657101946,2483.15028427563
-0.00586365863797797,2483.16028427563
-0.0120821909369507,2483.17028427563
-0.0187397353657189,2483.18028427563
-0.0248583524744899,2483.19028427563
-0.0314451249894952,2483.20028427563
-0.0382777289545438,2483.21028427563
-0.045397791401755,2483.22028427563
-0.0528689114775433,2483.23028427563
-0.0603266396622428,2483.24028427563
-0.0671473955330369,2483.25028427563
-0.0738433992631766,2483.26028427563
-0.0805686640746816,2483.27028427563
-0.0872329047730924,2483.28028427563
-0.0943740903916306,2483.29028427563
-0.102001143631045,2483.30028427563
-0.109331354179875,2483.31028427563
-0.116836917513039,2483.32028427563
-0.124209019411822,2483.33028427563
-0.131352402855286,2483.34028427563
-0.138212046442319,2483.35028427563
-0.144272422789352,2483.36028427563
-0.148535341146941,2483.37028427563
-0.14907105003108,2483.38028427563
-0.143401430193996,2483.39028427563
-0.128782296978087,2483.40028427563
-0.105613799710208,2483.41028427563
-0.0743493392532487,2483.42028427563
-0.0370704951300272,2483.43028427563
0.00322642759691086,2483.44028427563
0.0432420047777374,2483.45028427563
0.0807176124852726,2483.46028427563
0.113171171241414,2483.47028427563
0.140025610490957,2483.48028427563
0.161887466390538,2483.49028427563
0.178182874226877,2483.50028427563
0.18961839769969,2483.51028427563
0.196647671623427,2483.52028427563
0.2005998773778,2483.53028427563
0.201087716018439,2483.54028427563
0.199808492357753,2483.55028427563
0.196724342954449,2483.56028427563
0.192852510931722,2483.57028427563
0.188267898797594,2483.58028427563
0.183347037734793,2483.59028427563
0.178065647646008,2483.60028427563
0.172472989954559,2483.61028427563
0.167338887087269,2483.62028427563
0.162360685930738,2483.63028427563
0.157481002698234,2483.64028427563
0.152449724139025,2483.65028427563
0.147066104200673,2483.66028427563
0.14102738367721,2483.67028427563
0.133869932157369,2483.68028427563
0.126570437623137,2483.69028427563
0.118288792696286,2483.70028427563
0.110669411332641,2483.71028427563
0.103684812983777,2483.72028427563
0.0974133926669805,2483.73028427563
0.0921860350174724,2483.74028427563
0.0880669601683337,2483.75028427563
0.0850272804997647,2483.76028427563
0.0826609166160659,2483.77028427563
0.0819541547290669,2483.78028427563
0.0818997809937547,2483.79028427563
0.0819219366108775,2483.80028427563
0.0824923907520118,2483.81028427563
0.0831154921653214,2483.82028427563
0.0837253550133561,2483.83028427563
0.0839102818457746,2483.84028427563
0.083605143079334,2483.85028427563
0.0822679075506855,2483.86028427563
0.0801970844265408,2483.87028427563
0.0771049707628403,2483.88028427563
0.072113332181189,2483.89028427563
0.0668735174207094,2483.90028427563
0.0611610939522126,2483.91028427563
0.0550664762533723,2483.92028427563
0.0489716672783111,2483.93028427563
0.0425302602861443,2483.94028427563
0.0362778848553008,2483.95028427563
0.0297086311092767,2483.96028427563
0.0228823338497586,2483.97028427563
0.0159819985983667,2483.98028427563
0.00936167257781526,2483.99028427563
0.00273408047617399,2484.00028427563
-0.00411210982713777,2484.01028427563
-0.01103682387484,2484.02028427563
-0.0175988855882546,2484.03028427563
-0.024049785304524,2484.04028427563
-0.0306564170920957,2484.05028427563
-0.036999353818446,2484.06028427563
-0.0434586526320025,2484.07028427563
-0.0498593236169719,2484.08028427563
-0.0562605847935802,2484.09028427563
-0.0633121922739281,2484.10028427563
-0.0705999884426009,2484.11028427563
-0.0779934635350241,2484.12028427563
-0.0854877931958912,2484.13028427563
-0.0924875176960916,2484.14028427563
-0.0991312536756936,2484.15028427563
-0.105721646157036,2484.16028427563
-0.111812380763046,2484.17028427563
-0.118005508239185,2484.18028427563
-0.124326095205529,2484.19028427563
-0.13041739980962,2484.20028427563
-0.136036199984494,2484.21028427563
-0.141367688017888,2484.22028427563
-0.146939442447724,2484.23028427563
-0.152687073470419,2484.24028427563
-0.15875057663452,2484.25028427563
-0.164895754499975,2484.26028427563
-0.171003098277096,2484.27028427563
-0.177103793932169,2484.28028427563
-0.18347135598363,2484.29028427563
-0.190030924504997,2484.30028427563
-0.196557790459128,2484.31028427563
-0.202443153236187,2484.32028427563
-0.206259273439355,2484.33028427563
-0.206887788265844,2484.34028427563
-0.201529372409525,2484.35028427563
-0.188748470925518,2484.36028427563
-0.167932264621008,2484.37028427563
-0.139460172001277,2484.38028427563
-0.105172535778191,2484.39028427563
-0.0678197283744493,2484.40028427563
-0.0306979449889192,2484.41028427563
0.00459500733091407,2484.42028427563
0.035879890751658,2484.43028427563
0.062451316150256,2484.44028427563
0.0843048779120978,2484.45028427563
0.100880107086793,2484.46028427563
0.112486606004933,2484.47028427563
0.119883920761595,2484.48028427563
0.123746647416046,2484.49028427563
0.124766458492474,2484.50028427563
0.123932831053943,2484.51028427563
0.121239403199869,2484.52028427563
0.117531600180403,2484.53028427563
0.112709336972642,2484.54028427563
0.107890326393141,2484.55028427563
0.102984723368854,2484.56028427563
0.0976039024211944,2484.57028427563
0.0925631494427575,2484.58028427563
0.0871781286435012,2484.59028427563
0.0819195334062695,2484.60028427563
0.0757611073067911,2484.61028427563
0.0690155113447267,2484.62028427563
0.0612361674993409,2484.63028427563
0.0526289750303749,2484.64028427563
0.043941636797612,2484.65028427563
0.0347835065713107,2484.66028427563
0.026118144260491,2484.67028427563
0.0177563741815704,2484.68028427563
0.0104211487810587,2484.69028427563
0.00466373529001463,2484.70028427563
0.00034495534990489,2484.71028427563
-0.00210086902074157,2484.72028427563
-0.00304595470622126,2484.73028427563
-0.0021891867778089,2484.74028427563
0.000210387706003108,2484.75028427563
0.00327868898678654,2484.76028427563
0.00708248967618522,2484.77028427563
0.0106376052165529,2484.78028427563
0.0130214465661985,2484.79028427563
0.0142838537643685,2484.80028427563
0.0141380818018166,2484.81028427563
0.0129584965594464,2484.82028427563
0.0115959185005059,2484.83028427563
0.00943920308233912,2484.84028427563
0.00653932642688813,2484.85028427563
0.00310175377431804,2484.86028427563
-0.00104955469885217,2484.87028427563
-0.00570731196030317,2484.88028427563
-0.0104426953179075,2484.89028427563
-0.0152874852321538,2484.90028427563
-0.0201451792326215,2484.91028427563
-0.0246638556957322,2484.92028427563
-0.0294188987499585,2484.93028427563
-0.0337877046739327,2484.94028427563
-0.0391286949975426,2484.95028427563
-0.0448024401659169,2484.96028427563
-0.0507590573010528,2484.97028427563
-0.0567984904566128,2484.98028427563
-0.062919539834495,2484.99028427563
-0.0686025432572549,2485.00028427563
-0.0744048120772842,2485.01028427563
-0.0803491548117636,2485.02028427563
-0.0866501415954285,2485.03028427563
-0.0926549109142987,2485.04028427563
-0.0987631940985612,2485.05028427563
-0.104287171733175,2485.06028427563
-0.109987579035045,2485.07028427563
-0.115321795951573,2485.08028427563
-0.121247872413611,2485.09028427563
-0.127385576555039,2485.10028427563
-0.133314796130411,2485.11028427563
-0.138939317767217,2485.12028427563
-0.144313094897488,2485.13028427563
-0.149028948199623,2485.14028427563
-0.153672493710004,2485.15028427563
-0.158296506190328,2485.16028427563
-0.162953986327854,2485.17028427563
-0.16806083688509,2485.18028427563
-0.172931077438649,2485.19028427563
-0.178541848297898,2485.20028427563
-0.184149898767238,2485.21028427563
-0.189436756628459,2485.22028427563
-0.19470714686156,2485.23028427563
-0.199528490437313,2485.24028427563
-0.204189670416806,2485.25028427563
-0.207720896535556,2485.26028427563
-0.208488137272953,2485.27028427563
-0.203845235671644,2485.28028427563
-0.191313709671108,2485.29028427563
-0.169693226797925,2485.30028427563
-0.139909699756034,2485.31028427563
-0.104375777117594,2485.32028427563
-0.0658441033231672,2485.33028427563
-0.0271894938414308,2485.34028427563
0.00828816696240083,2485.35028427563
0.0407645708945142,2485.36028427563
0.0683632702766143,2485.37028427563
0.0908955752486169,2485.38028427563
0.108630777158199,2485.39028427563
0.121646038907298,2485.40028427563
0.131136181641477,2485.41028427563
0.136766862585008,2485.42028427563
0.139204084252396,2485.43028427563
0.139199625975683,2485.44028427563
0.136539929420142,2485.45028427563
0.13333832565901,2485.46028427563
0.129753324522084,2485.47028427563
0.126125310965451,2485.48028427563
0.121963961314841,2485.49028427563
0.117974650175225,2485.50028427563
0.113257901737667,2485.51028427563
0.108564843060588,2485.52028427563
0.103571157189429,2485.53028427563
0.0977277494851679,2485.54028427563
0.0909141721126169,2485.55028427563
0.0832395451595527,2485.56028427563
0.0752344798145473,2485.57028427563
0.0664865934058286,2485.58028427563
0.0584216786685491,2485.59028427563
0.0502250395876184,2485.60028427563
0.0433117834957949,2485.61028427563
0.0373806415179983,2485.62028427563
0.0328351080702359,2485.63028427563
0.0300967492421769,2485.64028427563
0.0288824873843811,2485.65028427563
0.0297823642347948,2485.66028427563
0.0313376793275287,2485.67028427563
0.0335731546498126,2485.68028427563
0.036212171349916,2485.69028427563
0.0397970458674962,2485.70028427563
0.04302246780465,2485.71028427563
0.045287043784262,2485.72028427563
0.0465906747765275,2485.73028427563
0.0469463292763919,2485.74028427563
0.0458708692863154,2485.75028427563
0.0433585747922759,2485.76028427563
0.0397426548842601,2485.77028427563
0.0361296252880161,2485.78028427563
0.03202609916158,2485.79028427563
0.0279913999791716,2485.80028427563
0.0239598481383551,2485.81028427563
0.0191473419396102,2485.82028427563
0.0145782855342597,2485.83028427563
0.00982758193325209,2485.84028427563
0.00499027702706932,2485.85028427563
-0.000229507483967,2485.86028427563
-0.00536747290695512,2485.87028427563
-0.0111820106072431,2485.88028427563
-0.016824816726438,2485.89028427563
-0.0224245473209228,2485.90028427563
-0.0283637947999411,2485.91028427563
-0.0342095355859268,2485.92028427563
-0.0400430618474892,2485.93028427563
-0.0461158536748027,2485.94028427563
-0.0518850578159114,2485.95028427563
-0.0576959613353837,2485.96028427563
-0.0634519460534915,2485.97028427563
-0.0688847856929875,2485.98028427563
-0.0741464349954126,2485.99028427563
-0.0794966232946062,2486.00028427563
-0.085063352023647,2486.01028427563
-0.0903184341957387,2486.02028427563
-0.0957069062333734,2486.03028427563
-0.100791020113338,2486.04028427563
-0.106236759357544,2486.05028427563
-0.111974699817275,2486.06028427563
-0.117496189587932,2486.07028427563
-0.123118050211389,2486.08028427563
-0.128180572523017,2486.09028427563
-0.133108072299638,2486.10028427563
-0.138228961045787,2486.11028427563
-0.143681282627577,2486.12028427563
-0.148932200806824,2486.13028427563
-0.154804820165007,2486.14028427563
-0.160918129679261,2486.15028427563
-0.166482135000365,2486.16028427563
-0.171851549278906,2486.17028427563
-0.176712629171379,2486.18028427563
-0.180568373049583,2486.19028427563
-0.183179596573616,2486.20028427563
-0.182554873273672,2486.21028427563
-0.175655788867154,2486.22028427563
-0.160142454840375,2486.23028427563
-0.135131263378786,2486.24028427563
-0.101416001760152,2486.25028427563
-0.0602188922414433,2486.26028427563
-0.015125416997734,2486.27028427563
0.031149476491628,2486.28028427563
0.0756730458530824,2486.29028427563
0.116254197967646,2486.30028427563
0.151554689413264,2486.31028427563
0.180280304630338,2486.32028427563
0.203061019864719,2486.33028427563
0.220187563414886,2486.34028427563
0.232573200351176,2486.35028427563
0.240969411349989,2486.36028427563
0.245928108910092,2486.37028427563
0.248081846371432,2486.38028427563
0.248424352495974,2486.39028427563
0.247009778893264,2486.40028427563
0.24447061334909,2486.41028427563
0.241481895495168,2486.42028427563
0.237624852174309,2486.43028427563
0.233010971831295,2486.44028427563
0.228498192319579,2486.45028427563
