PPG,time
0.00396393225901311,1553.51522240239
-0.00841423456128104,1553.52522240239
-0.0298953697207105,1553.53522240239
-0.0458520922642236,1553.54522240239
-0.0602653812687322,1553.55522240239
-0.0699484531347386,1553.56522240239
-0.0762549305702329,1553.57522240239
-0.0798702895059249,1553.58522240239
-0.0808885898492922,1553.59522240239
-0.0800240900652372,1553.60522240239
-0.0768353440489933,1553.61522240239
-0.0724842235468603,1553.62522240239
-0.0677362890565338,1553.63522240239
-0.0637845333768405,1553.64522240239
-0.0619336209299576,1553.65522240239
-0.0623427548758646,1553.66522240239
-0.0653193758807129,1553.67522240239
-0.0704343669179649,1553.68522240239
-0.0767968736228426,1553.69522240239
-0.0840842181187985,1553.70522240239
-0.0923343198377665,1553.71522240239
-0.100626952513657,1553.72522240239
-0.109751650322231,1553.73522240239
-0.118834857624236,1553.74522240239
-0.127629855941545,1553.75522240239
-0.13641681014779,1553.76522240239
-0.144211884664622,1553.77522240239
-0.151032052608801,1553.78522240239
-0.157420837039027,1553.79522240239
-0.163358241600969,1553.80522240239
-0.170143123865613,1553.81522240239
-0.176792283709284,1553.82522240239
-0.183546060803733,1553.83522240239
-0.190813550132029,1553.84522240239
-0.197746097403967,1553.85522240239
-0.204302448968639,1553.86522240239
-0.210557635444613,1553.87522240239
-0.216686546133819,1553.88522240239
-0.222937827281882,1553.89522240239
-0.230398089003173,1553.90522240239
-0.23852477578932,1553.91522240239
-0.24765281270662,1553.92522240239
-0.257736892568527,1553.93522240239
-0.268549388142706,1553.94522240239
-0.279723020898986,1553.95522240239
-0.29129075898863,1553.96522240239
-0.302814291104581,1553.97522240239
-0.312711408951634,1553.98522240239
-0.3191974742969,1553.99522240239
-0.319756454030743,1554.00522240239
-0.311020838615557,1554.01522240239
-0.289971744500286,1554.02522240239
-0.25541628746274,1554.03522240239
-0.207742130851747,1554.04522240239
-0.150556368300479,1554.05522240239
-0.0880183320061994,1554.06522240239
-0.0244405293000139,1554.07522240239
0.0349340848226329,1554.08522240239
0.0865817776602005,1554.09522240239
0.129149344755815,1554.10522240239
0.161055958729562,1554.11522240239
0.182538598748174,1554.12522240239
0.194938937164475,1554.13522240239
0.198997967521874,1554.14522240239
0.197600610553252,1554.15522240239
0.191442368776875,1554.16522240239
0.182680379687769,1554.17522240239
0.17226564840697,1554.18522240239
0.160779790936289,1554.19522240239
0.148791358334882,1554.20522240239
0.136939724214059,1554.21522240239
0.124999917267205,1554.22522240239
0.113772705196869,1554.23522240239
0.102687875442556,1554.24522240239
0.0910719715716942,1554.25522240239
0.0793040048369725,1554.26522240239
0.066087924968143,1554.27522240239
0.051486995319585,1554.28522240239
0.036155590707236,1554.29522240239
0.0207363134824342,1554.30522240239
0.00564511395737892,1554.31522240239
-0.00842690118319138,1554.32522240239
-0.020752893295027,1554.33522240239
-0.0319582458122755,1554.34522240239
-0.0415188608009502,1554.35522240239
-0.0491024002451175,1554.36522240239
-0.0542098270060604,1554.37522240239
-0.056779424022209,1554.38522240239
-0.0571063527921443,1554.39522240239
-0.0554066273734912,1554.40522240239
-0.0519534700780933,1554.41522240239
-0.0475647707469543,1554.42522240239
-0.0434753625166285,1554.43522240239
-0.0397215812233937,1554.44522240239
-0.0369011046926255,1554.45522240239
-0.0357377472367331,1554.46522240239
-0.0363238577940747,1554.47522240239
-0.0385246736569144,1554.48522240239
-0.0417616546511822,1554.49522240239
-0.0457143421973175,1554.50522240239
-0.0500954890110572,1554.51522240239
-0.0547571536617179,1554.52522240239
-0.0604121153328704,1554.53522240239
-0.0663059507820717,1554.54522240239
-0.0722705209846455,1554.55522240239
-0.0789464425171634,1554.56522240239
-0.0852401119279023,1554.57522240239
-0.0918058259235497,1554.58522240239
-0.0981626410456748,1554.59522240239
-0.104398668222469,1554.60522240239
-0.110460079235281,1554.61522240239
-0.117237208362929,1554.62522240239
-0.124504328637564,1554.63522240239
-0.132063732124997,1554.64522240239
-0.139659089346087,1554.65522240239
-0.147157118265159,1554.66522240239
-0.155318719659389,1554.67522240239
-0.163178806939557,1554.68522240239
-0.17103042946941,1554.69522240239
-0.178303353864837,1554.70522240239
-0.185525101598497,1554.71522240239
-0.192934484699405,1554.72522240239
-0.200347454562257,1554.73522240239
-0.208148872080484,1554.74522240239
-0.216537743216296,1554.75522240239
-0.22534370186979,1554.76522240239
-0.234560706877082,1554.77522240239
-0.244925211780278,1554.78522240239
-0.255688098491401,1554.79522240239
-0.26637789499583,1554.80522240239
-0.274903228690039,1554.81522240239
-0.2789459486703,1554.82522240239
-0.273875628867632,1554.83522240239
-0.257134426119209,1554.84522240239
-0.225732616573588,1554.85522240239
-0.180348799283777,1554.86522240239
-0.123331361646863,1554.87522240239
-0.0578258011743062,1554.88522240239
0.0103055690138103,1554.89522240239
0.0765244219436811,1554.90522240239
0.136216466362793,1554.91522240239
0.186160041746308,1554.92522240239
0.22490196829689,1554.93522240239
0.252248559912483,1554.94522240239
0.26892354344891,1554.95522240239
0.276412778619992,1554.96522240239
0.276149389920564,1554.97522240239
0.270667846555187,1554.98522240239
0.26209397674305,1554.99522240239
0.251944605996351,1555.00522240239
0.241321605006017,1555.01522240239
0.230571144384621,1555.02522240239
0.220429013071766,1555.03522240239
0.210199321957305,1555.04522240239
0.200235162259853,1555.05522240239
0.190510535189955,1555.06522240239
0.180411046955901,1555.07522240239
0.170045988758549,1555.08522240239
0.159057673749311,1555.09522240239
0.146965734373528,1555.10522240239
0.133693112715009,1555.11522240239
0.119505093439671,1555.12522240239
0.104903347176522,1555.13522240239
0.089843934697599,1555.14522240239
0.0768246449053224,1555.15522240239
0.0646455283357349,1555.16522240239
0.0546427763662522,1555.17522240239
0.0475899717845993,1555.18522240239
0.0428272855352986,1555.19522240239
0.041109233195019,1555.20522240239
0.0418640683080066,1555.21522240239
0.0446704354334634,1555.22522240239
0.0493632144414887,1555.23522240239
0.0540081391295887,1555.24522240239
0.0582846062504924,1555.25522240239
0.0616390600122046,1555.26522240239
0.063533932520199,1555.27522240239
0.0638658354621974,1555.28522240239
0.0631287185622603,1555.29522240239
0.0612951988149512,1555.30522240239
0.0584432666059673,1555.31522240239
0.0543941332562978,1555.32522240239
0.0490879516149225,1555.33522240239
0.0432890360553191,1555.34522240239
0.0364790073082648,1555.35522240239
0.0287384009565902,1555.36522240239
0.020160601863162,1555.37522240239
0.0108083429079606,1555.38522240239
0.00147855054837958,1555.39522240239
-0.00872688904088331,1555.40522240239
-0.0184488598866671,1555.41522240239
-0.0279341864826413,1555.42522240239
-0.037277901228992,1555.43522240239
-0.046692186265005,1555.44522240239
-0.0556729281572751,1555.45522240239
-0.0645096208696247,1555.46522240239
-0.0734727590687078,1555.47522240239
-0.0818547361642954,1555.48522240239
-0.090119314745642,1555.49522240239
-0.0982541995870451,1555.50522240239
-0.106941661900626,1555.51522240239
-0.116049953809155,1555.52522240239
-0.125800490328663,1555.53522240239
-0.135942079415471,1555.54522240239
-0.146405747543246,1555.55522240239
-0.157029040620211,1555.56522240239
-0.16813770858508,1555.57522240239
-0.179459957244688,1555.58522240239
-0.191069178726228,1555.59522240239
-0.202387771625961,1555.60522240239
-0.213480616970538,1555.61522240239
-0.224424947371267,1555.62522240239
-0.235396024551664,1555.63522240239
-0.246127661181696,1555.64522240239
-0.256292611361305,1555.65522240239
-0.26683914313826,1555.66522240239
-0.277412744682613,1555.67522240239
-0.287766521969273,1555.68522240239
-0.2986984712583,1555.69522240239
-0.309797367847953,1555.70522240239
-0.319285237229729,1555.71522240239
-0.324931852983991,1555.72522240239
-0.323289989913654,1555.73522240239
-0.310574670434496,1555.74522240239
-0.283743724368144,1555.75522240239
-0.241369692091618,1555.76522240239
-0.184821811441585,1555.77522240239
-0.119159901109538,1555.78522240239
-0.0481982747863481,1555.79522240239
0.0221961134668687,1555.80522240239
0.086986062343573,1555.81522240239
0.142669889083871,1555.82522240239
0.187235204369048,1555.83522240239
0.219279278240551,1555.84522240239
0.240314921023976,1555.85522240239
0.251201659006875,1555.86522240239
0.254821783619112,1555.87522240239
0.252218884160341,1555.88522240239
0.24580375648392,1555.89522240239
0.236889932425747,1555.90522240239
0.225856192729064,1555.91522240239
0.214435896461624,1555.92522240239
0.202050511365505,1555.93522240239
0.189096347184198,1555.94522240239
0.175354627494772,1555.95522240239
0.161364350347291,1555.96522240239
0.147410187850347,1555.97522240239
0.133392614109179,1555.98522240239
0.119313629569796,1555.99522240239
0.104961944717695,1556.00522240239
0.0899701048575672,1556.01522240239
0.0745364137732749,1556.02522240239
0.0586211177929446,1556.03522240239
0.0429904661963205,1556.04522240239
0.0279120940427621,1556.05522240239
0.0143152503685823,1556.06522240239
0.0027507492222008,1556.07522240239
-0.00645901087904723,1556.08522240239
-0.0126496931834088,1556.09522240239
-0.0156043582282671,1556.10522240239
-0.0148268324464996,1556.11522240239
-0.0115390746204225,1556.12522240239
-0.0057834963798289,1556.13522240239
0.000624942487418378,1556.14522240239
0.00678178485538683,1556.15522240239
0.0118072900831681,1556.16522240239
0.0150580836897555,1556.17522240239
0.0167357624309777,1556.18522240239
0.0168117865894768,1556.19522240239
0.0149854610444625,1556.20522240239
0.0112552733330893,1556.21522240239
0.00594295140006895,1556.22522240239
-0.000461609970319204,1556.23522240239
-0.00886491641375618,1556.24522240239
-0.0181407019588318,1556.25522240239
-0.0285785675950807,1556.26522240239
-0.0389423092192067,1556.27522240239
-0.0488931168055706,1556.28522240239
-0.0588501760730134,1556.29522240239
-0.0683133360480105,1556.30522240239
-0.0777706034910583,1556.31522240239
-0.0869763434562998,1556.32522240239
-0.0963211788689558,1556.33522240239
-0.106512565189852,1556.34522240239
-0.117012924948521,1556.35522240239
-0.127669789542021,1556.36522240239
-0.138465009113045,1556.37522240239
-0.148816546959259,1556.38522240239
-0.158963420000858,1556.39522240239
-0.16876702714279,1556.40522240239
-0.178575358955212,1556.41522240239
-0.187733159717042,1556.42522240239
-0.196881627509779,1556.43522240239
-0.205497211203316,1556.44522240239
-0.213911340264529,1556.45522240239
-0.222577833853093,1556.46522240239
-0.231691562893591,1556.47522240239
-0.241423264307751,1556.48522240239
-0.251107498135196,1556.49522240239
-0.261088586390846,1556.50522240239
-0.271409208605817,1556.51522240239
-0.281492218759008,1556.52522240239
-0.29071662650798,1556.53522240239
-0.299441238972721,1556.54522240239
-0.307942410072437,1556.55522240239
-0.316204950735531,1556.56522240239
-0.324721149154893,1556.57522240239
-0.333768543366027,1556.58522240239
-0.342760736666291,1556.59522240239
-0.35194688716695,1556.60522240239
-0.361235742092145,1556.61522240239
-0.368464683239867,1556.62522240239
-0.371000176000201,1556.63522240239
-0.365310841722867,1556.64522240239
-0.347269506473894,1556.65522240239
-0.31464556725686,1556.66522240239
-0.267936290605093,1556.67522240239
-0.209331784048274,1556.68522240239
-0.14330177160479,1556.69522240239
-0.0744498032481308,1556.70522240239
-0.00850474118107421,1556.71522240239
0.0501377856413042,1556.72522240239
0.0981026393953377,1556.73522240239
0.134944393172276,1556.74522240239
0.159848325458399,1556.75522240239
0.174763155459489,1556.76522240239
0.180715633837599,1556.77522240239
0.180322909225596,1556.78522240239
0.175688006837395,1556.79522240239
0.167618942186449,1556.80522240239
0.157861467272696,1556.81522240239
0.146479663665358,1556.82522240239
0.134617946498411,1556.83522240239
0.122147813658631,1556.84522240239
0.110283146827667,1556.85522240239
0.098306937580306,1556.86522240239
0.0866545837944766,1556.87522240239
0.0750687571434372,1556.88522240239
0.0629755771397213,1556.89522240239
0.0500268101050268,1556.90522240239
0.0358981226836327,1556.91522240239
0.0207491783276876,1556.92522240239
0.00539487223893761,1556.93522240239
-0.00948617609444032,1556.94522240239
-0.022946343802023,1556.95522240239
-0.0343252547987392,1556.96522240239
-0.0432105679279695,1556.97522240239
-0.0490770675891544,1556.98522240239
-0.0514362629146509,1556.99522240239
-0.0510117498606653,1557.00522240239
-0.0480938354098322,1557.01522240239
-0.042542240169061,1557.02522240239
-0.0351375231619994,1557.03522240239
-0.0263889605446119,1557.04522240239
-0.018066986251137,1557.05522240239
-0.0105954656920249,1557.06522240239
-0.00499452741535393,1557.07522240239
-0.00143480979837041,1557.08522240239
5.43033928691348e-05,1557.09522240239
-0.0003235483286909,1557.10522240239
-0.00200716954204998,1557.11522240239
-0.00520330742422845,1557.12522240239
-0.00986826527703238,1557.13522240239
-0.0160153127471096,1557.14522240239
-0.0232586516750499,1557.15522240239
-0.0316184919394145,1557.16522240239
-0.0406403473736206,1557.17522240239
-0.049791270884279,1557.18522240239
-0.0592829661158601,1557.19522240239
-0.0688938722819622,1557.20522240239
-0.0787472144843086,1557.21522240239
-0.0883867378540518,1557.22522240239
-0.09757180212374,1557.23522240239
-0.107041937679693,1557.24522240239
-0.116304776190831,1557.25522240239
-0.125344875738253,1557.26522240239
-0.133889011699842,1557.27522240239
-0.142725741528643,1557.28522240239
-0.151577901448484,1557.29522240239
-0.160828688734653,1557.30522240239
-0.17012558810363,1557.31522240239
-0.179212539297651,1557.32522240239
-0.188774428338554,1557.33522240239
-0.198627520035786,1557.34522240239
-0.20859809080072,1557.35522240239
-0.218408678167286,1557.36522240239
-0.227752162370611,1557.37522240239
-0.236797582646945,1557.38522240239
-0.245735492968236,1557.39522240239
-0.254722995202513,1557.40522240239
-0.264202038933672,1557.41522240239
-0.273628212479589,1557.42522240239
-0.283373200565522,1557.43522240239
-0.293500153204074,1557.44522240239
-0.303450781777678,1557.45522240239
-0.313404782800385,1557.46522240239
-0.322920496041994,1557.47522240239
-0.332183596444641,1557.48522240239
-0.340534650041589,1557.49522240239
-0.348390320102388,1557.50522240239
-0.353844691985534,1557.51522240239
-0.354664296898314,1557.52522240239
-0.347826019470543,1557.53522240239
-0.329750718268661,1557.54522240239
-0.299181069434933,1557.55522240239
-0.255638810319966,1557.56522240239
-0.200991000378553,1557.57522240239
-0.139569536683569,1557.58522240239
-0.0760395652282886,1557.59522240239
-0.0146441386087237,1557.60522240239
0.0400497158224633,1557.61522240239
0.085853552607166,1557.62522240239
0.121726927101523,1557.63522240239
0.147083395590739,1557.64522240239
0.163478447315094,1557.65522240239
0.171608079323903,1557.66522240239
0.173702753958813,1557.67522240239
0.170444462982425,1557.68522240239
0.163720587197566,1557.69522240239
0.15537595389073,1557.70522240239
0.145901933991353,1557.71522240239
0.135892828325718,1557.72522240239
0.125580995772012,1557.73522240239
0.115009350523434,1557.74522240239
0.105054900581183,1557.75522240239
0.0951582625889257,1557.76522240239
0.0851537303043578,1557.77522240239
0.0747085711680367,1557.78522240239
0.0635088910457766,1557.79522240239
0.0515992588485097,1557.80522240239
0.0383950169928754,1557.81522240239
0.0251153097212958,1557.82522240239
0.0117849059254059,1557.83522240239
-0.000795371738904661,1557.84522240239
-0.0123107490442903,1557.85522240239
-0.0216791544219806,1557.86522240239
-0.0280303212454804,1557.87522240239
-0.0314626017459634,1557.88522240239
-0.0323387461314242,1557.89522240239
-0.0302581057674272,1557.90522240239
-0.0260595437288898,1557.91522240239
-0.0201901610572805,1557.92522240239
-0.012954479573199,1557.93522240239
-0.00509789093096583,1557.94522240239
0.00196605511583339,1557.95522240239
0.0072789775193398,1557.96522240239
0.0104908485310055,1557.97522240239
0.0113070989133168,1557.98522240239
0.0104979819904435,1557.99522240239
0.00813843493864478,1558.00522240239
0.00448757028815399,1558.01522240239
0.000200707315893902,1558.02522240239
-0.00528532373708485,1558.03522240239
-0.0119724819871719,1558.04522240239
-0.0194079354760184,1558.05522240239
-0.0274766637713187,1558.06522240239
-0.0358620383823686,1558.07522240239
-0.0441686536574411,1558.08522240239
-0.052286303594347,1558.09522240239
-0.0606118912673149,1558.10522240239
-0.0687517989761374,1558.11522240239
-0.0771771975924095,1558.12522240239
-0.0859601600412988,1558.13522240239
-0.0942410120039919,1558.14522240239
-0.102429825392878,1558.15522240239
-0.109975115588991,1558.16522240239
-0.117670749842051,1558.17522240239
-0.125686383356703,1558.18522240239
-0.13359525494239,1558.19522240239
-0.141542533992903,1558.20522240239
-0.149935592727236,1558.21522240239
-0.158466836451801,1558.22522240239
-0.167034749724862,1558.23522240239
-0.176060226894494,1558.24522240239
-0.185101831672592,1558.25522240239
-0.193986326148069,1558.26522240239
-0.202936112359798,1558.27522240239
-0.212437895498621,1558.28522240239
-0.221287443277079,1558.29522240239
-0.230263316601862,1558.30522240239
-0.239735244761859,1558.31522240239
-0.248895228465561,1558.32522240239
-0.258229091226413,1558.33522240239
-0.267058009206031,1558.34522240239
-0.275961472333233,1558.35522240239
-0.284367787276566,1558.36522240239
-0.293131747801269,1558.37522240239
-0.300741821856397,1558.38522240239
-0.30828617366929,1558.39522240239
-0.316033532728919,1558.40522240239
-0.323524848717825,1558.41522240239
-0.331333916521152,1558.42522240239
-0.339394162020843,1558.43522240239
-0.348009955524411,1558.44522240239
-0.356396220561527,1558.45522240239
-0.36344395697117,1558.46522240239
-0.366608901848243,1558.47522240239
-0.363237632175857,1558.48522240239
-0.349686807207712,1558.49522240239
-0.32326190886667,1558.50522240239
-0.283994550499061,1558.51522240239
-0.232189981112447,1558.52522240239
-0.171351167302985,1558.53522240239
-0.104870819412932,1558.54522240239
-0.0375481042575197,1558.55522240239
0.0264376324625213,1558.56522240239
0.0836969593194266,1558.57522240239
0.131947339438841,1558.58522240239
0.170349370686969,1558.59522240239
0.198859683354914,1558.60522240239
0.218235567146986,1558.61522240239
0.229344558080159,1558.62522240239
0.234093642887175,1558.63522240239
0.233474590926173,1558.64522240239
0.229314729703399,1558.65522240239
0.222548380899606,1558.66522240239
0.214133388897709,1558.67522240239
0.205053004069006,1558.68522240239
0.195753305937426,1558.69522240239
0.186723828828594,1558.70522240239
0.178199010554813,1558.71522240239
0.16964616805317,1558.72522240239
0.16153715864303,1558.73522240239
0.153124821417993,1558.74522240239
0.144523032609919,1558.75522240239
0.135201152411977,1558.76522240239
0.124965056239402,1558.77522240239
0.113782139819953,1558.78522240239
0.102239531664021,1558.79522240239
0.0906658459708005,1558.80522240239
0.0803380861073636,1558.81522240239
0.0715628161300708,1558.82522240239
0.0648362164668449,1558.83522240239
0.0607669903788891,1558.84522240239
0.059789553384701,1558.85522240239
0.0613980177953925,1558.86522240239
0.0653191568344882,1558.87522240239
0.0714293322308222,1558.88522240239
0.0783547688437508,1558.89522240239
0.0858716361121643,1558.90522240239
0.0930760802651627,1558.91522240239
0.099842839360638,1558.92522240239
0.105022070491655,1558.93522240239
0.108261081578277,1558.94522240239
0.109308627286666,1558.95522240239
0.107919505992655,1558.96522240239
0.104514131760186,1558.97522240239
0.0997050509954156,1558.98522240239
0.0939096310433804,1558.99522240239
0.0873449795841925,1559.00522240239
0.0806733366337681,1559.01522240239
0.0733906108443844,1559.02522240239
0.0657322096758336,1559.03522240239
0.0579887844679038,1559.04522240239
0.0505041708767326,1559.05522240239
0.0432593529795291,1559.06522240239
0.0365548752273312,1559.07522240239
0.0292463209867988,1559.08522240239
0.0215776036347351,1559.09522240239
0.0130309755356108,1559.10522240239
0.00350037516709199,1559.11522240239
-0.00640211635304692,1559.12522240239
-0.0161393380982709,1559.13522240239
-0.026205222466449,1559.14522240239
-0.0354073650741637,1559.15522240239
-0.0444121717566078,1559.16522240239
-0.0530898013275541,1559.17522240239
-0.061761815752202,1559.18522240239
-0.0709051704520265,1559.19522240239
-0.0802510729628468,1559.20522240239
-0.0897806584231408,1559.21522240239
-0.0992335575009019,1559.22522240239
-0.108752050696243,1559.23522240239
-0.118706050432624,1559.24522240239
-0.128774135924428,1559.25522240239
-0.139359265907229,1559.26522240239
-0.150236592502462,1559.27522240239
-0.161228402403507,1559.28522240239
-0.171925614753026,1559.29522240239
-0.181943631812675,1559.30522240239
-0.191263365653408,1559.31522240239
-0.20049391044239,1559.32522240239
-0.20929188945447,1559.33522240239
-0.218443063514489,1559.34522240239
-0.227646679189259,1559.35522240239
-0.236905180604288,1559.36522240239
-0.245930709146835,1559.37522240239
-0.253863491821317,1559.38522240239
-0.26151339034664,1559.39522240239
-0.26896813781043,1559.40522240239
-0.276368659924596,1559.41522240239
-0.283909852205536,1559.42522240239
-0.291917486943651,1559.43522240239
-0.300883536062405,1559.44522240239
-0.308354717239386,1559.45522240239
-0.312703702194686,1559.46522240239
-0.310870395664643,1559.47522240239
-0.298542751399522,1559.48522240239
-0.273094486289052,1559.49522240239
-0.233523367987759,1559.50522240239
-0.179925554182136,1559.51522240239
-0.115796474202805,1559.52522240239
-0.0450274208606583,1559.53522240239
0.0282895710125318,1559.54522240239
0.098967156592094,1559.55522240239
0.163563391000264,1559.56522240239
0.219610860926072,1559.57522240239
0.264533349846589,1559.58522240239
0.298726608287791,1559.59522240239
0.32304706210226,1559.60522240239
0.338045261313598,1559.61522240239
0.345628619996836,1559.62522240239
0.34726668020014,1559.63522240239
0.344180811078754,1559.64522240239
0.337664031894801,1559.65522240239
0.329104734575653,1559.66522240239
0.319057960364528,1559.67522240239
0.308046509653404,1559.68522240239
0.296832079584818,1559.69522240239
0.286272044322485,1559.70522240239
0.275695036154052,1559.71522240239
0.265582026531278,1559.72522240239
0.255400274035953,1559.73522240239
0.244653558741423,1559.74522240239
0.233535401635906,1559.75522240239
0.221219156799395,1559.76522240239
0.207814819911677,1559.77522240239
0.193756817689578,1559.78522240239
0.179342502960448,1559.79522240239
0.16571528485907,1559.80522240239
0.153800607914528,1559.81522240239
0.144787276449917,1559.82522240239
0.138794451971544,1559.83522240239
0.135530056057025,1559.84522240239
0.135779799402371,1559.85522240239
0.13876049685857,1559.86522240239
0.144142606829741,1559.87522240239
0.150860201656378,1559.88522240239
0.158326346661864,1559.89522240239
0.165843933788748,1559.90522240239
0.17194806773563,1559.91522240239
0.177165072372016,1559.92522240239
0.18102374088878,1559.93522240239
0.183929457305767,1559.94522240239
0.185344725104642,1559.95522240239
0.184744918575814,1559.96522240239
0.182373514123005,1559.97522240239
0.178316086612841,1559.98522240239
0.172665448896895,1559.99522240239
0.166142411317386,1560.00522240239
0.158845630833252,1560.01522240239
0.1509914624512,1560.02522240239
0.143051503495893,1560.03522240239
0.13441380028715,1560.04522240239
0.125762588105764,1560.05522240239
0.116532458557267,1560.06522240239
0.107442163023197,1560.07522240239
0.0979101865866883,1560.08522240239
0.0884248795158867,1560.09522240239
0.0792718060950133,1560.10522240239
0.0708243436706882,1560.11522240239
0.0618062047955637,1560.12522240239
0.052716577363558,1560.13522240239
0.0432414733019319,1560.14522240239
0.0331098385530798,1560.15522240239
0.0229693910992726,1560.16522240239
0.0126877570693038,1560.17522240239
0.00164275594416549,1560.18522240239
-0.00954831392288951,1560.19522240239
-0.0206376298650252,1560.20522240239
-0.0312968583919296,1560.21522240239
-0.0417369412477765,1560.22522240239
-0.0516136759204865,1560.23522240239
-0.0615483751186283,1560.24522240239
-0.0715520933543354,1560.25522240239
-0.0822174923575447,1560.26522240239
-0.0930532103848866,1560.27522240239
-0.104124923099934,1560.28522240239
-0.115117387315063,1560.29522240239
-0.125956811153674,1560.30522240239
-0.13656012489443,1560.31522240239
-0.146547648725876,1560.32522240239
-0.156376671751756,1560.33522240239
-0.165895729749235,1560.34522240239
-0.175124278026817,1560.35522240239
-0.184343099019411,1560.36522240239
-0.193439114420048,1560.37522240239
-0.202381811015145,1560.38522240239
-0.211949662881101,1560.39522240239
-0.221175536212175,1560.40522240239
-0.230424683138103,1560.41522240239
-0.239383877677921,1560.42522240239
-0.247119994584059,1560.43522240239
-0.255041493096157,1560.44522240239
-0.261780101043818,1560.45522240239
-0.266840463077372,1560.46522240239
-0.267594649280985,1560.47522240239
-0.260274457989773,1560.48522240239
-0.241498258803437,1560.49522240239
-0.208709939307381,1560.50522240239
-0.161324989399544,1560.51522240239
-0.0998831494138994,1560.52522240239
-0.0276714733612259,1560.53522240239
0.0499846079573398,1560.54522240239
0.128323946359033,1560.55522240239
0.203284160597247,1560.56522240239
0.270004880928573,1560.57522240239
0.325966421637889,1560.58522240239
0.370118191719994,1560.59522240239
0.401903761396207,1560.60522240239
0.422603474536296,1560.61522240239
0.434081264485961,1560.62522240239
0.437356869377964,1560.63522240239
0.434929114278201,1560.64522240239
0.42860219904653,1560.65522240239
0.41966070804462,1560.66522240239
0.409148140540371,1560.67522240239
0.398066081307445,1560.68522240239
0.385542386718302,1560.69522240239
0.372759411181662,1560.70522240239
0.360093448629095,1560.71522240239
0.347454666358701,1560.72522240239
0.334574670625533,1560.73522240239
0.321132529279353,1560.74522240239
0.30725390577464,1560.75522240239
0.292232392982091,1560.76522240239
0.275818688980641,1560.77522240239
0.259231184684376,1560.78522240239
0.24215665885893,1560.79522240239
0.225901073417226,1560.80522240239
0.211994399539769,1560.81522240239
0.201335292082397,1560.82522240239
0.194229814744337,1560.83522240239
0.191206266198036,1560.84522240239
0.191917590033149,1560.85522240239
0.19631045231733,1560.86522240239
0.204471518766217,1560.87522240239
0.214966314173573,1560.88522240239
0.227035104053593,1560.89522240239
0.239729504700549,1560.90522240239
0.25098038362501,1560.91522240239
0.260194352231131,1560.92522240239
0.267158461331389,1560.93522240239
0.271427158197473,1560.94522240239
0.273442198677897,1560.95522240239
0.272902732596759,1560.96522240239
0.270554095007466,1560.97522240239
0.266668436788057,1560.98522240239
0.26099434946137,1560.99522240239
0.25422416615246,1561.00522240239
0.24715043805085,1561.01522240239
0.239763961149239,1561.02522240239
0.23125556907758,1561.03522240239
0.221913735260543,1561.04522240239
0.21288861188978,1561.05522240239
0.203283360989823,1561.06522240239
0.193388734101071,1561.07522240239
0.183635789446048,1561.08522240239
0.173286471160704,1561.09522240239
0.162921210635404,1561.10522240239
0.152453944350996,1561.11522240239
0.14230404878704,1561.12522240239
0.13256087242262,1561.13522240239
0.123154960722422,1561.14522240239
0.113766997085346,1561.15522240239
0.104756249448936,1561.16522240239
0.0954597309228396,1561.17522240239
0.085766871019326,1561.18522240239
0.0760241277021717,1561.19522240239
0.0658288684711025,1561.20522240239
0.0555767469778963,1561.21522240239
0.0453198688127491,1561.22522240239
0.0352536815429183,1561.23522240239
0.0251704933277613,1561.24522240239
0.0151456844513028,1561.25522240239
0.00566596676160687,1561.26522240239
-0.00322998468362934,1561.27522240239
-0.0115336126194477,1561.28522240239
-0.0200948191913692,1561.29522240239
-0.0290116082892769,1561.30522240239
-0.0379320786684133,1561.31522240239
-0.0476943024544276,1561.32522240239
-0.0576925150482085,1561.33522240239
-0.0677007226538419,1561.34522240239
-0.078591574680078,1561.35522240239
-0.0899477107506717,1561.36522240239
-0.100941703607732,1561.37522240239
-0.111481828926125,1561.38522240239
-0.119893282978208,1561.39522240239
-0.123277000475952,1561.40522240239
-0.117497874519556,1561.41522240239
-0.09922534287991,1561.42522240239
-0.0662599378308945,1561.43522240239
-0.016795634340943,1561.44522240239
0.0467917937337091,1561.45522240239
0.122353778356043,1561.46522240239
0.205413805026428,1561.47522240239
0.290296739282491,1561.48522240239
0.371518766922381,1561.49522240239
0.444457823868778,1561.50522240239
0.504813904072318,1561.51522240239
0.551410550730949,1561.52522240239
0.584279290511084,1561.53522240239
0.604688822913821,1561.54522240239
0.615201834099555,1561.55522240239
0.616594096936177,1561.56522240239
0.611752646612606,1561.57522240239
0.602061387490263,1561.58522240239
0.589106168273684,1561.59522240239
0.574270041117467,1561.60522240239
0.558572616341781,1561.61522240239
0.542383455879104,1561.62522240239
0.526283698703627,1561.63522240239
0.509741067406107,1561.64522240239
0.493038758701867,1561.65522240239
0.475273186971384,1561.66522240239
0.45653746345103,1561.67522240239
0.436260462212243,1561.68522240239
0.414967006395797,1561.69522240239
0.393741777308731,1561.70522240239
0.372239799595275,1561.71522240239
0.351655171369206,1561.72522240239
0.333129889680622,1561.73522240239
0.317041951777835,1561.74522240239
0.30430080843336,1561.75522240239
0.295882490902503,1561.76522240239
0.291981294909086,1561.77522240239
0.292912338483965,1561.78522240239
0.297836797687377,1561.79522240239
0.306208814983819,1561.80522240239
0.317496030418739,1561.81522240239
0.330040373787126,1561.82522240239
0.342567148846767,1561.83522240239
0.354297319884576,1561.84522240239
0.364412610110921,1561.85522240239
0.372307084187869,1561.86522240239
0.377740751477994,1561.87522240239
0.379845365248437,1561.88522240239
0.378654074473116,1561.89522240239
0.37428768515759,1561.90522240239
0.367563480245571,1561.91522240239
0.359383270902507,1561.92522240239
0.350189830393287,1561.93522240239
0.339956780393522,1561.94522240239
0.329073870068662,1561.95522240239
0.317914841682667,1561.96522240239
0.307091272990666,1561.97522240239
0.296213768982119,1561.98522240239
0.285437590100257,1561.99522240239
0.274483689633519,1562.00522240239
0.263144354144642,1562.01522240239
0.251124018686655,1562.02522240239
0.238888867102355,1562.03522240239
0.226419036519657,1562.04522240239
0.214060373387758,1562.05522240239
0.202118503472832,1562.06522240239
0.190807637963042,1562.07522240239
0.179774885581081,1562.08522240239
0.168739621445069,1562.09522240239
0.157787778773722,1562.10522240239
0.147043787554611,1562.11522240239
0.135673104387742,1562.12522240239
0.124029639584185,1562.13522240239
0.11265050203958,1562.14522240239
0.100973963031326,1562.15522240239
0.0897457900994174,1562.16522240239
0.0787751697302626,1562.17522240239
0.0681077474244693,1562.18522240239
0.057865064692314,1562.19522240239
0.0478940634857238,1562.20522240239
0.0379241576412237,1562.21522240239
0.0278003786955782,1562.22522240239
0.0174818249448904,1562.23522240239
0.00713865037353832,1562.24522240239
-0.00332223817529234,1562.25522240239
-0.0145069522959435,1562.26522240239
-0.0255139929840392,1562.27522240239
-0.0359802557538899,1562.28522240239
-0.0431894625598572,1562.29522240239
-0.0443567248297498,1562.30522240239
-0.0342808709334875,1562.31522240239
-0.00916364196260424,1562.32522240239
0.0346274391767788,1562.33522240239
0.0963266044205696,1562.34522240239
0.174657550328808,1562.35522240239
0.264951146962885,1562.36522240239
0.360109280066486,1562.37522240239
0.454849034445874,1562.38522240239
0.542067601181067,1562.39522240239
0.617112159484763,1562.40522240239
0.677551663314797,1562.41522240239
0.722598812134389,1562.42522240239
0.752970258331679,1562.43522240239
0.771201079218356,1562.44522240239
0.778774809496672,1562.45522240239
0.778309666344616,1562.46522240239
0.771311210503729,1562.47522240239
0.759236804274578,1562.48522240239
0.743912433002378,1562.49522240239
0.726451845433574,1562.50522240239
0.707337291915911,1562.51522240239
0.687972916063781,1562.52522240239
0.668243018922107,1562.53522240239
0.649017746601013,1562.54522240239
0.630487948180368,1562.55522240239
0.612220072558151,1562.56522240239
0.593528672608531,1562.57522240239
0.57409154405788,1562.58522240239
0.554276164843735,1562.59522240239
0.533487589124617,1562.60522240239
0.512642886579618,1562.61522240239
0.492629633701561,1562.62522240239
0.473873103120716,1562.63522240239
0.457715161234572,1562.64522240239
0.444699803763412,1562.65522240239
0.435774565778503,1562.66522240239
0.430819288118747,1562.67522240239
0.429466603045072,1562.68522240239
0.43256800057524,1562.69522240239
0.439516699074094,1562.70522240239
0.449030438096997,1562.71522240239
0.46016500551384,1562.72522240239
0.471774906646597,1562.73522240239
0.48206895154762,1562.74522240239
0.490607246923454,1562.75522240239
0.496258598341852,1562.76522240239
0.498979418139166,1562.77522240239
0.49846288626635,1562.78522240239
0.495183648200957,1562.79522240239
0.489629032539988,1562.80522240239
0.481805013421693,1562.81522240239
0.472544974295822,1562.82522240239
0.461450428724589,1562.83522240239
0.449537042421657,1562.84522240239
0.436301753702806,1562.85522240239
0.422658248885681,1562.86522240239
0.409220593784772,1562.87522240239
0.395813446788652,1562.88522240239
0.38227623157888,1562.89522240239
0.368782084863613,1562.90522240239
0.355278815720595,1562.91522240239
0.341912100573024,1562.92522240239
0.329457863759457,1562.93522240239
0.31653140605451,1562.94522240239
0.303477359600819,1562.95522240239
0.290541791141035,1562.96522240239
0.277571940300051,1562.97522240239
0.264734355754828,1562.98522240239
0.2524230899212,1562.99522240239
0.240258021744948,1563.00522240239
0.227399756377937,1563.01522240239
0.214148773421896,1563.02522240239
0.200742937318071,1563.03522240239
0.186964647283201,1563.04522240239
0.173750709130502,1563.05522240239
0.160472576235126,1563.06522240239
0.147915522944603,1563.07522240239
0.135491411857266,1563.08522240239
0.12371726183237,1563.09522240239
0.112338534900034,1563.10522240239
0.101243863292327,1563.11522240239
0.0900259679358526,1563.12522240239
0.0789635486429818,1563.13522240239
0.0674630100290998,1563.14522240239
0.0557679137091519,1563.15522240239
0.0438135038724094,1563.16522240239
0.0319383218550112,1563.17522240239
0.0205995340278575,1563.18522240239
0.0102903266420197,1563.19522240239
0.00280228546202358,1563.20522240239
0.000666541617444414,1563.21522240239
0.00880024500298766,1563.22522240239
0.03187488400294,1563.23522240239
0.0734085393729326,1563.24522240239
0.135267876845848,1563.25522240239
0.216844521167963,1563.26522240239
0.313388305258871,1563.27522240239
0.418244621249692,1563.28522240239
0.523771701689802,1563.29522240239
0.622463728152364,1563.30522240239
0.708418216880298,1563.31522240239
0.777941190869198,1563.32522240239
0.829823051206506,1563.33522240239
0.864679869137362,1563.34522240239
0.884352193632627,1563.35522240239
0.891268140754491,1563.36522240239
0.887920826667407,1563.37522240239
0.87733454492045,1563.38522240239
0.861818818817734,1563.39522240239
0.842385294172233,1563.40522240239
0.821414917889409,1563.41522240239
0.79878118234187,1563.42522240239
0.776453517430318,1563.43522240239
0.753942374182788,1563.44522240239
0.733150853135243,1563.45522240239
0.71359909213531,1563.46522240239
0.695090772473292,1563.47522240239
0.677720028619888,1563.48522240239
0.659530592504509,1563.49522240239
0.640483716262518,1563.50522240239
0.620140049373545,1563.51522240239
0.598388610199764,1563.52522240239
0.57707962758027,1563.53522240239
0.556301619432571,1563.54522240239
0.537595352606276,1563.55522240239
0.521791417772933,1563.56522240239
0.509411785175708,1563.57522240239
0.501602170032765,1563.58522240239
0.498283822919158,1563.59522240239
0.500141905587175,1563.60522240239
0.506636471391979,1563.61522240239
0.516497857205337,1563.62522240239
0.52841299937147,1563.63522240239
0.540496796085485,1563.64522240239
0.551750989630831,1563.65522240239
0.560715371890005,1563.66522240239
0.567059943346188,1563.67522240239
0.569982724136906,1563.68522240239
0.569718236970551,1563.69522240239
0.566794551223091,1563.70522240239
0.561204605642399,1563.71522240239
0.553374121046771,1563.72522240239
0.543685748472979,1563.73522240239
0.532829719506122,1563.74522240239
0.521083297385734,1563.75522240239
0.508373267931425,1563.76522240239
0.494768964606564,1563.77522240239
0.480252886815245,1563.78522240239
0.465453048025363,1563.79522240239
0.449891268306184,1563.80522240239
0.43431366982635,1563.81522240239
0.419059348558377,1563.82522240239
0.404407013032425,1563.83522240239
0.390334160402627,1563.84522240239
0.376061798319146,1563.85522240239
0.362496424631296,1563.86522240239
0.348937139869874,1563.87522240239
0.335313795129073,1563.88522240239
0.3210812029301,1563.89522240239
0.306454754356214,1563.90522240239
0.291772479534418,1563.91522240239
0.277008971036336,1563.92522240239
0.263117220043446,1563.93522240239
0.249758075646717,1563.94522240239
0.236494518517077,1563.95522240239
0.22342726318572,1563.96522240239
0.21027847149567,1563.97522240239
0.197190869320497,1563.98522240239
0.183793216141786,1563.99522240239
0.170471551485481,1564.00522240239
0.157309053389014,1564.01522240239
0.144559338494107,1564.02522240239
0.132286293016786,1564.03522240239
0.120423760752403,1564.04522240239
0.108941754592247,1564.05522240239
0.097032262779894,1564.06522240239
0.0850784164211057,1564.07522240239
0.0739488608931781,1564.08522240239
0.062628835255018,1564.09522240239
0.0517383112785738,1564.10522240239
0.0402748393461171,1564.11522240239
0.0289843907670387,1564.12522240239
0.0177581499338993,1564.13522240239
0.0070434892667401,1564.14522240239
-0.00296600737769365,1564.15522240239
-0.00908643338404822,1564.16522240239
-0.00741942246660096,1564.17522240239
0.00666760663836997,1564.18522240239
0.0387928541676264,1564.19522240239
0.0922700548948553,1564.20522240239
0.167990045203849,1564.21522240239
0.263553399300541,1564.22522240239
0.373153516127809,1564.23522240239
0.487759653212512,1564.24522240239
0.600531564470861,1564.25522240239
0.70257158258263,1564.26522240239
0.788429239508167,1564.27522240239
0.855421898421838,1564.28522240239
0.902111864758239,1564.29522240239
0.929757545253467,1564.30522240239
0.94121809543966,1564.31522240239
0.939417598371204,1564.32522240239
0.928426511410558,1564.33522240239
0.910976963321816,1564.34522240239
0.889768119297446,1564.35522240239
0.866259093773505,1564.36522240239
0.841545185332443,1564.37522240239
0.816457156310306,1564.38522240239
0.791536517515965,1564.39522240239
0.767397887836205,1564.40522240239
0.74451130613178,1564.41522240239
0.72371567809272,1564.42522240239
0.70428123054802,1564.43522240239
0.68534568109696,1564.44522240239
0.666574248381047,1564.45522240239
0.646858987510458,1564.46522240239
0.625191287011109,1564.47522240239
0.602788553822563,1564.48522240239
0.580250028041483,1564.49522240239
0.55834646872473,1564.50522240239
0.539576043120711,1564.51522240239
0.524765215987854,1564.52522240239
0.515174346437638,1564.53522240239
0.511051910336258,1564.54522240239
0.512065546244452,1564.55522240239
0.518698377756274,1564.56522240239
0.528731881778044,1564.57522240239
0.541416400371589,1564.58522240239
0.555099854064506,1564.59522240239
0.568851092304543,1564.60522240239
0.580810442667542,1564.61522240239
0.590527380760903,1564.62522240239
0.596869274526771,1564.63522240239
0.599522513943411,1564.64522240239
0.598760733673536,1564.65522240239
0.594806861743454,1564.66522240239
0.587926941332082,1564.67522240239
0.578302880505255,1564.68522240239
0.5659133913691,1564.69522240239
0.551869190565344,1564.70522240239
0.53622832094422,1564.71522240239
0.5191446054823,1564.72522240239
0.50210367712818,1564.73522240239
0.484456427753748,1564.74522240239
0.466947620193627,1564.75522240239
0.450217714750992,1564.76522240239
0.434412436139561,1564.77522240239
0.419077808755514,1564.78522240239
0.403964928724907,1564.79522240239
0.388401587347776,1564.80522240239
0.373063106900754,1564.81522240239
0.357734874761303,1564.82522240239
0.342990294718729,1564.83522240239
0.328947632459586,1564.84522240239
0.315131771949862,1564.85522240239
0.301053508163352,1564.86522240239
0.286790527920337,1564.87522240239
0.27238065654885,1564.88522240239
0.25780136021195,1564.89522240239
0.24350244892499,1564.90522240239
0.229504405168576,1564.91522240239
0.216304549997205,1564.92522240239
0.203799975918023,1564.93522240239
0.191438527879818,1564.94522240239
0.178798687956511,1564.95522240239
0.165725163286716,1564.96522240239
0.152020370096224,1564.97522240239
0.138615120066861,1564.98522240239
0.12532897135385,1564.99522240239
0.112417535313715,1565.00522240239
0.100501159153218,1565.01522240239
0.0889655124894386,1565.02522240239
0.0783904915264323,1565.03522240239
0.0679281192253808,1565.04522240239
0.0568622407972948,1565.05522240239
0.0460715372445414,1565.06522240239
0.0349570265423428,1565.07522240239
0.0237045803339834,1565.08522240239
0.0124613739823369,1565.09522240239
0.0018243516430795,1565.10522240239
-0.00670625423914904,1565.11522240239
-0.0100401132273845,1565.12522240239
-0.0027574835522208,1565.13522240239
0.0201666065914169,1565.14522240239
0.0639238449932705,1565.15522240239
0.130359432425908,1565.16522240239
0.219226909460381,1565.17522240239
0.325410032824176,1565.18522240239
0.442077838469964,1565.19522240239
0.559608178702197,1565.20522240239
0.669213552371084,1565.21522240239
0.763719565392213,1565.22522240239
0.838158740071837,1565.23522240239
0.891217925032077,1565.24522240239
0.923597081502167,1565.25522240239
0.937608945839306,1565.26522240239
0.936728484420949,1565.27522240239
0.924735957145274,1565.28522240239
0.904592342725379,1565.29522240239
0.879538752099325,1565.30522240239
0.851967274159251,1565.31522240239
0.823309992087703,1565.32522240239
0.794449899617757,1565.33522240239
0.765701224940278,1565.34522240239
0.737530759027674,1565.35522240239
0.711127196825849,1565.36522240239
0.686271950650909,1565.37522240239
0.662853876780532,1565.38522240239
0.640407273203044,1565.39522240239
0.617260440789894,1565.40522240239
0.593360856952096,1565.41522240239
0.568080372958726,1565.42522240239
0.54232960451891,1565.43522240239
0.517103550924964,1565.44522240239
0.494838918231947,1565.45522240239
0.47640143771104,1565.46522240239
0.463343042912378,1565.47522240239
0.456449252480532,1565.48522240239
0.456052599459678,1565.49522240239
0.461682608311967,1565.50522240239
0.472292402318098,1565.51522240239
0.487414244938746,1565.52522240239
0.504830951212082,1565.53522240239
0.523214341755721,1565.54522240239
0.541044359648387,1565.55522240239
0.55630019872777,1565.56522240239
0.568055219181644,1565.57522240239
0.575713302686688,1565.58522240239
0.578435475894976,1565.59522240239
0.577070665764078,1565.60522240239
0.571162371253125,1565.61522240239
0.562025943306688,1565.62522240239
0.550107869639978,1565.63522240239
0.535588042710868,1565.64522240239
0.519680537123533,1565.65522240239
0.50283280739991,1565.66522240239
0.484771220461041,1565.67522240239
0.466487838399905,1565.68522240239
0.44848473760379,1565.69522240239
0.431212130506815,1565.70522240239
0.414290220755601,1565.71522240239
0.397592174020962,1565.72522240239
0.381642025832099,1565.73522240239
0.366245788094754,1565.74522240239
0.35086379720346,1565.75522240239
0.336052372722624,1565.76522240239
0.321058216208996,1565.77522240239
0.306123003154275,1565.78522240239
0.291739962333375,1565.79522240239
0.277570140309002,1565.80522240239
0.264226787214616,1565.81522240239
0.251570217401815,1565.82522240239
0.238901170204767,1565.83522240239
0.226230723850467,1565.84522240239
0.213475349966371,1565.85522240239
0.200897905281772,1565.86522240239
0.188162113276872,1565.87522240239
0.175175096590832,1565.88522240239
0.161581211882963,1565.89522240239
0.147599439175166,1565.90522240239
0.133996203372587,1565.91522240239
0.120584279141565,1565.92522240239
0.107415091287135,1565.93522240239
0.0951614013790058,1565.94522240239
0.0836044507981018,1565.95522240239
0.071956396541828,1565.96522240239
0.0604685861534698,1565.97522240239
0.0482648518799289,1565.98522240239
0.0357913222339609,1565.99522240239
0.0235913977996288,1566.00522240239
0.0117153761900777,1566.01522240239
0.00171702493349243,1566.02522240239
-0.00370780202609948,1566.03522240239
-0.00013194679150543,1566.04522240239
0.0184443193939064,1566.05522240239
0.0578980946287102,1566.06522240239
0.121004841971827,1566.07522240239
0.207951673033404,1566.08522240239
0.314410473549015,1566.09522240239
0.432885094747511,1566.10522240239
0.55503315519048,1566.11522240239
0.671063811026184,1566.12522240239
0.772876251098677,1566.13522240239
0.854333758408855,1566.14522240239
0.91335639743541,1566.15522240239
0.950248425348561,1566.16522240239
0.967719783655914,1566.17522240239
0.968478469502069,1566.18522240239
0.957089457664667,1566.19522240239
0.937110503224849,1566.20522240239
0.911473784696292,1566.21522240239
0.882604967448319,1566.22522240239
0.852664602233446,1566.23522240239
0.822920945149148,1566.24522240239
0.794007500890507,1566.25522240239
0.766361928658007,1566.26522240239
0.741036308657448,1566.27522240239
0.717104998639078,1566.28522240239
0.694313245315755,1566.29522240239
0.67192560507715,1566.30522240239
0.649491824825845,1566.31522240239
0.626638560924825,1566.32522240239
0.602350911964658,1566.33522240239
0.577670436057065,1566.34522240239
0.552666416898565,1566.35522240239
0.528035801749226,1566.36522240239
0.505477492352037,1566.37522240239
0.487173557086359,1566.38522240239
0.474407061542206,1566.39522240239
0.467934543034198,1566.40522240239
0.468700919564502,1566.41522240239
0.476283272449897,1566.42522240239
0.489964051719701,1566.43522240239
0.508587292540236,1566.44522240239
0.530304516522341,1566.45522240239
0.553044701410966,1566.46522240239
0.575374922983079,1566.47522240239
0.59563024124714,1566.48522240239
0.612049949703193,1566.49522240239
0.623225640710703,1566.50522240239
0.629230699451437,1566.51522240239
0.629768013505291,1566.52522240239
0.625110904797846,1566.53522240239
0.616035058810017,1566.54522240239
0.603561833830975,1566.55522240239
0.588157060347018,1566.56522240239
0.570392282033475,1566.57522240239
0.550855753498244,1566.58522240239
0.52977591603946,1566.59522240239
0.507626726120701,1566.60522240239
0.484666236032089,1566.61522240239
0.461860733886855,1566.62522240239
0.439549161965999,1566.63522240239
0.417633883416889,1566.64522240239
0.396646156324596,1566.65522240239
0.376184236560263,1566.66522240239
0.356158544336161,1566.67522240239
0.336631788391381,1566.68522240239
0.317279968694335,1566.69522240239
0.298831294929831,1566.70522240239
0.281209424529266,1566.71522240239
0.263914321359299,1566.72522240239
0.247589502119782,1566.73522240239
0.230511965406947,1566.74522240239
0.213868685529527,1566.75522240239
0.197623660080658,1566.76522240239
0.181795596125445,1566.77522240239
0.166939811284115,1566.78522240239
0.152997738045064,1566.79522240239
0.139821152971777,1566.80522240239
0.128000020847673,1566.81522240239
0.116441717722474,1566.82522240239
0.104819107832297,1566.83522240239
0.0934486332753319,1566.84522240239
0.0826489194078737,1566.85522240239
0.0724549307354723,1566.86522240239
0.0622612974319522,1566.87522240239
0.0514263623116152,1566.88522240239
0.0403899378942358,1566.89522240239
0.0286138066707793,1566.90522240239
0.0167594373382911,1566.91522240239
0.00600394316369738,1566.92522240239
-0.000686748792642005,1566.93522240239
0.00142462129981176,1566.94522240239
0.0186874437045345,1566.95522240239
0.0577620716834729,1566.96522240239
0.122674579900861,1566.97522240239
0.2143645050275,1566.98522240239
0.327980636736628,1566.99522240239
0.456543562563788,1567.00522240239
0.588576476263552,1567.01522240239
0.713958981764186,1567.02522240239
0.823500561546222,1567.03522240239
0.910508814110406,1567.04522240239
0.972724377376393,1567.05522240239
1.0097495159066,1567.06522240239
1.02570235085377,1567.07522240239
1.02414495185696,1567.08522240239
1.00966734187666,1567.09522240239
0.986438622114947,1567.10522240239
0.957660024984778,1567.11522240239
0.926261194229132,1567.12522240239
0.893856511382596,1567.13522240239
0.86207718537812,1567.14522240239
0.831638316735264,1567.15522240239
0.803238734306505,1567.16522240239
0.77629908662457,1567.17522240239
0.75132470020559,1567.18522240239
0.728088668439887,1567.19522240239
0.705971611360292,1567.20522240239
0.684218996994117,1567.21522240239
0.661442358451927,1567.22522240239
0.637933775549612,1567.23522240239
0.613007746948498,1567.24522240239
0.587200359009179,1567.25522240239
0.562249437638963,1567.26522240239
0.538584458987312,1567.27522240239
0.518376406156832,1567.28522240239
0.502319525982859,1567.29522240239
0.492455691973481,1567.30522240239
0.488638143820659,1567.31522240239
0.490459684193026,1567.32522240239
0.497982202444038,1567.33522240239
0.510139740374691,1567.34522240239
0.524625086733223,1567.35522240239
0.540185094159071,1567.36522240239
0.554855595732862,1567.37522240239
0.56631891304108,1567.38522240239
0.574468349870972,1567.39522240239
0.578553824810609,1567.40522240239
0.577624379091134,1567.41522240239
0.572724413705262,1567.42522240239
0.564114186082328,1567.43522240239
0.552432010354186,1567.44522240239
0.538029007785927,1567.45522240239
0.521834040328945,1567.46522240239
0.503490283058266,1567.47522240239
0.484555266968087,1567.48522240239
0.464389946156964,1567.49522240239
0.44420127947124,1567.50522240239
0.424892617140883,1567.51522240239
0.405652247152772,1567.52522240239
0.386435636296068,1567.53522240239
0.367483687128781,1567.54522240239
0.348792462699841,1567.55522240239
0.330378861361143,1567.56522240239
0.312856557823191,1567.57522240239
0.294745681114109,1567.58522240239
0.277085280736358,1567.59522240239
0.259864551751937,1567.60522240239
0.242678460812846,1567.61522240239
0.225799934771825,1567.62522240239
0.209450383440681,1567.63522240239
0.193641971344557,1567.64522240239
0.178092003086482,1567.65522240239
0.16309148441375,1567.66522240239
0.147752710458906,1567.67522240239
0.132240716375535,1567.68522240239
0.117252063518765,1567.69522240239
0.102626028522842,1567.70522240239
0.0887914365098513,1567.71522240239
0.0761521958983514,1567.72522240239
0.0630608242088014,1567.73522240239
0.049471017602449,1567.74522240239
0.0353747871522751,1567.75522240239
0.020589172792405,1567.76522240239
0.00604191850601691,1567.77522240239
-0.00826556861223565,1567.78522240239
-0.0226306075443404,1567.79522240239
-0.0359260370096628,1567.80522240239
-0.048096074841374,1567.81522240239
-0.0570194478454209,1567.82522240239
-0.0588395190419757,1567.83522240239
-0.0471714746066817,1567.84522240239
-0.0158253628455407,1567.85522240239
0.0401092990456145,1567.86522240239
0.122234896622751,1567.87522240239
0.228401486018268,1567.88522240239
0.35167040814787,1567.89522240239
0.482133539274654,1567.90522240239
0.609114322843575,1567.91522240239
0.723195158493089,1567.92522240239
0.817607884334759,1567.93522240239
0.888528687093277,1567.94522240239
0.935752301629617,1567.95522240239
0.960477874441261,1567.96522240239
0.966206616780278,1567.97522240239
0.95763496942357,1567.98522240239
0.93810537877624,1567.99522240239
0.912440234744747,1568.00522240239
0.883430140398788,1568.01522240239
0.853167702127524,1568.02522240239
0.822624166304668,1568.03522240239
0.791954065663178,1568.04522240239
0.763163762649425,1568.05522240239
0.735843044044345,1568.06522240239
0.710727276115392,1568.07522240239
0.687242944794154,1568.08522240239
0.66512953426407,1568.09522240239
0.643422124919656,1568.10522240239
0.621010699946915,1568.11522240239
0.598023444432428,1568.12522240239
0.573581443270723,1568.13522240239
0.548605132491814,1568.14522240239
0.523030475975422,1568.15522240239
0.498814451891744,1568.16522240239
0.477288211513618,1568.17522240239
0.460480766052864,1568.18522240239
0.449313507334994,1568.19522240239
0.444525497389864,1568.20522240239
0.446782154884354,1568.21522240239
0.455052213417871,1568.22522240239
0.468924013497615,1568.23522240239
0.485823540989115,1568.24522240239
0.504405884184505,1568.25522240239
0.522776326916351,1568.26522240239
0.539306868478464,1568.27522240239
0.552669939237559,1568.28522240239
0.561159002106833,1568.29522240239
0.564851109150275,1568.30522240239
0.563833136058954,1568.31522240239
0.558233930979145,1568.32522240239
0.548868337583817,1568.33522240239
0.536313883651069,1568.34522240239
0.520900622503489,1568.35522240239
0.503887639801117,1568.36522240239
0.485516386361919,1568.37522240239
0.466165810908061,1568.38522240239
0.446135246113873,1568.39522240239
0.425828543544106,1568.40522240239
0.405472089797962,1568.41522240239
0.384757428468907,1568.42522240239
0.364421363726514,1568.43522240239
0.344493053811097,1568.44522240239
0.325357893263694,1568.45522240239
0.306761438270675,1568.46522240239
0.289138802900384,1568.47522240239
0.27219845690866,1568.48522240239
0.256390168006095,1568.49522240239
0.241191263883054,1568.50522240239
0.226079880758183,1568.51522240239
0.211507838623121,1568.52522240239
0.196981662161091,1568.53522240239
0.182069732619288,1568.54522240239
0.167419754018398,1568.55522240239
0.152681288032027,1568.56522240239
0.13830428102104,1568.57522240239
0.12454824134871,1568.58522240239
0.11158121031788,1568.59522240239
0.0985576323565998,1568.60522240239
0.085738764001234,1568.61522240239
0.072906391498332,1568.62522240239
0.0594666715368942,1568.63522240239
0.0455738443900666,1568.64522240239
0.0315317034042738,1568.65522240239
0.0176832408169021,1568.66522240239
0.00471746652003511,1568.67522240239
-0.00501538173323565,1568.68522240239
-0.00755025042838841,1568.69522240239
0.00267134569483097,1568.70522240239
0.0315655347067287,1568.71522240239
0.0843061292173005,1568.72522240239
0.163433676472459,1568.73522240239
0.265962423616501,1568.74522240239
0.38467910676022,1568.75522240239
0.510571499173641,1568.76522240239
0.632479354294182,1568.77522240239
0.740931167787889,1568.78522240239
0.82903683800593,1568.79522240239
0.892062331286394,1568.80522240239
0.930360143636099,1568.81522240239
0.946011590623283,1568.82522240239
0.943205937806974,1568.83522240239
0.92697863264327,1568.84522240239
0.90205217846859,1568.85522240239
0.871449027942473,1568.86522240239
0.838411066185524,1568.87522240239
0.803502060909525,1568.88522240239
0.767204790510384,1568.89522240239
0.731453883365334,1568.90522240239
0.695016731434733,1568.91522240239
0.659456366879628,1568.92522240239
0.624696204636706,1568.93522240239
0.59072585301206,1568.94522240239
0.557303930076875,1568.95522240239
0.523340176914516,1568.96522240239
0.488744256470352,1568.97522240239
0.453955391524233,1568.98522240239
0.420059362325971,1568.99522240239
0.388635011735547,1569.00522240239
0.361688414724771,1569.01522240239
0.341344996072264,1569.02522240239
0.329402422991644,1569.03522240239
0.32692636241154,1569.04522240239
0.33332719348361,1569.05522240239
0.349270812914202,1569.06522240239
0.372704898725069,1569.07522240239
0.401332811905308,1569.08522240239
0.43254013296505,1569.09522240239
0.46377427951036,1569.10522240239
0.491671322837279,1569.11522240239
0.514504605446134,1569.12522240239
0.53100789950321,1569.13522240239
0.53996955806025,1569.14522240239
0.54196906134423,1569.15522240239
0.536966085844666,1569.16522240239
0.526758618474173,1569.17522240239
0.511826187991659,1569.18522240239
0.493545810802299,1569.19522240239
0.472364852354316,1569.20522240239
0.450147485470837,1569.21522240239
0.427345840789663,1569.22522240239
0.403637120861857,1569.23522240239
0.380403930309186,1569.24522240239
0.357311545956339,1569.25522240239
0.335518556762689,1569.26522240239
0.314540326323441,1569.27522240239
0.294617315697647,1569.28522240239
0.275671788562373,1569.29522240239
0.257772970870635,1569.30522240239
0.24109172141,1569.31522240239
0.224983962471962,1569.32522240239
0.209761575511887,1569.33522240239
0.194830448527084,1569.34522240239
0.180524795655985,1569.35522240239
0.166710535773909,1569.36522240239
0.15320345917432,1569.37522240239
0.140199140562372,1569.38522240239
0.127838055925077,1569.39522240239
0.115569807031233,1569.40522240239
0.103444509253085,1569.41522240239
0.0909822852110386,1569.42522240239
0.0791588703174852,1569.43522240239
0.0688728310718154,1569.44522240239
0.0643648283948768,1569.45522240239
0.070782431918938,1569.46522240239
0.0935261875521928,1569.47522240239
0.139384014927318,1569.48522240239
0.209946272347259,1569.49522240239
0.303941817967118,1569.50522240239
0.415632148594055,1569.51522240239
0.535806671805182,1569.52522240239
0.653679852691025,1569.53522240239
0.760214873337196,1569.54522240239
0.847418710955955,1569.55522240239
0.910643492146125,1569.56522240239
0.950002237952814,1569.57522240239
0.967039108696979,1569.58522240239
0.965951071988264,1569.59522240239
0.951142344818409,1569.60522240239
0.927126588099241,1569.61522240239
0.896728871267381,1569.62522240239
0.862520957809066,1569.63522240239
0.826190471969717,1569.64522240239
0.78740474720003,1569.65522240239
0.748268093703316,1569.66522240239
0.708847028967577,1569.67522240239
0.66854725949083,1569.68522240239
0.628068800200734,1569.69522240239
0.586578828512481,1569.70522240239
0.544412751769427,1569.71522240239
0.501951717915429,1569.72522240239
0.459662443416682,1569.73522240239
0.418918516761884,1569.74522240239
0.381376674239345,1569.75522240239
0.349000585641049,1569.76522240239
0.324139126949931,1569.77522240239
0.308293445225391,1569.78522240239
0.302906278381737,1569.79522240239
0.307459559495264,1569.80522240239
0.32227550095502,1569.81522240239
0.345753107613586,1569.82522240239
0.375353291698558,1569.83522240239
0.408026646882186,1569.84522240239
0.441113053917482,1569.85522240239
0.471390835918757,1569.86522240239
0.496467409138878,1569.87522240239
0.515150045830042,1569.88522240239
0.525906748549314,1569.89522240239
0.528850906946652,1569.90522240239
0.524525152779289,1569.91522240239
0.514150100211896,1569.92522240239
0.499509479184969,1569.93522240239
0.481683187128477,1569.94522240239
0.460851040622002,1569.95522240239
0.43835307906107,1569.96522240239
0.41441548141387,1569.97522240239
0.390243770755861,1569.98522240239
0.366351108660788,1569.99522240239
0.343121247148001,1570.00522240239
0.320187668890379,1570.01522240239
0.297532683517621,1570.02522240239
0.275175956414777,1570.03522240239
0.253035600289762,1570.04522240239
0.230946064742623,1570.05522240239
0.209516838517366,1570.06522240239
0.188722208745627,1570.07522240239
0.168867802260391,1570.08522240239
0.149362901878932,1570.09522240239
0.130706974879863,1570.10522240239
0.11240235629987,1570.11522240239
0.0951552415482141,1570.12522240239
0.0784633151924573,1570.13522240239
0.0621505602429108,1570.14522240239
0.0461983082826707,1570.15522240239
0.0303081697631008,1570.16522240239
0.014672331562366,1570.17522240239
-7.55530024679654e-05,1570.18522240239
-0.0115499586880774,1570.19522240239
-0.0172167524119923,1570.20522240239
-0.0114733790151802,1570.21522240239
0.0129502785655961,1570.22522240239
0.0606909102688732,1570.23522240239
0.132961940712408,1570.24522240239
0.228095698563632,1570.25522240239
0.338199707543845,1570.26522240239
0.453292779361393,1570.27522240239
0.563763985404214,1570.28522240239
0.660339615775828,1570.29522240239
0.737024891673232,1570.30522240239
0.790819203343414,1570.31522240239
0.821311095405332,1570.32522240239
0.830832556860513,1570.33522240239
0.823302355792582,1570.34522240239
0.803389956642875,1570.35522240239
0.774840041029018,1570.36522240239
0.741223479396619,1570.37522240239
0.705710836969762,1570.38522240239
0.669280679048674,1570.39522240239
0.63265668347331,1570.40522240239
0.597017375785127,1570.41522240239
0.562205060981254,1570.42522240239
0.528855498018466,1570.43522240239
0.496807479490657,1570.44522240239
0.465818770782199,1570.45522240239
0.434921209904732,1570.46522240239
0.403709047722612,1570.47522240239
0.371705349522726,1570.48522240239
0.338787506823607,1570.49522240239
0.306629136091017,1570.50522240239
0.27582679703538,1570.51522240239
0.247758868842586,1570.52522240239
0.223269426041767,1570.53522240239
0.203794275500603,1570.54522240239
0.190435788003758,1570.55522240239
0.183254344599711,1570.56522240239
0.182575218839871,1570.57522240239
0.187312901259023,1570.58522240239
0.196160311163262,1570.59522240239
0.20682116727698,1570.60522240239
0.217659920531692,1570.61522240239
0.22752134222613,1570.62522240239
0.234639841313827,1570.63522240239
0.23809683977937,1570.64522240239
0.236693531415563,1570.65522240239
0.230001306144251,1570.66522240239
0.218676820618447,1570.67522240239
0.203376809486003,1570.68522240239
0.184284683248033,1570.69522240239
0.162997103079686,1570.70522240239
0.13994145199695,1570.71522240239
0.115811099167504,1570.72522240239
0.091140627645618,1570.73522240239
0.0662995448990028,1570.74522240239
0.0421060842677201,1570.75522240239
0.018204916777874,1570.76522240239
-0.00428914735625494,1570.77522240239
-0.0258484689656503,1570.78522240239
-0.0469540693344532,1570.79522240239
-0.0674389742983676,1570.80522240239
-0.0878361625496356,1570.81522240239
-0.107930619710819,1570.82522240239
-0.128288762119832,1570.83522240239
-0.148252344378113,1570.84522240239
-0.168307892647926,1570.85522240239
-0.187957099352045,1570.86522240239
-0.207201635877855,1570.87522240239
-0.226546778914943,1570.88522240239
-0.245416708125335,1570.89522240239
-0.263837816134769,1570.90522240239
-0.281766545731391,1570.91522240239
-0.299090554811414,1570.92522240239
-0.316790402882606,1570.93522240239
-0.333723425574386,1570.94522240239
-0.348231142224927,1570.95522240239
-0.357323916836215,1570.96522240239
-0.356122987595801,1570.97522240239
-0.339163892083211,1570.98522240239
-0.30325707850733,1570.99522240239
-0.247473487644037,1571.00522240239
-0.174029898236491,1571.01522240239
-0.0891529916319398,1571.02522240239
-8.05982653791604e-05,1571.03522240239
0.0854842560150626,1571.04522240239
0.160136017981371,1571.05522240239
0.219864482756362,1571.06522240239
0.261776673101112,1571.07522240239
0.28625797480245,1571.08522240239
0.295063393787981,1571.09522240239
0.290429208729094,1571.10522240239
0.275551560273898,1571.11522240239
0.253537788423426,1571.12522240239
0.227204085946049,1571.13522240239
0.198553940594706,1571.14522240239
0.169525906910961,1571.15522240239
0.139965721065115,1571.16522240239
0.110959434574917,1571.17522240239
0.0824868395601363,1571.18522240239
0.0543740329847203,1571.19522240239
0.0268158264923119,1571.20522240239
0.000141144917063701,1571.21522240239
-0.0258225038281529,1571.22522240239
-0.0505696042715265,1571.23522240239
-0.0750905111524181,1571.24522240239
-0.0999036056731258,1571.25522240239
-0.124974967241703,1571.26522240239
-0.150537940653758,1571.27522240239
-0.175335993117954,1571.28522240239
-0.198285407193871,1571.29522240239
-0.218673788019128,1571.30522240239
-0.23575426836483,1571.31522240239
-0.248738119135999,1571.32522240239
-0.257378439178926,1571.33522240239
-0.261759101511327,1571.34522240239
-0.26325680284619,1571.35522240239
-0.262094885084311,1571.36522240239
-0.259894346926375,1571.37522240239
-0.257554058981731,1571.38522240239
-0.255695799816084,1571.39522240239
-0.255479773810841,1571.40522240239
-0.257097965436677,1571.41522240239
-0.261848213553916,1571.42522240239
-0.269609803878476,1571.43522240239
-0.279889902893602,1571.44522240239
-0.292950590537242,1571.45522240239
-0.307991638546112,1571.46522240239
-0.324416030418086,1571.47522240239
-0.341998539370913,1571.48522240239
-0.360434564795199,1571.49522240239
-0.379301782250446,1571.50522240239
-0.397960262039449,1571.51522240239
-0.416510794565362,1571.52522240239
-0.434986696869838,1571.53522240239
-0.453420169174921,1571.54522240239
-0.471974518839873,1571.55522240239
-0.490690053620771,1571.56522240239
-0.509688750822594,1571.57522240239
-0.528041879952254,1571.58522240239
-0.546233602209165,1571.59522240239
-0.5632769285811,1571.60522240239
-0.579548963518002,1571.61522240239
-0.595070850446686,1571.62522240239
-0.610212465659022,1571.63522240239
-0.625858593366504,1571.64522240239
-0.641854428777303,1571.65522240239
-0.658569872281776,1571.66522240239
-0.674821447111596,1571.67522240239
-0.690211964293351,1571.68522240239
-0.70550475434848,1571.69522240239
-0.719556574329044,1571.70522240239
-0.734041755929029,1571.71522240239
-0.748936952058477,1571.72522240239
-0.763770522647164,1571.73522240239
-0.778733626226501,1571.74522240239
-0.791891686676308,1571.75522240239
-0.801817153788475,1571.76522240239
-0.804532115112213,1571.77522240239
-0.796121114518539,1571.78522240239
-0.774831975116454,1571.79522240239
-0.739117425053557,1571.80522240239
-0.689999749550954,1571.81522240239
-0.631522859295779,1571.82522240239
-0.56896121755758,1571.83522240239
-0.508372040267661,1571.84522240239
-0.455319144715295,1571.85522240239
-0.412816721711825,1571.86522240239
-0.383361251867362,1571.87522240239
-0.366470885211306,1571.88522240239
-0.360873980882282,1571.89522240239
-0.364855359252565,1571.90522240239
-0.375471559789865,1571.91522240239
-0.39059724127975,1571.92522240239
-0.408808113303805,1571.93522240239
-0.428579306400461,1571.94522240239
-0.449179036193219,1571.95522240239
-0.469376975157242,1571.96522240239
-0.489396539360384,1571.97522240239
-0.508680409351084,1571.98522240239
-0.526475646786058,1571.99522240239
-0.543293994245846,1572.00522240239
-0.559536199053478,1572.01522240239
-0.575456576884471,1572.02522240239
-0.591585924418983,1572.03522240239
-0.607694836144638,1572.04522240239
-0.624186358105198,1572.05522240239
-0.641041208965793,1572.06522240239
-0.658531035535109,1572.07522240239
-0.676372369579796,1572.08522240239
-0.693447811148731,1572.09522240239
-0.709484584829723,1572.10522240239
-0.723702190453938,1572.11522240239
-0.736124100864477,1572.12522240239
-0.74581438458882,1572.13522240239
-0.752510674777676,1572.14522240239
-0.757037830719906,1572.15522240239
-0.759730087488693,1572.16522240239
-0.761584858613552,1572.17522240239
-0.763541077894747,1572.18522240239
-0.765481251182447,1572.19522240239
-0.768460556621839,1572.20522240239
-0.772697785694341,1572.21522240239
-0.779076611890962,1572.22522240239
-0.787512783979597,1572.23522240239
-0.797475706155498,1572.24522240239
-0.808655927864776,1572.25522240239
-0.820972565914679,1572.26522240239
-0.833958922395187,1572.27522240239
-0.847218918025659,1572.28522240239
-0.860687677697092,1572.29522240239
-0.874634104487855,1572.30522240239
-0.888534973873369,1572.31522240239
-0.90257182223253,1572.32522240239
-0.91718094904527,1572.33522240239
-0.931823657487254,1572.34522240239
-0.946764353906496,1572.35522240239
-0.961865004255701,1572.36522240239
-0.976990348939542,1572.37522240239
-0.991873481260406,1572.38522240239
-1.00679560615739,1572.39522240239
-1.02133238644732,1572.40522240239
-1.03584192886468,1572.41522240239
-1.04923231850176,1572.42522240239
-1.06333512987035,1572.43522240239
-1.07704751523902,1572.44522240239
-1.09054781263372,1572.45522240239
-1.10403777730279,1572.46522240239
-1.11751894109671,1572.47522240239
-1.1309012301559,1572.48522240239
-1.14411690825545,1572.49522240239
-1.15678984607486,1572.50522240239
-1.1693831480771,1572.51522240239
-1.18199030639018,1572.52522240239
-1.19442209769767,1572.53522240239
-1.20712065279812,1572.54522240239
-1.21956179474104,1572.55522240239
-1.23175551980621,1572.56522240239
-1.24503302744403,1572.57522240239
-1.25773274021611,1572.58522240239
-1.27011764246029,1572.59522240239
-1.28217722541461,1572.60522240239
-1.29348242976191,1572.61522240239
-1.30514140438743,1572.62522240239
-1.31582224101341,1572.63522240239
-1.32652653085898,1572.64522240239
-1.33730468428069,1572.65522240239
-1.34735883913323,1572.66522240239
-1.35717925844677,1572.67522240239
-1.36542472608981,1572.68522240239
-1.36946712799749,1572.69522240239
-1.36628857057409,1572.70522240239
-1.35377170811614,1572.71522240239
-1.33125761468924,1572.72522240239
-1.29961119740392,1572.73522240239
-1.26297870004547,1572.74522240239
-1.22394364534913,1572.75522240239
-1.18690836790352,1572.76522240239
-1.1555458882679,1572.77522240239
-1.13116980646042,1572.78522240239
-1.11549169334838,1572.79522240239
-1.1073329281338,1572.80522240239
-1.10620123141032,1572.81522240239
-1.11119295382742,1572.82522240239
-1.12000105763598,1572.83522240239
-1.13175171752439,1572.84522240239
-1.14515196769761,1572.85522240239
-1.15894670117892,1572.86522240239
-1.17241026820552,1572.87522240239
-1.18500854412781,1572.88522240239
-1.19695857763512,1572.89522240239
-1.20803747263297,1572.90522240239
-1.21789093277977,1572.91522240239
-1.22657001408777,1572.92522240239
-1.23481835643614,1572.93522240239
-1.24183442601591,1572.94522240239
-1.24880326517535,1572.95522240239
-1.25625368359332,1572.96522240239
-1.26370357932757,1572.97522240239
-1.27235288909388,1572.98522240239
-1.2813930677462,1572.99522240239
-1.29070626301794,1573.00522240239
-1.29980661306227,1573.01522240239
-1.30751259693836,1573.02522240239
-1.31334063616406,1573.03522240239
-1.31687497499111,1573.04522240239
-1.31843401831333,1573.05522240239
-1.31844575564666,1573.06522240239
-1.31783248143059,1573.07522240239
-1.31697707834693,1573.08522240239
-1.31647201131171,1573.09522240239
-1.31585382173274,1573.10522240239
-1.31575726771533,1573.11522240239
-1.31648883498575,1573.12522240239
-1.31784198021507,1573.13522240239
-1.32011211831593,1573.14522240239
-1.32307308023656,1573.15522240239
-1.32644460862433,1573.16522240239
-1.33037353238565,1573.17522240239
-1.3343324272732,1573.18522240239
-1.33876157560612,1573.19522240239
-1.34345886466799,1573.20522240239
-1.34827148887833,1573.21522240239
-1.3531207519584,1573.22522240239
-1.35841783209432,1573.23522240239
-1.36370729487914,1573.24522240239
-1.36928628578267,1573.25522240239
-1.37532472078931,1573.26522240239
-1.38098597802253,1573.27522240239
-1.38659259041991,1573.28522240239
-1.39253531498251,1573.29522240239
-1.39826609423655,1573.30522240239
-1.40428015171673,1573.31522240239
-1.41017960705869,1573.32522240239
-1.4161990046776,1573.33522240239
-1.42252526947583,1573.34522240239
-1.42878405504548,1573.35522240239
-1.4348724549107,1573.36522240239
-1.44062174129823,1573.37522240239
-1.44576072698822,1573.38522240239
-1.45135223522905,1573.39522240239
-1.4559799687672,1573.40522240239
-1.46081172105012,1573.41522240239
-1.46597006795881,1573.42522240239
-1.4708167629972,1573.43522240239
-1.47581579714767,1573.44522240239
-1.480300439351,1573.45522240239
-1.48472958882623,1573.46522240239
-1.48960226162439,1573.47522240239
-1.49511577822908,1573.48522240239
-1.5011126063319,1573.49522240239
-1.50727555078957,1573.50522240239
-1.51311845518425,1573.51522240239
-1.51852945251089,1573.52522240239
-1.52329024702117,1573.53522240239
-1.52762730713237,1573.54522240239
-1.53146932342235,1573.55522240239
-1.53512670328952,1573.56522240239
-1.53881915447055,1573.57522240239
-1.54263129296563,1573.58522240239
-1.5466378120411,1573.59522240239
-1.55069031035148,1573.60522240239
-1.55504268266768,1573.61522240239
-1.55743342004299,1573.62522240239
-1.55696404754248,1573.63522240239
-1.55168165733803,1573.64522240239
-1.53985220071596,1573.65522240239
-1.52127165787812,1573.66522240239
-1.49644501820211,1573.67522240239
-1.4683418290312,1573.68522240239
-1.43939690833284,1573.69522240239
-1.4128489357593,1573.70522240239
-1.39089737725159,1573.71522240239
-1.37456681618094,1573.72522240239
-1.36458213395144,1573.73522240239
-1.36064390337404,1573.74522240239
-1.3620009069039,1573.75522240239
-1.36732845715125,1573.76522240239
-1.37539229597205,1573.77522240239
-1.38419359272045,1573.78522240239
-1.39350325718889,1573.79522240239
-1.40196255548978,1573.80522240239
-1.40918776553699,1573.81522240239
-1.4149757547236,1573.82522240239
-1.4196741048472,1573.83522240239
-1.42304903392968,1573.84522240239
-1.42531143499233,1573.85522240239
-1.42684928690112,1573.86522240239
-1.42773347507717,1573.87522240239
-1.42789957725519,1573.88522240239
-1.4284690720196,1573.89522240239
-1.42936771877711,1573.90522240239
-1.43050335996969,1573.91522240239
-1.43203136114088,1573.92522240239
-1.43340682184151,1573.93522240239
-1.43541624054069,1573.94522240239
-1.43764513347761,1573.95522240239
-1.43927258043181,1573.96522240239
-1.44056867834708,1573.97522240239
-1.44085518755091,1573.98522240239
-1.43982341385113,1573.99522240239
-1.43835067404562,1574.00522240239
-1.43560939608708,1574.01522240239
-1.43222977627929,1574.02522240239
-1.42884036852488,1574.03522240239
-1.42582755771787,1574.04522240239
-1.42274918743213,1574.05522240239
-1.41980913752489,1574.06522240239
-1.41696446635568,1574.07522240239
-1.41513996143415,1574.08522240239
-1.4141158714807,1574.09522240239
-1.41412988964482,1574.10522240239
-1.41563067618238,1574.11522240239
-1.41776704127381,1574.12522240239
-1.42031141540722,1574.13522240239
-1.42280532889914,1574.14522240239
-1.42530008752622,1574.15522240239
-1.42788928451697,1574.16522240239
-1.42995876617001,1574.17522240239
-1.4319013279581,1574.18522240239
-1.43431119201819,1574.19522240239
-1.43587237503595,1574.20522240239
-1.43717227665241,1574.21522240239
-1.43824201558895,1574.22522240239
-1.43871310708278,1574.23522240239
-1.43947475326848,1574.24522240239
-1.44046452563811,1574.25522240239
-1.44261571266041,1574.26522240239
-1.44432634697407,1574.27522240239
-1.44654075945762,1574.28522240239
-1.4486620957391,1574.29522240239
-1.45040848633499,1574.30522240239
-1.45172405687944,1574.31522240239
-1.45307771292223,1574.32522240239
-1.45415992862781,1574.33522240239
-1.45562131284605,1574.34522240239
-1.45691880954166,1574.35522240239
-1.45821032008212,1574.36522240239
-1.45918022840288,1574.37522240239
-1.45974503229494,1574.38522240239
-1.46086199999318,1574.39522240239
-1.46191933438442,1574.40522240239
-1.46317869939207,1574.41522240239
-1.46486569502711,1574.42522240239
-1.46705437452224,1574.43522240239
-1.46949422324808,1574.44522240239
-1.47249604619276,1574.45522240239
-1.47550418901886,1574.46522240239
-1.47873096592748,1574.47522240239
-1.48198446623552,1574.48522240239
-1.48456759052005,1574.49522240239
-1.48739032027669,1574.50522240239
-1.48955164062003,1574.51522240239
-1.49213994516312,1574.52522240239
-1.49466904374661,1574.53522240239
-1.49683245818207,1574.54522240239
-1.4983262946524,1574.55522240239
-1.49920501020718,1574.56522240239
-1.49904478320541,1574.57522240239
-1.49815302658369,1574.58522240239
-1.4969125000611,1574.59522240239
-1.49402792803411,1574.60522240239
-1.48896674313157,1574.61522240239
-1.47902493681002,1574.62522240239
-1.46418010943149,1574.63522240239
-1.44426230329783,1574.64522240239
-1.42066534976613,1574.65522240239
-1.39452085535537,1574.66522240239
-1.36817435673991,1574.67522240239
-1.34430117016374,1574.68522240239
-1.32517082216966,1574.69522240239
-1.31195383442623,1574.70522240239
-1.30516419981701,1574.71522240239
-1.30391815263569,1574.72522240239
-1.30648063293305,1574.73522240239
-1.3115493733855,1574.74522240239
-1.31753390024414,1574.75522240239
-1.32414702409635,1574.76522240239
-1.33056927622114,1574.77522240239
-1.33594834872742,1574.78522240239
-1.34020807567226,1574.79522240239
-1.34352153166726,1574.80522240239
-1.34566573608587,1574.81522240239
-1.34632283815644,1574.82522240239
-1.34640454940707,1574.83522240239
-1.34548049450814,1574.84522240239
-1.34474581655622,1574.85522240239
-1.34422317349962,1574.86522240239
-1.34342233486915,1574.87522240239
-1.3427188435525,1574.88522240239
-1.34242372305844,1574.89522240239
-1.3423119656903,1574.90522240239
-1.34293799446722,1574.91522240239
-1.34383109746296,1574.92522240239
-1.34426014077622,1574.93522240239
-1.34412276460811,1574.94522240239
-1.34267267022748,1574.95522240239
-1.33993993067865,1574.96522240239
-1.33584958132241,1574.97522240239
-1.3308074175639,1574.98522240239
-1.32461487321893,1574.99522240239
-1.31779303996976,1575.00522240239
-1.31093103711503,1575.01522240239
-1.30446147879413,1575.02522240239
-1.29865020459426,1575.03522240239
-1.29448800351765,1575.04522240239
-1.29174169339483,1575.05522240239
-1.29053495277431,1575.06522240239
-1.29007102027867,1575.07522240239
-1.29011427139669,1575.08522240239
-1.29023410782052,1575.09522240239
-1.29049319154544,1575.10522240239
-1.29113740703725,1575.11522240239
-1.29204518396663,1575.12522240239
-1.29311973671008,1575.13522240239
-1.29388205249117,1575.14522240239
-1.2946112307451,1575.15522240239
-1.2947290125794,1575.16522240239
-1.29507275813754,1575.17522240239
-1.2950999175095,1575.18522240239
-1.29507179575664,1575.19522240239
-1.29497756041339,1575.20522240239
-1.29397178034536,1575.21522240239
-1.29288094330913,1575.22522240239
-1.29187723114864,1575.23522240239
-1.29105938141067,1575.24522240239
-1.29020340938135,1575.25522240239
-1.28928986498991,1575.26522240239
-1.28788243548407,1575.27522240239
-1.28675508736356,1575.28522240239
-1.28534635165321,1575.29522240239
-1.28364473307872,1575.30522240239
-1.28242297293292,1575.31522240239
-1.2816194279034,1575.32522240239
-1.28125103210972,1575.33522240239
-1.28097581090725,1575.34522240239
-1.28094336366035,1575.35522240239
-1.28092316696103,1575.36522240239
-1.28044939788715,1575.37522240239
-1.27955552058916,1575.38522240239
-1.27881542618915,1575.39522240239
-1.27849739315918,1575.40522240239
-1.27823222913009,1575.41522240239
-1.27885705131334,1575.42522240239
-1.27923923537471,1575.43522240239
-1.27975069190734,1575.44522240239
-1.28029565794978,1575.45522240239
-1.28065891163094,1575.46522240239
-1.28083583652145,1575.47522240239
-1.28029971076222,1575.48522240239
-1.2770448625,1575.49522240239
-1.26952879927097,1575.50522240239
-1.25663132921812,1575.51522240239
-1.23796962841191,1575.52522240239
-1.21464524002881,1575.53522240239
-1.1884958135793,1575.54522240239
-1.16156333752817,1575.55522240239
-1.13591880408028,1575.56522240239
-1.11306916690473,1575.57522240239
-1.0947945702143,1575.58522240239
-1.08170719619964,1575.59522240239
-1.07383773476723,1575.60522240239
-1.07056724290553,1575.61522240239
-1.07030308604068,1575.62522240239
-1.07224397240803,1575.63522240239
-1.07484851333343,1575.64522240239
-1.07840772600973,1575.65522240239
-1.08139593418421,1575.66522240239
-1.0834902612695,1575.67522240239
-1.08473971801354,1575.68522240239
-1.08483087327586,1575.69522240239
-1.08489703599653,1575.70522240239
-1.08402382022349,1575.71522240239
-1.08288723810509,1575.72522240239
-1.08089190420946,1575.73522240239
-1.07875978314108,1575.74522240239
-1.07638768862857,1575.75522240239
-1.07455470133524,1575.76522240239
-1.07321360363778,1575.77522240239
-1.0727001988523,1575.78522240239
-1.07257847338188,1575.79522240239
-1.07209364470163,1575.80522240239
-1.07172120175473,1575.81522240239
-1.07069510626824,1575.82522240239
-1.06844939954549,1575.83522240239
-1.06522590630607,1575.84522240239
-1.06027989967596,1575.85522240239
-1.0538481111412,1575.86522240239
-1.04620621300133,1575.87522240239
-1.0380526779726,1575.88522240239
-1.02949679478436,1575.89522240239
-1.02142458090815,1575.90522240239
-1.01370837166673,1575.91522240239
-1.00799790169389,1575.92522240239
-1.00317977306382,1575.93522240239
-0.999490848952746,1575.94522240239
-0.996596319979699,1575.95522240239
-0.994288292767388,1575.96522240239
-0.992469843203903,1575.97522240239
-0.990655260430161,1575.98522240239
-0.989314623188647,1575.99522240239
-0.988022737277276,1576.00522240239
-0.98687461594566,1576.01522240239
-0.986009195339212,1576.02522240239
-0.985764610536699,1576.03522240239
-0.985159522403734,1576.04522240239
-0.984483909881375,1576.05522240239
-0.984103460030224,1576.06522240239
-0.983468162035841,1576.07522240239
-0.98312037595345,1576.08522240239
-0.98257376756267,1576.09522240239
-0.981589451076642,1576.10522240239
-0.979874673367743,1576.11522240239
-0.979136749994476,1576.12522240239
-0.978580067827753,1576.13522240239
-0.977972800499254,1576.14522240239
-0.977626734234399,1576.15522240239
-0.976859311046378,1576.16522240239
-0.97547141937505,1576.17522240239
-0.973751576742237,1576.18522240239
-0.972350467833585,1576.19522240239
-0.9713008224672,1576.20522240239
-0.970409152856794,1576.21522240239
-0.969555588394662,1576.22522240239
-0.968691761411784,1576.23522240239
-0.968421445620482,1576.24522240239
-0.968054618819804,1576.25522240239
-0.967888073187576,1576.26522240239
-0.967788652362155,1576.27522240239
-0.967658675123112,1576.28522240239
-0.967046859310332,1576.29522240239
-0.966561517232347,1576.30522240239
-0.966233656630499,1576.31522240239
-0.966008844772787,1576.32522240239
-0.966092555862209,1576.33522240239
-0.965691666406748,1576.34522240239
-0.96481390491246,1576.35522240239
-0.962236230311643,1576.36522240239
-0.957113829234825,1576.37522240239
-0.946935149078764,1576.38522240239
-0.9307368741251,1576.39522240239
-0.908049012401529,1576.40522240239
-0.87975589033563,1576.41522240239
-0.847934641079947,1576.42522240239
-0.814390692765992,1576.43522240239
-0.781587937320041,1576.44522240239
-0.751612029007658,1576.45522240239
-0.726077331750721,1576.46522240239
-0.705677280480859,1576.47522240239
-0.691031905132808,1576.48522240239
-0.682399229335094,1576.49522240239
-0.67854098527937,1576.50522240239
-0.67806050977157,1576.51522240239
-0.679734967836667,1576.52522240239
-0.682165073588994,1576.53522240239
-0.68452830766141,1576.54522240239
-0.685932296672404,1576.55522240239
-0.686049279596757,1576.56522240239
-0.685701347573207,1576.57522240239
-0.684253477247899,1576.58522240239
-0.681575289424529,1576.59522240239
-0.678848657488224,1576.60522240239
-0.675870055685586,1576.61522240239
-0.672416959210455,1576.62522240239
-0.669954995055638,1576.63522240239
-0.668007048898031,1576.64522240239
-0.665890304254381,1576.65522240239
-0.663811395628289,1576.66522240239
-0.662056908257154,1576.67522240239
-0.660410998071763,1576.68522240239
-0.658274387122876,1576.69522240239
-0.655520817296243,1576.70522240239
-0.65275069801428,1576.71522240239
-0.648818868336457,1576.72522240239
-0.643124215481319,1576.73522240239
-0.636066827366153,1576.74522240239
-0.627570999033277,1576.75522240239
-0.618994355469833,1576.76522240239
-0.60960533412331,1576.77522240239
-0.600463224037668,1576.78522240239
-0.591440017444626,1576.79522240239
-0.584032125527721,1576.80522240239
-0.577100776278695,1576.81522240239
-0.571736689822787,1576.82522240239
-0.567762340645766,1576.83522240239
-0.564447662919104,1576.84522240239
-0.561779199347362,1576.85522240239
-0.5593572597466,1576.86522240239
-0.557164775230816,1576.87522240239
-0.555238315453645,1576.88522240239
-0.554704802134591,1576.89522240239
-0.554789049413742,1576.90522240239
-0.55577678906027,1576.91522240239
-0.556372748597879,1576.92522240239
-0.556882084014496,1576.93522240239
-0.556598577858586,1576.94522240239
-0.555714249587272,1576.95522240239
-0.55457432112889,1576.96522240239
-0.553164132207701,1576.97522240239
-0.552061350696126,1576.98522240239
-0.551032298358342,1576.99522240239
-0.550401211767415,1577.00522240239
-0.54961698453598,1577.01522240239
-0.548546411173132,1577.02522240239
-0.547971238136588,1577.03522240239
-0.547161428202743,1577.04522240239
-0.546300171928078,1577.05522240239
-0.546000876947384,1577.06522240239
-0.545537359094039,1577.07522240239
-0.545067318490343,1577.08522240239
-0.545157535516396,1577.09522240239
-0.54586709209782,1577.10522240239
-0.547246964192639,1577.11522240239
-0.548961022461027,1577.12522240239
-0.549805822709659,1577.13522240239
-0.551090574820567,1577.14522240239
-0.551773357047583,1577.15522240239
-0.552633689660501,1577.16522240239
-0.55365011736869,1577.17522240239
-0.55441305915667,1577.18522240239
-0.55547254564656,1577.19522240239
-0.55667218864362,1577.20522240239
-0.558227912175779,1577.21522240239
-0.559208986748518,1577.22522240239
-0.56053611544902,1577.23522240239
-0.561980046485585,1577.24522240239
-0.564521009499754,1577.25522240239
-0.565496878683509,1577.26522240239
-0.564584161963469,1577.27522240239
-0.558331641614299,1577.28522240239
-0.544647302030166,1577.29522240239
-0.523059343829307,1577.30522240239
-0.493284881178314,1577.31522240239
-0.457538594141396,1577.32522240239
-0.41833051637562,1577.33522240239
-0.378830943069214,1577.34522240239
-0.341938251406186,1577.35522240239
-0.310028455189266,1577.36522240239
-0.284892690415943,1577.37522240239
-0.266511922386957,1577.38522240239
-0.254366478897114,1577.39522240239
-0.248412386515466,1577.40522240239
-0.246816943902417,1577.41522240239
-0.248150982303045,1577.42522240239
-0.251663578861836,1577.43522240239
-0.255992024765368,1577.44522240239
-0.260760465738538,1577.45522240239
-0.264869090186999,1577.46522240239
-0.268030829494557,1577.47522240239
-0.270298286921436,1577.48522240239
-0.271546742428266,1577.49522240239
-0.272277710241515,1577.50522240239
-0.272381589643218,1577.51522240239
-0.271960120585852,1577.52522240239
-0.271319623939444,1577.53522240239
-0.271447085501697,1577.54522240239
-0.272132033828205,1577.55522240239
-0.27290529058532,1577.56522240239
-0.274783707634958,1577.57522240239
-0.277282881902194,1577.58522240239
-0.279890521791997,1577.59522240239
-0.281668070501116,1577.60522240239
-0.282236879841135,1577.61522240239
-0.280863047321134,1577.62522240239
-0.277701321824322,1577.63522240239
-0.27284758985996,1577.64522240239
-0.266168776009566,1577.65522240239
-0.258084876232786,1577.66522240239
-0.249350068155487,1577.67522240239
-0.241099545840606,1577.68522240239
-0.233515543912309,1577.69522240239
-0.226761937250573,1577.70522240239
-0.221796249016922,1577.71522240239
-0.217985748980928,1577.72522240239
-0.215575355741622,1577.73522240239
-0.214301071550193,1577.74522240239
-0.213938061769059,1577.75522240239
-0.214344130911744,1577.76522240239
-0.215264097367282,1577.77522240239
-0.216995730320696,1577.78522240239
-0.21891033457646,1577.79522240239
-0.221156680064968,1577.80522240239
-0.22428252442698,1577.81522240239
-0.227368915947656,1577.82522240239
-0.230897630475252,1577.83522240239
-0.234899018027258,1577.84522240239
-0.238808269865025,1577.85522240239
-0.242114501348448,1577.86522240239
-0.24505937015866,1577.87522240239
-0.247633802338656,1577.88522240239
-0.250113254119152,1577.89522240239
-0.252411569739609,1577.90522240239
-0.254887401510091,1577.91522240239
-0.257417597331383,1577.92522240239
-0.259578054374597,1577.93522240239
-0.261804125068346,1577.94522240239
-0.264326857392028,1577.95522240239
-0.267116697699802,1577.96522240239
-0.270039311347587,1577.97522240239
-0.272908977960226,1577.98522240239
-0.275854377056247,1577.99522240239
-0.278123327985955,1578.00522240239
-0.2805015822156,1578.01522240239
-0.282454558208749,1578.02522240239
-0.284889185115579,1578.03522240239
-0.287336394718194,1578.04522240239
-0.29027910111776,1578.05522240239
-0.293563561302004,1578.06522240239
-0.297231820828481,1578.07522240239
-0.30167926890024,1578.08522240239
-0.306297050327398,1578.09522240239
-0.310647303563369,1578.10522240239
-0.315072990606039,1578.11522240239
-0.319555731039261,1578.12522240239
-0.323360034432518,1578.13522240239
-0.326945163742974,1578.14522240239
-0.330293647537061,1578.15522240239
-0.333622441882792,1578.16522240239
-0.336908284656295,1578.17522240239
-0.340015523075849,1578.18522240239
-0.343090838939609,1578.19522240239
-0.34572202455837,1578.20522240239
-0.347435935087704,1578.21522240239
-0.345251299203286,1578.22522240239
-0.338646605201507,1578.23522240239
-0.325015732884762,1578.24522240239
-0.303263050319624,1578.25522240239
-0.273553751055015,1578.26522240239
-0.238163954714847,1578.27522240239
-0.199530174634387,1578.28522240239
-0.161181211036907,1578.29522240239
-0.126546498440165,1578.30522240239
-0.0968505240178202,1578.31522240239
-0.073684802844219,1578.32522240239
-0.0578419004452034,1578.33522240239
-0.0483665195787873,1578.34522240239
-0.0446087429038603,1578.35522240239
-0.0448432304814072,1578.36522240239
-0.0479344825853913,1578.37522240239
-0.0531526141040119,1578.38522240239
-0.0591550121762521,1578.39522240239
-0.0651331675284751,1578.40522240239
-0.0699524177448961,1578.41522240239
-0.0746461365792164,1578.42522240239
-0.0787625537585813,1578.43522240239
-0.0825241266512927,1578.44522240239
-0.0858851146827246,1578.45522240239
-0.0887824678499022,1578.46522240239
-0.0913171705061688,1578.47522240239
-0.0933384645602207,1578.48522240239
-0.0950150065308728,1578.49522240239
-0.0968048429320437,1578.50522240239
-0.098920264734501,1578.51522240239
-0.10174777629333,1578.52522240239
-0.105180325951754,1578.53522240239
-0.108459405149475,1578.54522240239
-0.111018205145359,1578.55522240239
-0.112923709684259,1578.56522240239
-0.113299370887411,1578.57522240239
-0.112108214890658,1578.58522240239
-0.109670921450407,1578.59522240239
-0.105068450276136,1578.60522240239
-0.0996107576828646,1578.61522240239
-0.0927986097995801,1578.62522240239
-0.0860984297581084,1578.63522240239
-0.0800702805596339,1578.64522240239
-0.0743778799353212,1578.65522240239
-0.0697519896649545,1578.66522240239
-0.0659896457032636,1578.67522240239
-0.0632746455370379,1578.68522240239
-0.0615402523921262,1578.69522240239
-0.0613154095457985,1578.70522240239
-0.0617510199557448,1578.71522240239
-0.0630631391691442,1578.72522240239
-0.066042924114926,1578.73522240239
-0.0693322277065013,1578.74522240239
-0.0735047222085556,1578.75522240239
-0.0781058446583319,1578.76522240239
-0.0829902718339564,1578.77522240239
-0.0869306172812215,1578.78522240239
-0.0905978558824612,1578.79522240239
-0.0934281055903841,1578.80522240239
-0.0959271430198152,1578.81522240239
-0.0987595589307876,1578.82522240239
-0.101430117596338,1578.83522240239
-0.104645700990535,1578.84522240239
-0.107920851035735,1578.85522240239
-0.111228256060469,1578.86522240239
-0.11465207685145,1578.87522240239
-0.118113267599334,1578.88522240239
-0.12142833762469,1578.89522240239
-0.124703053692805,1578.90522240239
-0.128161765227507,1578.91522240239
-0.131808782763319,1578.92522240239
-0.135683162912306,1578.93522240239
-0.139952773455093,1578.94522240239
-0.143670409843035,1578.95522240239
-0.147437824632658,1578.96522240239
-0.150931886545151,1578.97522240239
-0.154163748410929,1578.98522240239
-0.157762241273319,1578.99522240239
-0.161265984082084,1579.00522240239
-0.1651570465236,1579.01522240239
-0.168895012786164,1579.02522240239
-0.172859065388133,1579.03522240239
-0.177114642193365,1579.04522240239
-0.181634059498058,1579.05522240239
-0.186379782319703,1579.06522240239
-0.191591567264208,1579.07522240239
-0.195957110726831,1579.08522240239
-0.199730334966964,1579.09522240239
-0.203197224789593,1579.10522240239
-0.206022394734607,1579.11522240239
-0.208560388223551,1579.12522240239
-0.211487460542612,1579.13522240239
-0.214691583562676,1579.14522240239
-0.218279843855947,1579.15522240239
-0.221987709105749,1579.16522240239
-0.225834528945028,1579.17522240239
-0.229475693928289,1579.18522240239
-0.233090727766123,1579.19522240239
-0.235353443514771,1579.20522240239
-0.233512506460493,1579.21522240239
-0.226482446086427,1579.22522240239
-0.212426826783149,1579.23522240239
-0.190625255128566,1579.24522240239
-0.161551953019044,1579.25522240239
-0.126888876481469,1579.26522240239
-0.0895532794628597,1579.27522240239
-0.0522530378030975,1579.28522240239
-0.0178367065926018,1579.29522240239
0.0107202803871176,1579.30522240239
0.0327107221601294,1579.31522240239
0.0479926403318884,1579.32522240239
0.0568795255892439,1579.33522240239
0.0602745929361381,1579.34522240239
0.0593546887826215,1579.35522240239
0.0558530559502152,1579.36522240239
0.0512458620649746,1579.37522240239
0.0461235890454311,1579.38522240239
0.0407506077075369,1579.39522240239
0.0355892317567549,1579.40522240239
0.030552535305591,1579.41522240239
0.0253001635034772,1579.42522240239
0.0207380710422826,1579.43522240239
0.0158248350196343,1579.44522240239
0.011781455987092,1579.45522240239
0.00858183268944838,1579.46522240239
0.005352571261087,1579.47522240239
0.00243294952833815,1579.48522240239
-0.000300663965722017,1579.49522240239
-0.00345689053804357,1579.50522240239
-0.00714962085121478,1579.51522240239
-0.0107641383926118,1579.52522240239
-0.0136549956289216,1579.53522240239
-0.0163243500469561,1579.54522240239
-0.0180913678022496,1579.55522240239
-0.0184741882711591,1579.56522240239
-0.017342196993537,1579.57522240239
-0.014123054774616,1579.58522240239
-0.00979093300144411,1579.59522240239
-0.0041219956467494,1579.60522240239
0.00258563746797406,1579.61522240239
0.0102478027183565,1579.62522240239
0.0172290949869052,1579.63522240239
0.0236085794615094,1579.64522240239
0.0287245239495539,1579.65522240239
0.0322532909806998,1579.66522240239
0.034494470367116,1579.67522240239
0.0352581921898795,1579.68522240239
0.0345783473077308,1579.69522240239
0.0330055609074119,1579.70522240239
0.0304560804094294,1579.71522240239
0.0280994948973816,1579.72522240239
0.0258631835163011,1579.73522240239
0.0241919576872861,1579.74522240239
0.0226195697449119,1579.75522240239
0.0203296142145993,1579.76522240239
0.0178080644774686,1579.77522240239
0.0151586265334695,1579.78522240239
0.0123265479657567,1579.79522240239
0.00901245766482127,1579.80522240239
0.00596007240732656,1579.81522240239
0.00235101727249085,1579.82522240239
-0.00198278829563153,1579.83522240239
-0.00665492190586891,1579.84522240239
-0.0119662475641599,1579.85522240239
-0.0171882443654499,1579.86522240239
-0.0223264925396325,1579.87522240239
-0.0271817234632846,1579.88522240239
-0.0311764404487386,1579.89522240239
-0.0348849785760212,1579.90522240239
-0.0383376206708048,1579.91522240239
-0.0418605686892851,1579.92522240239
-0.0450335024445039,1579.93522240239
-0.0481289445756879,1579.94522240239
-0.0512086125226385,1579.95522240239
-0.0546225017910171,1579.96522240239
-0.0582531274478985,1579.97522240239
-0.0626370586672786,1579.98522240239
-0.0671524393775948,1579.99522240239
-0.0722834683935341,1580.00522240239
-0.0776958549404078,1580.01522240239
-0.0823091270806004,1580.02522240239
-0.0872076338000918,1580.03522240239
-0.0920960873870342,1580.04522240239
-0.0971856529651991,1580.05522240239
-0.102020624560886,1580.06522240239
-0.106703101521741,1580.07522240239
-0.111251611662248,1580.08522240239
-0.115470430549562,1580.09522240239
-0.119539371352592,1580.10522240239
-0.123652517551635,1580.11522240239
-0.1280317112982,1580.12522240239
-0.132564050103343,1580.13522240239
-0.137257064258971,1580.14522240239
-0.141261885001166,1580.15522240239
-0.144744291361567,1580.16522240239
-0.146122543636338,1580.17522240239
-0.143362609715211,1580.18522240239
-0.13412108469241,1580.19522240239
-0.116607250906626,1580.20522240239
-0.0902309205345847,1580.21522240239
-0.0561119554055306,1580.22522240239
-0.0160463651489133,1580.23522240239
0.0270461003174275,1580.24522240239
0.069877203701686,1580.25522240239
0.109257463484992,1580.26522240239
0.142876000492083,1580.27522240239
0.169910538028134,1580.28522240239
0.189654872440745,1580.29522240239
0.202551898201516,1580.30522240239
0.209303972295891,1580.31522240239
0.211398780002308,1580.32522240239
0.209608259101857,1580.33522240239
0.206018719831524,1580.34522240239
0.201141747750019,1580.35522240239
0.196004408647584,1580.36522240239
0.191400368899949,1580.37522240239
0.187210025830985,1580.38522240239
0.183516295332773,1580.39522240239
0.180111010894107,1580.40522240239
0.177875510401155,1580.41522240239
0.175777001419157,1580.42522240239
0.173416081134602,1580.43522240239
0.170784013334942,1580.44522240239
0.168028651679948,1580.45522240239
0.164643963494923,1580.46522240239
0.160857069918598,1580.47522240239
0.156373389944606,1580.48522240239
0.151677217408505,1580.49522240239
0.147090716648206,1580.50522240239
0.143481486086985,1580.51522240239
0.141352889526939,1580.52522240239
0.141020904886845,1580.53522240239
0.142664472046045,1580.54522240239
0.145888956520197,1580.55522240239
0.150550624614901,1580.56522240239
0.156297660547928,1580.57522240239
0.162787728612046,1580.58522240239
0.169393102524683,1580.59522240239
0.176447030905578,1580.60522240239
0.182610958194338,1580.61522240239
0.18798685863103,1580.62522240239
0.192300427253924,1580.63522240239
0.195074151035657,1580.64522240239
0.196231151625813,1580.65522240239
0.195722750456633,1580.66522240239
0.194079311635175,1580.67522240239
0.191960656104422,1580.68522240239
0.189059020526379,1580.69522240239
0.185798895216999,1580.70522240239
0.181798758175835,1580.71522240239
0.178055956693889,1580.72522240239
0.173830354293436,1580.73522240239
0.16872407099042,1580.74522240239
0.163911935698265,1580.75522240239
0.159115064666937,1580.76522240239
0.154610890746413,1580.77522240239
0.150841771556308,1580.78522240239
0.14728312199719,1580.79522240239
0.143876213996544,1580.80522240239
0.140189960172137,1580.81522240239
0.136234823133888,1580.82522240239
0.13229385057891,1580.83522240239
0.127943536680631,1580.84522240239
0.123608860097199,1580.85522240239
0.119369866924791,1580.86522240239
0.115156005272829,1580.87522240239
0.111137522053947,1580.88522240239
0.107519679305585,1580.89522240239
0.103922512540349,1580.90522240239
0.100185935417113,1580.91522240239
0.0963568894359929,1580.92522240239
0.0921159366290117,1580.93522240239
0.0878526220808662,1580.94522240239
0.0836105201294455,1580.95522240239
0.0797903347578762,1580.96522240239
0.0756599916555064,1580.97522240239
0.0712597668491633,1580.98522240239
0.0663050059334164,1580.99522240239
0.0608063791933759,1581.00522240239
0.0550706191573618,1581.01522240239
0.0498265585061326,1581.02522240239
0.0447525038839169,1581.03522240239
0.0403037299843722,1581.04522240239
0.0360232049698812,1581.05522240239
0.0321666594057339,1581.06522240239
0.0280395012097381,1581.07522240239
0.0232561862552609,1581.08522240239
0.0181076902220778,1581.09522240239
0.0124337495880266,1581.10522240239
0.0074055815806699,1581.11522240239
0.00310201952357545,1581.12522240239
0.000352548331818396,1581.13522240239
0.000180603861821208,1581.14522240239
0.00565575296788232,1581.15522240239
0.0184197912666605,1581.16522240239
0.0408446623988655,1581.17522240239
0.0726489500349252,1581.18522240239
0.113978192665691,1581.19522240239
0.16344970369329,1581.20522240239
0.21732206326407,1581.21522240239
0.27171611254941,1581.22522240239
0.322208636713463,1581.23522240239
0.366685270074193,1581.24522240239
0.401902381212725,1581.25522240239
0.427618205190193,1581.26522240239
0.444315527258945,1581.27522240239
0.453170903327385,1581.28522240239
0.456524696269149,1581.29522240239
0.455905128042452,1581.30522240239
0.45277018208651,1581.31522240239
0.448229848131563,1581.32522240239
0.442911144820017,1581.33522240239
0.437289126572294,1581.34522240239
0.431654906550182,1581.35522240239
0.426742622725627,1581.36522240239
0.421833040063681,1581.37522240239
0.417075498009298,1581.38522240239
0.412826549297315,1581.39522240239
0.408702065385355,1581.40522240239
0.405094012748948,1581.41522240239
0.402084489740678,1581.42522240239
0.398645595784412,1581.43522240239
0.3942479360501,1581.44522240239
0.38895525404425,1581.45522240239
0.383178176973224,1581.46522240239
0.377663808375169,1581.47522240239
0.372957534419847,1581.48522240239
0.369771536100733,1581.49522240239
0.368375332252687,1581.50522240239
0.369622256361976,1581.51522240239
0.373208355762814,1581.52522240239
0.378957851753653,1581.53522240239
0.386570360563414,1581.54522240239
0.395465460022231,1581.55522240239
0.40453869797839,1581.56522240239
0.41328173457741,1581.57522240239
0.421171999303944,1581.58522240239
0.427349605640408,1581.59522240239
0.431923013746491,1581.60522240239
0.434826070762786,1581.61522240239
0.435865419324952,1581.62522240239
0.435610732722535,1581.63522240239
0.433844259733036,1581.64522240239
0.430492197763539,1581.65522240239
0.426430400990383,1581.66522240239
0.421919047602928,1581.67522240239
0.416964546877699,1581.68522240239
0.412115874387159,1581.69522240239
0.40673550738768,1581.70522240239
0.401154207636482,1581.71522240239
0.396089535208039,1581.72522240239
0.391430384190043,1581.73522240239
0.386877090931067,1581.74522240239
0.382314051147772,1581.75522240239
0.377633861330582,1581.76522240239
0.372205311133209,1581.77522240239
0.365992139529887,1581.78522240239
0.359148844381833,1581.79522240239
0.352291828368371,1581.80522240239
0.345449739472456,1581.81522240239
0.33929907435308,1581.82522240239
0.333651003365606,1581.83522240239
0.328188563346384,1581.84522240239
0.322917074807118,1581.85522240239
0.318029859563985,1581.86522240239
0.313251144309075,1581.87522240239
0.308192482776755,1581.88522240239
0.302836008222057,1581.89522240239
0.296682502897858,1581.90522240239
0.290215006391457,1581.91522240239
0.282730978958881,1581.92522240239
0.276161888642692,1581.93522240239
0.269191207287235,1581.94522240239
0.262532287682803,1581.95522240239
0.255888666355705,1581.96522240239
0.249445996207539,1581.97522240239
0.243046833824741,1581.98522240239
0.236378938259113,1581.99522240239
0.229803993225421,1582.00522240239
0.223287570890576,1582.01522240239
0.216852720095272,1582.02522240239
0.210417922570154,1582.03522240239
0.204033823536201,1582.04522240239
0.198395520678427,1582.05522240239
0.191629131710911,1582.06522240239
0.185171532245772,1582.07522240239
0.17958148252801,1582.08522240239
0.174534377489934,1582.09522240239
0.170146116431246,1582.10522240239
0.165885131533458,1582.11522240239
0.161384369945399,1582.12522240239
0.156301761613289,1582.13522240239
0.150471852826077,1582.14522240239
0.144356616495097,1582.15522240239
0.138496870344494,1582.16522240239
0.132796187908932,1582.17522240239
0.12752555286579,1582.18522240239
0.121881508580811,1582.19522240239
0.116358382234261,1582.20522240239
0.110384511337166,1582.21522240239
0.10455128127489,1582.22522240239
0.098737719311804,1582.23522240239
0.0933986499517987,1582.24522240239
0.0902217754369293,1582.25522240239
0.0928038733456264,1582.26522240239
0.103585954578242,1582.27522240239
0.125255772743782,1582.28522240239
0.159055592711959,1582.29522240239
0.204579719758723,1582.30522240239
0.260271880239315,1582.31522240239
0.322312606759615,1582.32522240239
0.386449328756004,1582.33522240239
0.447952921530553,1582.34522240239
0.5030253057446,1582.35522240239
0.548219717274586,1582.36522240239
0.582735230285697,1582.37522240239
0.605861798141341,1582.38522240239
0.6187593989659,1582.39522240239
0.623322242997862,1582.40522240239
0.62181680171039,1582.41522240239
0.615867772721896,1582.42522240239
0.607750255484426,1582.43522240239
0.598322993164581,1582.44522240239
0.588634868890517,1582.45522240239
0.578663148714039,1582.46522240239
0.569053835431912,1582.47522240239
0.560170011909275,1582.48522240239
0.551637747949713,1582.49522240239
0.543096557997394,1582.50522240239
0.53457116436418,1582.51522240239
0.526186493949673,1582.52522240239
0.517038701183496,1582.53522240239
0.507719596564858,1582.54522240239
0.497830153349156,1582.55522240239
0.488389737979153,1582.56522240239
0.479446114733922,1582.57522240239
0.471661983937844,1582.58522240239
0.465992230348364,1582.59522240239
0.463055072010308,1582.60522240239
0.462763351741825,1582.61522240239
0.465937852942868,1582.62522240239
0.471504324171271,1582.63522240239
0.479241774561785,1582.64522240239
0.48873865388106,1582.65522240239
0.499464030923415,1582.66522240239
0.510711748974451,1582.67522240239
0.521538605520793,1582.68522240239
0.53164525189599,1582.69522240239
0.539962099314688,1582.70522240239
0.545777938192453,1582.71522240239
0.549270945397761,1582.72522240239
0.550270689157942,1582.73522240239
0.549733442059787,1582.74522240239
0.547982185299048,1582.75522240239
0.545404634203443,1582.76522240239
0.542618723358087,1582.77522240239
0.539454711203858,1582.78522240239
0.535591367565873,1582.79522240239
0.531153876083644,1582.80522240239
0.525879688176966,1582.81522240239
0.519781949670073,1582.82522240239
0.512205536090561,1582.83522240239
0.503946416995279,1582.84522240239
0.495678240757999,1582.85522240239
0.4871441580023,1582.86522240239
0.479178306894203,1582.87522240239
0.471053329225893,1582.88522240239
0.463739373547761,1582.89522240239
0.456835068750477,1582.90522240239
0.450718702417011,1582.91522240239
0.444623801563643,1582.92522240239
0.438585763697288,1582.93522240239
0.432257120505662,1582.94522240239
0.426144592324954,1582.95522240239
0.419516850331136,1582.96522240239
0.412439281832583,1582.97522240239
0.405049325163332,1582.98522240239
0.396989695804031,1582.99522240239
0.388392947640452,1583.00522240239
0.379814840793923,1583.01522240239
0.371837778375859,1583.02522240239
0.364165366558903,1583.03522240239
0.356939012012797,1583.04522240239
0.350504085568948,1583.05522240239
0.344572164243692,1583.06522240239
0.33838626028067,1583.07522240239
0.332015887989901,1583.08522240239
0.325224625321009,1583.09522240239
0.317817681429423,1583.10522240239
0.309869589023451,1583.11522240239
0.301552822312518,1583.12522240239
0.293441406629877,1583.13522240239
0.285056150370071,1583.14522240239
0.276832679284822,1583.15522240239
0.269060562352926,1583.16522240239
0.261806174209216,1583.17522240239
0.254707725378499,1583.18522240239
0.247840580560122,1583.19522240239
0.243089205202113,1583.20522240239
0.242057712306199,1583.21522240239
0.24900782176994,1583.22522240239
0.266992318729294,1583.23522240239
0.29872572645155,1583.24522240239
0.343870135666591,1583.25522240239
0.400844120587466,1583.26522240239
0.466766411519863,1583.27522240239
0.536861770852609,1583.28522240239
0.605620173241024,1583.29522240239
0.669192878047442,1583.30522240239
0.723055319397114,1583.31522240239
0.766050843980587,1583.32522240239
0.797377139698241,1583.33522240239
0.817744489479344,1583.34522240239
0.827885656259317,1583.35522240239
0.829921769411895,1583.36522240239
0.825770162350072,1583.37522240239
0.817239671803095,1583.38522240239
0.80540021806154,1583.39522240239
0.792403904641611,1583.40522240239
0.779318488018967,1583.41522240239
0.766520608018901,1583.42522240239
0.753865437299747,1583.43522240239
0.741940193999236,1583.44522240239
0.73076057486148,1583.45522240239
0.720159674275308,1583.46522240239
0.709668163382674,1583.47522240239
0.6988723069393,1583.48522240239
0.688175706893871,1583.49522240239
0.677390762764453,1583.50522240239
0.666141991231564,1583.51522240239
0.654940559695566,1583.52522240239
0.644393557589165,1583.53522240239
0.63471375580755,1583.54522240239
0.627223060461169,1583.55522240239
0.621352815660029,1583.56522240239
0.618810360234279,1583.57522240239
0.619755871501771,1583.58522240239
0.623961629559119,1583.59522240239
0.631699626045473,1583.60522240239
0.642490547034803,1583.61522240239
0.6548285315473,1583.62522240239
0.667603098185094,1583.63522240239
0.679654368557086,1583.64522240239
0.689306399903402,1583.65522240239
0.69594849541365,1583.66522240239
0.700074400485249,1583.67522240239
0.700964051266939,1583.68522240239
0.700489518506353,1583.69522240239
0.698099518126975,1583.70522240239
0.693780563952135,1583.71522240239
0.688976679824539,1583.72522240239
0.682378171041604,1583.73522240239
0.67461758220359,1583.74522240239
0.666150768111776,1583.75522240239
0.657020564890091,1583.76522240239
0.648333036451814,1583.77522240239
0.639547074494218,1583.78522240239
0.631135410200581,1583.79522240239
0.622597606242336,1583.80522240239
0.614490791699416,1583.81522240239
0.60625710891075,1583.82522240239
0.597620241648861,1583.83522240239
0.589284176278449,1583.84522240239
0.580650427973775,1583.85522240239
0.571603967059836,1583.86522240239
0.562618028958812,1583.87522240239
0.553869193128757,1583.88522240239
0.544560413961789,1583.89522240239
0.535146884544339,1583.90522240239
0.525729125035982,1583.91522240239
0.515966123506783,1583.92522240239
0.506261061217465,1583.93522240239
0.496430017945708,1583.94522240239
0.486465866072717,1583.95522240239
0.476917525126251,1583.96522240239
0.466922485691994,1583.97522240239
0.456602240644852,1583.98522240239
0.445975385125944,1583.99522240239
0.434670441638034,1584.00522240239
0.423433356783037,1584.01522240239
0.412630151163656,1584.02522240239
0.401430008056624,1584.03522240239
0.389751238633109,1584.04522240239
0.378432719510132,1584.05522240239
0.367918491062968,1584.06522240239
0.359534745162155,1584.07522240239
0.35467187748964,1584.08522240239
0.356988623727601,1584.09522240239
0.370217012823468,1584.10522240239
0.39650081566056,1584.11522240239
0.436567947581821,1584.12522240239
0.490636059113954,1584.13522240239
0.554071747402624,1584.14522240239
0.623772123766977,1584.15522240239
0.693526449762735,1584.16522240239
0.758129215813869,1584.17522240239
0.812984691472068,1584.18522240239
0.855214401175146,1584.19522240239
0.884091677215738,1584.20522240239
0.899964875381241,1584.21522240239
0.904698320664268,1584.22522240239
0.900041176608592,1584.23522240239
0.888169679963173,1584.24522240239
0.87161027425742,1584.25522240239
0.852135360829784,1584.26522240239
0.831967399934182,1584.27522240239
0.811299337690849,1584.28522240239
0.791285810794957,1584.29522240239
0.772229063545045,1584.30522240239
0.754112727055848,1584.31522240239
0.736764653668693,1584.32522240239
0.72063208923602,1584.33522240239
0.705006676647588,1584.34522240239
0.688989147613408,1584.35522240239
0.672976240723101,1584.36522240239
0.657449375993838,1584.37522240239
0.641880337429134,1584.38522240239
0.626417484311138,1584.39522240239
0.610742937024265,1584.40522240239
0.596178592523884,1584.41522240239
0.582337738646125,1584.42522240239
0.57036375368042,1584.43522240239
0.560878304266476,1584.44522240239
0.554885267620933,1584.45522240239
0.552398481694676,1584.46522240239
0.552813420102441,1584.47522240239
0.555148704391944,1584.48522240239
0.559015386699842,1584.49522240239
0.564116124499236,1584.50522240239
0.569422446148082,1584.51522240239
0.573615595370093,1584.52522240239
0.576461349145438,1584.53522240239
0.576975248793981,1584.54522240239
0.574639122402923,1584.55522240239
0.569178601150708,1584.56522240239
0.561516068474413,1584.57522240239
0.552067718837625,1584.58522240239
0.540896146291987,1584.59522240239
0.529386794157887,1584.60522240239
0.517257811684732,1584.61522240239
0.504766949794892,1584.62522240239
0.492245220501669,1584.63522240239
0.479392130469939,1584.64522240239
0.465990353358996,1584.65522240239
0.452738206001146,1584.66522240239
0.439322791244542,1584.67522240239
0.425927182116898,1584.68522240239
0.41266386585719,1584.69522240239
0.399203647408887,1584.70522240239
0.385805792981012,1584.71522240239
0.372502557391559,1584.72522240239
0.3597043912327,1584.73522240239
0.346525519495455,1584.74522240239
0.332820695265634,1584.75522240239
0.319355569706051,1584.76522240239
0.305410657653892,1584.77522240239
0.291719899041494,1584.78522240239
0.27822410855437,1584.79522240239
0.264632532878335,1584.80522240239
0.251964329756321,1584.81522240239
0.239539099259971,1584.82522240239
0.227045403092158,1584.83522240239
0.21540920713012,1584.84522240239
0.203357794070081,1584.85522240239
0.191312603671747,1584.86522240239
0.179081501820753,1584.87522240239
0.166819586058568,1584.88522240239
0.154329143335791,1584.89522240239
0.142369072737981,1584.90522240239
0.132312841546918,1584.91522240239
0.12559935695578,1584.92522240239
0.126551771843113,1584.93522240239
0.137774066094809,1584.94522240239
0.161635593582722,1584.95522240239
0.198708207204899,1584.96522240239
0.246940067005412,1584.97522240239
0.303690755882983,1584.98522240239
0.364182152711817,1584.99522240239
0.424071684600985,1585.00522240239
0.478645083834267,1585.01522240239
0.523752428730149,1585.02522240239
0.558122639273717,1585.03522240239
0.579895330575906,1585.04522240239
0.590588888504019,1585.05522240239
0.592113906935039,1585.06522240239
0.586578336246683,1585.07522240239
0.576024084860354,1585.08522240239
0.562175482769688,1585.09522240239
0.546497194193497,1585.10522240239
0.529935394656429,1585.11522240239
0.513249208869795,1585.12522240239
0.496875175812955,1585.13522240239
0.481321543854858,1585.14522240239
0.465817125448195,1585.15522240239
0.451381962438682,1585.16522240239
0.437932391640718,1585.17522240239
0.424903663842491,1585.18522240239
0.411954820133354,1585.19522240239
0.398852671835209,1585.20522240239
0.384759163759819,1585.21522240239
0.369544170428311,1585.22522240239
0.353955694011098,1585.23522240239
0.338380166948146,1585.24522240239
0.324234727753324,1585.25522240239
0.311328769851104,1585.26522240239
0.300288977744424,1585.27522240239
0.291822869182199,1585.28522240239
0.285346892410704,1585.29522240239
0.281885594561001,1585.30522240239
0.280807649921591,1585.31522240239
0.282043698538844,1585.32522240239
0.284852975288475,1585.33522240239
0.287580371458837,1585.34522240239
0.290013149372703,1585.35522240239
0.291414895110732,1585.36522240239
0.291708750811332,1585.37522240239
0.289788055675029,1585.38522240239
0.28624085840774,1585.39522240239
0.281043614774202,1585.40522240239
0.274142708116397,1585.41522240239
0.266215121135718,1585.42522240239
0.258089598306375,1585.43522240239
0.249721261256499,1585.44522240239
0.241063419960518,1585.45522240239
0.231478901584235,1585.46522240239
0.221266103446582,1585.47522240239
0.210368930815638,1585.48522240239
0.198833770526821,1585.49522240239
0.187502895723077,1585.50522240239
0.17616690718199,1585.51522240239
0.164467889230899,1585.52522240239
0.152965375395922,1585.53522240239
0.141369459999117,1585.54522240239
0.130118697352074,1585.55522240239
0.118525361987773,1585.56522240239
0.107168791622992,1585.57522240239
0.0956461151699057,1585.58522240239
0.0844720602285926,1585.59522240239
0.0734143232244849,1585.60522240239
0.0627953783360734,1585.61522240239
0.0519543475095564,1585.62522240239
0.0407722620885862,1585.63522240239
0.0292383150591054,1585.64522240239
0.0175164148880417,1585.65522240239
0.00463821592870205,1585.66522240239
-0.00893664211344259,1585.67522240239
-0.0227553209272723,1585.68522240239
-0.036877485175336,1585.69522240239
-0.0506719861417446,1585.70522240239
-0.0639057153558181,1585.71522240239
-0.0765473838309496,1585.72522240239
-0.0885922821075326,1585.73522240239
-0.0986063775005889,1585.74522240239
-0.104102787187248,1585.75522240239
-0.101350289790142,1585.76522240239
-0.089305787500548,1585.77522240239
-0.0657807042344636,1585.78522240239
-0.031150228669396,1585.79522240239
0.0122490405713542,1585.80522240239
0.0621824495610253,1585.81522240239
0.113069157654136,1585.82522240239
0.161427413228561,1585.83522240239
0.203740182009218,1585.84522240239
0.237409849738505,1585.85522240239
0.261603521142383,1585.86522240239
0.276919523781076,1585.87522240239
0.284583970567023,1585.88522240239
0.284974540863981,1585.89522240239
0.280777084340652,1585.90522240239
0.272289903668699,1585.91522240239
0.261496338673618,1585.92522240239
0.249656942750051,1585.93522240239
0.23677948279599,1585.94522240239
0.224314949698374,1585.95522240239
0.212226220131364,1585.96522240239
0.200372428560279,1585.97522240239
0.188847096365187,1585.98522240239
0.177651769622818,1585.99522240239
0.166780786394816,1586.00522240239
0.156900680293964,1586.01522240239
0.14772497036908,1586.02522240239
0.138534024445667,1586.03522240239
0.128811155635498,1586.04522240239
0.118409402873633,1586.05522240239
0.107393933409549,1586.06522240239
0.0959296136731394,1586.07522240239
0.085404690413035,1586.08522240239
0.0767868993383144,1586.09522240239
0.0702557178675039,1586.10522240239
0.0657896475571144,1586.11522240239
0.0638844679642478,1586.12522240239
0.0645636276173331,1586.13522240239
0.0666237449980977,1586.14522240239
0.0699606686315363,1586.15522240239
0.0753356501208044,1586.16522240239
0.080244958965113,1586.17522240239
0.0845186177971578,1586.18522240239
0.087608965748348,1586.19522240239
0.0879942684506101,1586.20522240239
0.0868670296634372,1586.21522240239
0.0835841087290506,1586.22522240239
0.0787409731339373,1586.23522240239
0.0725744871008612,1586.24522240239
0.0654086966797889,1586.25522240239
0.0576345110433612,1586.26522240239
0.0489864582344244,1586.27522240239
0.0399912861028848,1586.28522240239
0.030850772809927,1586.29522240239
0.0215650597330747,1586.30522240239
0.0124647570846704,1586.31522240239
0.0036097541833701,1586.32522240239
-0.00565014778127296,1586.33522240239
-0.0151324424109143,1586.34522240239
-0.0244674038758197,1586.35522240239
-0.0336725397178609,1586.36522240239
-0.0426531083322315,1586.37522240239
-0.0516365325675942,1586.38522240239
-0.0609035927843832,1586.39522240239
-0.0701971302395705,1586.40522240239
-0.0793268558400124,1586.41522240239
-0.0881962653727043,1586.42522240239
-0.0971696804025737,1586.43522240239
-0.106435695038019,1586.44522240239
-0.115336639714582,1586.45522240239
-0.12429426536324,1586.46522240239
-0.133146516712719,1586.47522240239
-0.141173625959316,1586.48522240239
-0.149520028228497,1586.49522240239
-0.157222643850737,1586.50522240239
-0.164399138856077,1586.51522240239
-0.172085032581168,1586.52522240239
-0.179894210771177,1586.53522240239
-0.187526016759516,1586.54522240239
-0.195509711940939,1586.55522240239
-0.203272313950131,1586.56522240239
-0.210787556822341,1586.57522240239
-0.218444642070167,1586.58522240239
-0.225301639997553,1586.59522240239
-0.229368095954925,1586.60522240239
-0.228242381928863,1586.61522240239
-0.218441174476383,1586.62522240239
-0.198121100251759,1586.63522240239
-0.166188381397116,1586.64522240239
-0.123752424238772,1586.65522240239
-0.0735263779429816,1586.66522240239
-0.0186117948473415,1586.67522240239
0.0363801119133377,1586.68522240239
0.0868443920447516,1586.69522240239
0.129488933556216,1586.70522240239
0.162427761592601,1586.71522240239
0.185130393328843,1586.72522240239
0.198585940305189,1586.73522240239
0.204166752952784,1586.74522240239
0.203903853777817,1586.75522240239
0.199785989197262,1586.76522240239
0.19326686283459,1586.77522240239
0.184985300848695,1586.78522240239
0.1755088814994,1586.79522240239
0.165154398156683,1586.80522240239
0.154788011251396,1586.81522240239
0.145286908128451,1586.82522240239
0.13636483793386,1586.83522240239
0.128519175895146,1586.84522240239
0.121437923425049,1586.85522240239
0.114229056486268,1586.86522240239
0.106485945455913,1586.87522240239
0.0986109844995266,1586.88522240239
0.090314102149404,1586.89522240239
0.081740583341883,1586.90522240239
0.0730798054771349,1586.91522240239
0.0646069234705966,1586.92522240239
0.0566868791365366,1586.93522240239
0.0501914046422402,1586.94522240239
0.0454868053733268,1586.95522240239
0.0426032862925476,1586.96522240239
0.0428009940812064,1586.97522240239
0.0453552452927617,1586.98522240239
0.0499450359544917,1586.99522240239
0.0567675832757592,1587.00522240239
0.0642370267134939,1587.01522240239
0.0717116423043029,1587.02522240239
0.0782544097759478,1587.03522240239
0.0836085424738513,1587.04522240239
0.0875580640200521,1587.05522240239
0.0895111460760186,1587.06522240239
0.0895539434827881,1587.07522240239
0.0876613137405228,1587.08522240239
0.0838844006030798,1587.09522240239
0.0788096194561308,1587.10522240239
0.0722169361647764,1587.11522240239
0.0656267653274651,1587.12522240239
0.0585640135500771,1587.13522240239
0.0510949610409379,1587.14522240239
0.0440780201219685,1587.15522240239
0.0369871955125195,1587.16522240239
0.0298384435574869,1587.17522240239
0.0222373144863708,1587.18522240239
0.014145361951255,1587.19522240239
0.005855711922278,1587.20522240239
-0.00216980034646659,1587.21522240239
-0.00931644773067159,1587.22522240239
-0.0163917522010467,1587.23522240239
-0.0226785163984308,1587.24522240239
-0.0294118081844221,1587.25522240239
-0.0366819477107551,1587.26522240239
-0.0432030407521285,1587.27522240239
-0.0498299460260215,1587.28522240239
-0.0565037551394508,1587.29522240239
-0.0638209414607435,1587.30522240239
-0.0713310765572498,1587.31522240239
-0.0782104690484155,1587.32522240239
-0.0858167603705366,1587.33522240239
-0.0922873602437383,1587.34522240239
-0.098862275099601,1587.35522240239
