PPG,time
0.268518814424429,2906.65300194859
0.524375707777405,2906.66300194859
0.449244684704025,2906.67300194859
0.468416369524954,2906.68300194859
0.430063466963398,2906.69300194859
0.42599390571745,2906.70300194859
0.399922455421802,2906.71300194859
0.389540841516959,2906.72300194859
0.373600115286188,2906.73300194859
0.364844223472802,2906.74300194859
0.356678819171305,2906.75300194859
0.351620052865133,2906.76300194859
0.34878403134247,2906.77300194859
0.347749687528129,2906.78300194859
0.347806192476093,2906.79300194859
0.348437546385586,2906.80300194859
0.348353673993216,2906.81300194859
0.347207798722795,2906.82300194859
0.344258346581905,2906.83300194859
0.339571911966552,2906.84300194859
0.333237021394307,2906.85300194859
0.324690615169826,2906.86300194859
0.31497089404916,2906.87300194859
0.303659350270707,2906.88300194859
0.291096744076917,2906.89300194859
0.277310939395737,2906.90300194859
0.262334659877359,2906.91300194859
0.246857055240953,2906.92300194859
0.230834123280977,2906.93300194859
0.214722113664943,2906.94300194859
0.198392531555588,2906.95300194859
0.182146254973911,2906.96300194859
0.165648223842574,2906.97300194859
0.149576223849461,2906.98300194859
0.133187321276334,2906.99300194859
0.117128370743899,2907.00300194859
0.10165676952004,2907.01300194859
0.0871200730294839,2907.02300194859
0.0731828143739062,2907.03300194859
0.0596226952953495,2907.04300194859
0.0467234473577519,2907.05300194859
0.0343150430694144,2907.06300194859
0.0221019394622873,2907.07300194859
0.0102337828128258,2907.08300194859
-0.00139136651573868,2907.09300194859
-0.0127959526320535,2907.10300194859
-0.0242965128650454,2907.11300194859
-0.0354945326022846,2907.12300194859
-0.0465102512950883,2907.13300194859
-0.0574675766799588,2907.14300194859
-0.0688329735597358,2907.15300194859
-0.0806796057521089,2907.16300194859
-0.0922755274711693,2907.17300194859
-0.10361428340881,2907.18300194859
-0.114759474815848,2907.19300194859
-0.12515492913601,2907.20300194859
-0.134783497876821,2907.21300194859
-0.144213830580757,2907.22300194859
-0.153565458123786,2907.23300194859
-0.162995256065983,2907.24300194859
-0.173409137502728,2907.25300194859
-0.183410779920552,2907.26300194859
-0.193842853800972,2907.27300194859
-0.203420848748697,2907.28300194859
-0.212791522109516,2907.29300194859
-0.222263179260904,2907.30300194859
-0.232377684428458,2907.31300194859
-0.243069882857742,2907.32300194859
-0.253397589218701,2907.33300194859
-0.262153306402806,2907.34300194859
-0.265242580579689,2907.35300194859
-0.257783673139239,2907.36300194859
-0.233955564117409,2907.37300194859
-0.189824944479308,2907.38300194859
-0.124862327550216,2907.39300194859
-0.0406769785265864,2907.40300194859
0.0568876456618262,2907.41300194859
0.159731849709749,2907.42300194859
0.261148445008288,2907.43300194859
0.353144977379321,2907.44300194859
0.430430466488996,2907.45300194859
0.491026381401161,2907.46300194859
0.533454603596722,2907.47300194859
0.559118471709304,2907.48300194859
0.570831906933064,2907.49300194859
0.57081526285518,2907.50300194859
0.56320088693615,2907.51300194859
0.550853040168029,2907.52300194859
0.535454295270698,2907.53300194859
0.51995804179165,2907.54300194859
0.504682646050738,2907.55300194859
0.491025004030268,2907.56300194859
0.479692225209454,2907.57300194859
0.471149849863977,2907.58300194859
0.464450138457803,2907.59300194859
0.459627451072249,2907.60300194859
0.455928573281812,2907.61300194859
0.45262024766305,2907.62300194859
0.448791268034905,2907.63300194859
0.442837969429152,2907.64300194859
0.433976208861376,2907.65300194859
0.42178958261066,2907.66300194859
0.406675756229581,2907.67300194859
0.389392616675333,2907.68300194859
0.371632529258387,2907.69300194859
0.355302040073848,2907.70300194859
0.340748516870074,2907.71300194859
0.329083163520521,2907.72300194859
0.32023908716033,2907.73300194859
0.314702016946077,2907.74300194859
0.311955533494487,2907.75300194859
0.312030238000505,2907.76300194859
0.313752696788546,2907.77300194859
0.316543665912197,2907.78300194859
0.319615343041817,2907.79300194859
0.321925796492007,2907.80300194859
0.322919189153786,2907.81300194859
0.321582885726045,2907.82300194859
0.317983363826364,2907.83300194859
0.311214254160792,2907.84300194859
0.302705882536749,2907.85300194859
0.292316415516392,2907.86300194859
0.280950791862672,2907.87300194859
0.268405479327478,2907.88300194859
0.255181133146136,2907.89300194859
0.241020128474235,2907.90300194859
0.225726950913792,2907.91300194859
0.210042415418027,2907.92300194859
0.194016088633538,2907.93300194859
0.178045617860484,2907.94300194859
0.161985099122723,2907.95300194859
0.146163631757956,2907.96300194859
0.130228810925456,2907.97300194859
0.11424625564249,2907.98300194859
0.098555882977102,2907.99300194859
0.0828460051850751,2908.00300194859
0.0673905584913932,2908.01300194859
0.0528815097444726,2908.02300194859
0.0394565978398675,2908.03300194859
0.0268906549635658,2908.04300194859
0.0154353174133499,2908.05300194859
0.00485840241901073,2908.06300194859
-0.00566525759454012,2908.07300194859
-0.0157082123249708,2908.08300194859
-0.0253998345041572,2908.09300194859
-0.0343665548395447,2908.10300194859
-0.042823167184949,2908.11300194859
-0.050868014469441,2908.12300194859
-0.0588479505299032,2908.13300194859
-0.0670685565489234,2908.14300194859
-0.075660877646155,2908.15300194859
-0.0853020595425732,2908.16300194859
-0.0945680513520759,2908.17300194859
-0.103899085011891,2908.18300194859
-0.11293008669501,2908.19300194859
-0.121725640292325,2908.20300194859
-0.13025527497968,2908.21300194859
-0.138959603120031,2908.22300194859
-0.147616310740371,2908.23300194859
-0.156858177324174,2908.24300194859
-0.166599776879979,2908.25300194859
-0.176678459471605,2908.26300194859
-0.187817824834276,2908.27300194859
-0.198944485041209,2908.28300194859
-0.209586796730449,2908.29300194859
-0.217634993212809,2908.30300194859
-0.218971077637371,2908.31300194859
-0.208714903420103,2908.32300194859
-0.181005233354351,2908.33300194859
-0.13316778356922,2908.34300194859
-0.0650400886859082,2908.35300194859
0.0200778246672346,2908.36300194859
0.115639447355151,2908.37300194859
0.215336803385656,2908.38300194859
0.310287840702106,2908.39300194859
0.394505879397764,2908.40300194859
0.463228540728777,2908.41300194859
0.514816849798715,2908.42300194859
0.549458617871901,2908.43300194859
0.568103836693497,2908.44300194859
0.573459603005577,2908.45300194859
0.568673750627326,2908.46300194859
0.557395789809505,2908.47300194859
0.542752466565271,2908.48300194859
0.526190548099085,2908.49300194859
0.51007462169916,2908.50300194859
0.49476267551879,2908.51300194859
0.481386846113494,2908.52300194859
0.470149434957479,2908.53300194859
0.461205905973657,2908.54300194859
0.454642688941915,2908.55300194859
0.449228882231923,2908.56300194859
0.444690558107817,2908.57300194859
0.440348436316615,2908.58300194859
0.43458423941515,2908.59300194859
0.426789598144798,2908.60300194859
0.416579604821632,2908.61300194859
0.402763682481621,2908.62300194859
0.386821068391362,2908.63300194859
0.369501596764274,2908.64300194859
0.352531336279217,2908.65300194859
0.337271059730172,2908.66300194859
0.324668824950907,2908.67300194859
0.315078969569101,2908.68300194859
0.308403375109991,2908.69300194859
0.305028986685518,2908.70300194859
0.304129443739454,2908.71300194859
0.304374763888785,2908.72300194859
0.305312240727061,2908.73300194859
0.306028818140717,2908.74300194859
0.306110466912555,2908.75300194859
0.304890673954829,2908.76300194859
0.302123047364307,2908.77300194859
0.297291488323947,2908.78300194859
0.290774151782275,2908.79300194859
0.28217515280398,2908.80300194859
0.271503094412024,2908.81300194859
0.259426591233136,2908.82300194859
0.246022641416017,2908.83300194859
0.23148276376529,2908.84300194859
0.216303414285892,2908.85300194859
0.200912062177683,2908.86300194859
0.185504075649685,2908.87300194859
0.169738823733682,2908.88300194859
0.154655844010729,2908.89300194859
0.139246321525932,2908.90300194859
0.124343872486657,2908.91300194859
0.109347524739184,2908.92300194859
0.0944977727571649,2908.93300194859
0.0797860698775089,2908.94300194859
0.0659108078390618,2908.95300194859
0.0527044172589103,2908.96300194859
0.039601412992303,2908.97300194859
0.0267764836642239,2908.98300194859
0.0140352491492976,2908.99300194859
0.00122887500137413,2909.00300194859
-0.0112337395409755,2909.01300194859
-0.0235362874335854,2909.02300194859
-0.0357923865947145,2909.03300194859
-0.0476659328373913,2909.04300194859
-0.059740895697223,2909.05300194859
-0.0714003969209364,2909.06300194859
-0.0828221689414754,2909.07300194859
-0.0940280088820574,2909.08300194859
-0.10502590866493,2909.09300194859
-0.115897355636758,2909.10300194859
-0.126634463454143,2909.11300194859
-0.137997854174556,2909.12300194859
-0.14892673179589,2909.13300194859
-0.159853960424357,2909.14300194859
-0.170604985748646,2909.15300194859
-0.181264300902679,2909.16300194859
-0.191775613537383,2909.17300194859
-0.201645669303771,2909.18300194859
-0.211282886719238,2909.19300194859
-0.220578443012704,2909.20300194859
-0.22938186442731,2909.21300194859
-0.238288127439546,2909.22300194859
-0.246616100663381,2909.23300194859
-0.254796652853201,2909.24300194859
-0.262424458471432,2909.25300194859
-0.26991672586892,2909.26300194859
-0.27758981015797,2909.27300194859
-0.285025267812965,2909.28300194859
-0.293432358864104,2909.29300194859
-0.30233799747123,2909.30300194859
-0.312305708805536,2909.31300194859
-0.322656504365301,2909.32300194859
-0.332646984356297,2909.33300194859
-0.340069385646508,2909.34300194859
-0.341394712485953,2909.35300194859
-0.33080074990939,2909.36300194859
-0.302882044943536,2909.37300194859
-0.253682105921288,2909.38300194859
-0.182194250046045,2909.39300194859
-0.0913329181114282,2909.40300194859
0.0123540868467149,2909.41300194859
0.120398332320793,2909.42300194859
0.224543009335199,2909.43300194859
0.318303909186346,2909.44300194859
0.397175764768106,2909.45300194859
0.457503858632281,2909.46300194859
0.499710701864113,2909.47300194859
0.525113485566617,2909.48300194859
0.536338755098414,2909.49300194859
0.536973147318777,2909.50300194859
0.529481580779024,2909.51300194859
0.517360444668228,2909.52300194859
0.503463660261381,2909.53300194859
0.489267329979691,2909.54300194859
0.47642305425544,2909.55300194859
0.465582468355185,2909.56300194859
0.457075412535698,2909.57300194859
0.450942016502694,2909.58300194859
0.446998861184086,2909.59300194859
0.445286913343459,2909.60300194859
0.444876745124128,2909.61300194859
0.445799655708216,2909.62300194859
0.446783373253927,2909.63300194859
0.446680118874811,2909.64300194859
0.444021405408081,2909.65300194859
0.436856006736022,2909.66300194859
0.425518859338942,2909.67300194859
0.410866648052306,2909.68300194859
0.393790445469776,2909.69300194859
0.37622455263642,2909.70300194859
0.359887771015959,2909.71300194859
0.34567753202689,2909.72300194859
0.333620021906195,2909.73300194859
0.324570558513948,2909.74300194859
0.318353972969962,2909.75300194859
0.3143596541234,2909.76300194859
0.312126774671975,2909.77300194859
0.310884262038559,2909.78300194859
0.310683972976576,2909.79300194859
0.310750448102945,2909.80300194859
0.310167554988665,2909.81300194859
0.308220363514343,2909.82300194859
0.304590758999551,2909.83300194859
0.298774346171638,2909.84300194859
0.29093016770136,2909.85300194859
0.281453220838206,2909.86300194859
0.27023570557374,2909.87300194859
0.257243102226924,2909.88300194859
0.243592142390761,2909.89300194859
0.229657491076004,2909.90300194859
0.216220882834146,2909.91300194859
0.202616765104297,2909.92300194859
0.188406684726654,2909.93300194859
0.173715320081171,2909.94300194859
0.158701353100289,2909.95300194859
0.143117050205282,2909.96300194859
0.126694004163937,2909.97300194859
0.111023015833755,2909.98300194859
0.0959392639477137,2909.99300194859
0.0805999081277483,2910.00300194859
0.0657701953055076,2910.01300194859
0.0515195483133673,2910.02300194859
0.0384451292622898,2910.03300194859
0.0255745080379622,2910.04300194859
0.0134765024705528,2910.05300194859
0.00173146732308728,2910.06300194859
-0.00989507100759376,2910.07300194859
-0.0207729456204632,2910.08300194859
-0.0321007650105647,2910.09300194859
-0.0424946427119074,2910.10300194859
-0.0530948856051677,2910.11300194859
-0.0642440730947608,2910.12300194859
-0.0750089227419394,2910.13300194859
-0.0855516240672192,2910.14300194859
-0.0958845107574182,2910.15300194859
-0.10600650021441,2910.16300194859
-0.116136559607276,2910.17300194859
-0.126334840074797,2910.18300194859
-0.13646989164837,2910.19300194859
-0.146695685923326,2910.20300194859
-0.156746483686839,2910.21300194859
-0.16628413969188,2910.22300194859
-0.176174896403525,2910.23300194859
-0.186124952618175,2910.24300194859
-0.195962971848341,2910.25300194859
-0.205743758071139,2910.26300194859
-0.215667255189364,2910.27300194859
-0.225846267294461,2910.28300194859
-0.235749975943144,2910.29300194859
-0.245181402560893,2910.30300194859
-0.254638270264903,2910.31300194859
-0.264045363795835,2910.32300194859
-0.273523804539462,2910.33300194859
-0.283304179263373,2910.34300194859
-0.292399998552237,2910.35300194859
-0.301573380900878,2910.36300194859
-0.310480818787665,2910.37300194859
-0.31874722904123,2910.38300194859
-0.326985316867517,2910.39300194859
-0.335562370431629,2910.40300194859
-0.344558919539277,2910.41300194859
-0.354227321835637,2910.42300194859
-0.363901066416281,2910.43300194859
-0.373044288774434,2910.44300194859
-0.381285740597563,2910.45300194859
-0.385418393719284,2910.46300194859
-0.381176532358718,2910.47300194859
-0.362887516065355,2910.48300194859
-0.325287535314967,2910.49300194859
-0.265549834052,2910.50300194859
-0.185153776634343,2910.51300194859
-0.0882144573813708,2910.52300194859
0.01798453473773,2910.53300194859
0.125433153137288,2910.54300194859
0.226823624854074,2910.55300194859
0.315387210623123,2910.56300194859
0.387798464222,2910.57300194859
0.441115515699181,2910.58300194859
0.476679539788129,2910.59300194859
0.495946644579802,2910.60300194859
0.501548541209699,2910.61300194859
0.497364608256137,2910.62300194859
0.48679296066613,2910.63300194859
0.47231163766914,2910.64300194859
0.456615902043048,2910.65300194859
0.441833123428821,2910.66300194859
0.428852814908146,2910.67300194859
0.417717039573701,2910.68300194859
0.408450023417671,2910.69300194859
0.401084323456912,2910.70300194859
0.395536329892021,2910.71300194859
0.392094029349675,2910.72300194859
0.390332458295957,2910.73300194859
0.389097176681494,2910.74300194859
0.387721438614791,2910.75300194859
0.38384313892595,2910.76300194859
0.377269457942816,2910.77300194859
0.367329362540304,2910.78300194859
0.354440808615181,2910.79300194859
0.339356063640477,2910.80300194859
0.323524664022163,2910.81300194859
0.308331436646676,2910.82300194859
0.29499004496601,2910.83300194859
0.283613115939252,2910.84300194859
0.275069620610186,2910.85300194859
0.269177584837415,2910.86300194859
0.265652367726852,2910.87300194859
0.263774090776696,2910.88300194859
0.264074887865153,2910.89300194859
0.265648024587896,2910.90300194859
0.267831338330669,2910.91300194859
0.269291861455097,2910.92300194859
0.269948037896994,2910.93300194859
0.268285690467191,2910.94300194859
0.264384349381343,2910.95300194859
0.258014377556072,2910.96300194859
0.249672454899066,2910.97300194859
0.239374125274423,2910.98300194859
0.227241416384062,2910.99300194859
0.214379535801819,2911.00300194859
0.200400125805989,2911.01300194859
0.185723256696844,2911.02300194859
0.170646406885465,2911.03300194859
0.155049216098705,2911.04300194859
0.138948999317334,2911.05300194859
0.12292999450985,2911.06300194859
0.10694863578526,2911.07300194859
0.0911562527079961,2911.08300194859
0.0756078288529011,2911.09300194859
0.0596984466128372,2911.10300194859
0.044141985742156,2911.11300194859
0.0292123930434742,2911.12300194859
0.0142709783706849,2911.13300194859
-4.66583164700771e-05,2911.14300194859
-0.0138209977039822,2911.15300194859
-0.0272730019340901,2911.16300194859
-0.0400191192579812,2911.17300194859
-0.0528411621859548,2911.18300194859
-0.0656516940278462,2911.19300194859
-0.0780538488937959,2911.20300194859
-0.0902045611366433,2911.21300194859
-0.101455713250297,2911.22300194859
-0.112354062406008,2911.23300194859
-0.122746457012562,2911.24300194859
-0.132839931008109,2911.25300194859
-0.143281487396885,2911.26300194859
-0.153762347471088,2911.27300194859
-0.164518668899631,2911.28300194859
-0.174730170454624,2911.29300194859
-0.18519027827713,2911.30300194859
-0.195200060773739,2911.31300194859
-0.205236174502253,2911.32300194859
-0.215886874542593,2911.33300194859
-0.226185528408595,2911.34300194859
-0.236487395351136,2911.35300194859
-0.246511226406066,2911.36300194859
-0.25576481499506,2911.37300194859
-0.264907858302722,2911.38300194859
-0.274682450489436,2911.39300194859
-0.284849211247629,2911.40300194859
-0.29463102223414,2911.41300194859
-0.305071729992407,2911.42300194859
-0.315375055555186,2911.43300194859
-0.325400975961853,2911.44300194859
-0.335574561748495,2911.45300194859
-0.345636687675654,2911.46300194859
-0.35527982995576,2911.47300194859
-0.364713677758669,2911.48300194859
-0.374178886220308,2911.49300194859
-0.383724030270514,2911.50300194859
-0.393448896092379,2911.51300194859
-0.402173206147305,2911.52300194859
-0.406879590504092,2911.53300194859
-0.40294776727729,2911.54300194859
-0.383722564229064,2911.55300194859
-0.344658184262548,2911.56300194859
-0.284062138009289,2911.57300194859
-0.203215569177841,2911.58300194859
-0.107003793126939,2911.59300194859
-0.0019047035812049,2911.60300194859
0.10276427772861,2911.61300194859
0.201465991740768,2911.62300194859
0.286711136990853,2911.63300194859
0.354756834998948,2911.64300194859
0.404044477360234,2911.65300194859
0.435180842720669,2911.66300194859
0.451241023816764,2911.67300194859
0.453676851583728,2911.68300194859
0.447330205317331,2911.69300194859
0.435153290408712,2911.70300194859
0.419447324977168,2911.71300194859
0.403458369292002,2911.72300194859
0.387776618641491,2911.73300194859
0.373586105684273,2911.74300194859
0.361456042361848,2911.75300194859
0.351551655654262,2911.76300194859
0.343713017208163,2911.77300194859
0.337732952846778,2911.78300194859
0.333699821517389,2911.79300194859
0.330128292741683,2911.80300194859
0.32673640785577,2911.81300194859
0.322653542750725,2911.82300194859
0.316913961514228,2911.83300194859
0.308005567646384,2911.84300194859
0.295711134083178,2911.85300194859
0.281025450225722,2911.86300194859
0.265210970354762,2911.87300194859
0.249528760886399,2911.88300194859
0.234849182403223,2911.89300194859
0.222171944809842,2911.90300194859
0.211810670566152,2911.91300194859
0.203713405814728,2911.92300194859
0.198460827476218,2911.93300194859
0.196189816893745,2911.94300194859
0.196329268698903,2911.95300194859
0.198580904466284,2911.96300194859
0.201120067294825,2911.97300194859
0.203220366899848,2911.98300194859
0.204971172108005,2911.99300194859
0.205363899244036,2912.00300194859
0.203351992806764,2912.01300194859
0.199645324589383,2912.02300194859
0.193882712607448,2912.03300194859
0.186158697590495,2912.04300194859
0.176514166999,2912.05300194859
0.165288670426241,2912.06300194859
0.153327286872812,2912.07300194859
0.140221637939452,2912.08300194859
0.125939232675394,2912.09300194859
0.111710844545794,2912.10300194859
0.0966409615182769,2912.11300194859
0.0812177256382834,2912.12300194859
0.0649722486744478,2912.13300194859
0.0480240282290324,2912.14300194859
0.0307349942227571,2912.15300194859
0.0137950167140938,2912.16300194859
-0.00258456244853154,2912.17300194859
-0.0184974579041254,2912.18300194859
-0.0339403936418876,2912.19300194859
-0.0491413087511496,2912.20300194859
-0.0640718728308759,2912.21300194859
-0.0784809904471118,2912.22300194859
-0.0927945779183055,2912.23300194859
-0.106917642189034,2912.24300194859
-0.120436739343766,2912.25300194859
-0.13360504682025,2912.26300194859
-0.145973344085619,2912.27300194859
-0.15761191789496,2912.28300194859
-0.167835040408977,2912.29300194859
-0.177088458638228,2912.30300194859
-0.185533185792413,2912.31300194859
-0.19376328810644,2912.32300194859
-0.20304998518385,2912.33300194859
-0.212465492432301,2912.34300194859
-0.222202348173838,2912.35300194859
-0.232369600684989,2912.36300194859
-0.242720650116149,2912.37300194859
-0.252859525027439,2912.38300194859
-0.262505218433523,2912.39300194859
-0.272537406941765,2912.40300194859
-0.282299344200314,2912.41300194859
-0.292209851162191,2912.42300194859
-0.301303702043805,2912.43300194859
-0.310461820743362,2912.44300194859
-0.318974019404604,2912.45300194859
-0.327420789342481,2912.46300194859
-0.336485725306484,2912.47300194859
-0.344878639230901,2912.48300194859
-0.35378341681547,2912.49300194859
-0.363313321088953,2912.50300194859
-0.373099742140883,2912.51300194859
-0.383746575956721,2912.52300194859
-0.394614119948104,2912.53300194859
-0.404540158878357,2912.54300194859
-0.411387972281054,2912.55300194859
-0.411389434948325,2912.56300194859
-0.398530771064769,2912.57300194859
-0.368515483608542,2912.58300194859
-0.318142606708416,2912.59300194859
-0.246992272309021,2912.60300194859
-0.15951039025052,2912.61300194859
-0.0616055755524645,2912.62300194859
0.0394041442867829,2912.63300194859
0.134973584268269,2912.64300194859
0.221158508819811,2912.65300194859
0.291653411616051,2912.66300194859
0.344766195012495,2912.67300194859
0.380458260909685,2912.68300194859
0.399842649104713,2912.69300194859
0.405130709308741,2912.70300194859
0.400564561968955,2912.71300194859
0.388187107138784,2912.72300194859
0.371621073179253,2912.73300194859
0.353812641025325,2912.74300194859
0.336072299361318,2912.75300194859
0.319271012916374,2912.76300194859
0.304059862164524,2912.77300194859
0.290359642494516,2912.78300194859
0.278828719567715,2912.79300194859
0.268979874747423,2912.80300194859
0.26077419231765,2912.81300194859
0.253109985841844,2912.82300194859
0.246053505857545,2912.83300194859
0.238328677555696,2912.84300194859
0.228696015889206,2912.85300194859
0.217588461410322,2912.86300194859
0.203513465467881,2912.87300194859
0.18845587904504,2912.88300194859
0.173903595875304,2912.89300194859
0.161181149488817,2912.90300194859
0.151492972243932,2912.91300194859
0.14472855641278,2912.92300194859
0.140499038733382,2912.93300194859
0.139017421398878,2912.94300194859
0.139912223292424,2912.95300194859
0.142299368148876,2912.96300194859
0.145644340672855,2912.97300194859
0.149724500814155,2912.98300194859
0.153518466515101,2912.99300194859
0.156863282839503,2913.00300194859
0.158856775281922,2913.01300194859
0.159080120249968,2913.02300194859
0.157187636889259,2913.03300194859
0.152595174751006,2913.04300194859
0.145657337036756,2913.05300194859
0.136672733558245,2913.06300194859
0.125478195033738,2913.07300194859
0.113274670449637,2913.08300194859
0.100499086661477,2913.09300194859
0.0870127887634437,2913.10300194859
0.0742095450441303,2913.11300194859
0.0610184974656873,2913.12300194859
0.0483263225760196,2913.13300194859
0.0347355353514794,2913.14300194859
0.0209928110828148,2913.15300194859
0.00696491203696489,2913.16300194859
-0.00767151995709091,2913.17300194859
-0.0226036899901776,2913.18300194859
-0.0372815120503918,2913.19300194859
-0.052706941605328,2913.20300194859
-0.0672612894465543,2913.21300194859
-0.0807434410548507,2913.22300194859
-0.0936747419832886,2913.23300194859
-0.106097162340903,2913.24300194859
-0.118945543597098,2913.25300194859
-0.131548018582592,2913.26300194859
-0.143871894935226,2913.27300194859
-0.156480197974331,2913.28300194859
-0.16840118091322,2913.29300194859
-0.180463742719305,2913.30300194859
-0.192213901873387,2913.31300194859
-0.202837904143684,2913.32300194859
-0.213574842067017,2913.33300194859
-0.224050439778232,2913.34300194859
-0.234250359876342,2913.35300194859
-0.244705999474479,2913.36300194859
-0.255064661370113,2913.37300194859
-0.265367600551385,2913.38300194859
-0.275938902514697,2913.39300194859
-0.28653497321743,2913.40300194859
-0.297064632045099,2913.41300194859
-0.307129888432797,2913.42300194859
-0.316329292925885,2913.43300194859
-0.32445391091661,2913.44300194859
-0.332521261578107,2913.45300194859
-0.339772159620942,2913.46300194859
-0.347706297237183,2913.47300194859
-0.356122696121611,2913.48300194859
-0.364717665322289,2913.49300194859
-0.373914812881645,2913.50300194859
-0.382719634261001,2913.51300194859
-0.390674343989349,2913.52300194859
-0.396585888462693,2913.53300194859
-0.39597947626177,2913.54300194859
-0.383888763848847,2913.55300194859
-0.354357869832022,2913.56300194859
-0.304790699928671,2913.57300194859
-0.233723739084548,2913.58300194859
-0.144720767995815,2913.59300194859
-0.0429624936626102,2913.60300194859
0.0633286269918353,2913.61300194859
0.166265475213274,2913.62300194859
0.259813944490169,2913.63300194859
0.338029407991863,2913.64300194859
0.398171342954823,2913.65300194859
0.440098436834984,2913.66300194859
0.464919749193352,2913.67300194859
0.474895366679542,2913.68300194859
0.474053481749039,2913.69300194859
0.465955936512295,2913.70300194859
0.454080157876681,2913.71300194859
0.441042464231202,2913.72300194859
0.428650863854979,2913.73300194859
0.417778605431445,2913.74300194859
0.408409897639837,2913.75300194859
0.401302460480035,2913.76300194859
0.395882480045974,2913.77300194859
0.391681755958648,2913.78300194859
0.388250715128186,2913.79300194859
0.386448996328565,2913.80300194859
0.384567705006846,2913.81300194859
0.382743209049452,2913.82300194859
0.379631127406033,2913.83300194859
0.374191444402789,2913.84300194859
0.365884063820703,2913.85300194859
0.354499911529181,2913.86300194859
0.340203240257915,2913.87300194859
0.323847437337555,2913.88300194859
0.30724376112152,2913.89300194859
0.290766030358787,2913.90300194859
0.276600486417353,2913.91300194859
0.264755105316715,2913.92300194859
0.256109318075852,2913.93300194859
0.250126769908258,2913.94300194859
0.246127700483136,2913.95300194859
0.243924116255661,2913.96300194859
0.242183873085381,2913.97300194859
0.241806249129716,2913.98300194859
0.241377274471143,2913.99300194859
0.240765740240978,2914.00300194859
0.239373901651545,2914.01300194859
0.236215971317325,2914.02300194859
0.231436731835724,2914.03300194859
0.225272119943108,2914.04300194859
0.217019092563136,2914.05300194859
0.206930900534206,2914.06300194859
0.195152319206801,2914.07300194859
0.181983975121905,2914.08300194859
0.168283221305915,2914.09300194859
0.154241024079804,2914.10300194859
0.1400365188214,2914.11300194859
0.125225036536408,2914.12300194859
0.110028961488929,2914.13300194859
0.0945589878932538,2914.14300194859
0.0785196193095535,2914.15300194859
0.0622570723847779,2914.16300194859
0.0458954165505827,2914.17300194859
0.0300402522813365,2914.18300194859
0.01482972951248,2914.19300194859
-0.000230199780043718,2914.20300194859
-0.0144090785951041,2914.21300194859
-0.0283230123098654,2914.22300194859
-0.0418296796457191,2914.23300194859
-0.0558097951918961,2914.24300194859
-0.0690886946100831,2914.25300194859
-0.0823682378954793,2914.26300194859
-0.0952254809001393,2914.27300194859
-0.107683859744639,2914.28300194859
-0.120071289679696,2914.29300194859
-0.132069978568655,2914.30300194859
-0.143770962145447,2914.31300194859
-0.15465011237851,2914.32300194859
-0.165242841332207,2914.33300194859
-0.175320394918581,2914.34300194859
-0.184776749005477,2914.35300194859
-0.194766140157075,2914.36300194859
-0.204619450669845,2914.37300194859
-0.214893104833686,2914.38300194859
-0.225434754359663,2914.39300194859
-0.236514109908227,2914.40300194859
-0.247114405278397,2914.41300194859
-0.25695592254016,2914.42300194859
-0.267044008868501,2914.43300194859
-0.276990058574452,2914.44300194859
-0.287099368557396,2914.45300194859
-0.297563124412956,2914.46300194859
-0.307482186011103,2914.47300194859
-0.31711071028293,2914.48300194859
-0.326194411917607,2914.49300194859
-0.334978356071107,2914.50300194859
-0.343354946586609,2914.51300194859
-0.351456291062496,2914.52300194859
-0.360102956353687,2914.53300194859
-0.36906599353123,2914.54300194859
-0.378744066942873,2914.55300194859
-0.388855053019929,2914.56300194859
-0.39892763466508,2914.57300194859
-0.40700339211198,2914.58300194859
-0.410578975593622,2914.59300194859
-0.404861679907453,2914.60300194859
-0.383485673245717,2914.61300194859
-0.341934025796662,2914.62300194859
-0.278870762080881,2914.63300194859
-0.194934701298332,2914.64300194859
-0.0962012194524682,2914.65300194859
0.0109382049116042,2914.66300194859
0.117589019728077,2914.67300194859
0.217590368213067,2914.68300194859
0.303827791347178,2914.69300194859
0.372595714429522,2914.70300194859
0.422669024134901,2914.71300194859
0.454719672047335,2914.72300194859
0.470305318456902,2914.73300194859
0.473155487273016,2914.74300194859
0.467310557947264,2914.75300194859
0.456040450360389,2914.76300194859
0.442581591600863,2914.77300194859
0.428836805025943,2914.78300194859
0.415296793578967,2914.79300194859
0.403455829734153,2914.80300194859
0.393034119991706,2914.81300194859
0.384331702889266,2914.82300194859
0.377224610518953,2914.83300194859
0.371460249788016,2914.84300194859
0.366527579976299,2914.85300194859
0.362917963211204,2914.86300194859
0.35953565873034,2914.87300194859
0.355817935561584,2914.88300194859
0.35016674028733,2914.89300194859
0.341401093908087,2914.90300194859
0.330024897074755,2914.91300194859
0.315966259174131,2914.92300194859
0.300242754451102,2914.93300194859
0.284596780435253,2914.94300194859
0.269400623440008,2914.95300194859
0.255678838462272,2914.96300194859
0.2447635782952,2914.97300194859
0.236411724147639,2914.98300194859
0.230983159430729,2914.99300194859
0.227692992000988,2915.00300194859
0.226677644223985,2915.01300194859
0.226979435062089,2915.02300194859
0.228424777339631,2915.03300194859
0.230647600203645,2915.04300194859
0.231643849796716,2915.05300194859
0.231560219320967,2915.06300194859
0.230139206586256,2915.07300194859
0.226883691750738,2915.08300194859
0.221560718441867,2915.09300194859
0.213991130853735,2915.10300194859
0.204362693351245,2915.11300194859
0.19295476454439,2915.12300194859
0.180176308480332,2915.13300194859
0.166877295114325,2915.14300194859
0.152878435929061,2915.15300194859
0.138116166286436,2915.16300194859
0.123116685189715,2915.17300194859
0.107794269106416,2915.18300194859
0.0927772502984328,2915.19300194859
0.0779271230472427,2915.20300194859
0.0625730056603966,2915.21300194859
0.0465333145052808,2915.22300194859
0.0304691029281007,2915.23300194859
0.0140108292175769,2915.24300194859
-0.00205077341522343,2915.25300194859
-0.016529167530792,2915.26300194859
-0.0304899852674995,2915.27300194859
-0.0428962924056666,2915.28300194859
-0.0526745906079545,2915.29300194859
-0.0595894536562681,2915.30300194859
-0.0626477279446716,2915.31300194859
-0.0613250024041512,2915.32300194859
-0.0546749197811548,2915.33300194859
-0.0424363620608492,2915.34300194859
-0.0262353038812442,2915.35300194859
-0.008454980403938,2915.36300194859
0.00888479746401834,2915.37300194859
0.0253850545858818,2915.38300194859
0.0413805220052767,2915.39300194859
0.0578055814355562,2915.40300194859
0.0759115748811009,2915.41300194859
0.0967491506037193,2915.42300194859
0.121240163483505,2915.43300194859
0.150190173191871,2915.44300194859
0.1831779929974,2915.45300194859
0.216349568322277,2915.46300194859
0.244407931275412,2915.47300194859
0.26541582914774,2915.48300194859
0.279799873780222,2915.49300194859
0.289544072215596,2915.50300194859
0.295375050003105,2915.51300194859
0.296899088675134,2915.52300194859
0.294117201520043,2915.53300194859
0.286721304614698,2915.54300194859
0.275683745464933,2915.55300194859
0.2612957973811,2915.56300194859
0.245165977565317,2915.57300194859
0.227494585777182,2915.58300194859
0.209156708282457,2915.59300194859
0.191239924281184,2915.60300194859
0.176272624230691,2915.61300194859
0.168085364632276,2915.62300194859
0.172224853439342,2915.63300194859
0.194029546610656,2915.64300194859
0.236589290368951,2915.65300194859
0.300485125615928,2915.66300194859
0.381895881860812,2915.67300194859
0.473080072918008,2915.68300194859
0.565952311619666,2915.69300194859
0.652501930463918,2915.70300194859
0.72730775302937,2915.71300194859
0.786565118374887,2915.72300194859
0.828088699922767,2915.73300194859
0.852318740808604,2915.74300194859
0.861323537910233,2915.75300194859
0.8572970974272,2915.76300194859
0.844098089834778,2915.77300194859
0.824476139623841,2915.78300194859
0.800642566154523,2915.79300194859
0.775024247376337,2915.80300194859
0.749296154500219,2915.81300194859
0.724437974357284,2915.82300194859
0.701833155213129,2915.83300194859
0.681503114876736,2915.84300194859
0.66326406800429,2915.85300194859
0.646892208085862,2915.86300194859
0.632058036788711,2915.87300194859
0.618535450524632,2915.88300194859
0.606580783547835,2915.89300194859
0.595693906455749,2915.90300194859
0.584361364583439,2915.91300194859
0.57149131544234,2915.92300194859
0.555609651799843,2915.93300194859
0.537285930630072,2915.94300194859
0.516178680204083,2915.95300194859
0.494728060915468,2915.96300194859
0.474011145767535,2915.97300194859
0.454686668068518,2915.98300194859
0.438218138885376,2915.99300194859
0.425132100228988,2916.00300194859
0.41516894626045,2916.01300194859
0.407712044659265,2916.02300194859
0.402083113795853,2916.03300194859
0.398105518690302,2916.04300194859
0.394718280841749,2916.05300194859
0.39138898242035,2916.06300194859
0.387236884570453,2916.07300194859
0.382706987039895,2916.08300194859
0.377216356611185,2916.09300194859
0.370363746932524,2916.10300194859
0.362495569721529,2916.11300194859
0.353514098147087,2916.12300194859
0.343618646133133,2916.13300194859
0.332525313976641,2916.14300194859
0.320448039661561,2916.15300194859
0.307222297406807,2916.16300194859
0.293233606790737,2916.17300194859
0.278993291038375,2916.18300194859
0.264348092476383,2916.19300194859
0.2488963045103,2916.20300194859
0.233486430923611,2916.21300194859
0.217287599219181,2916.22300194859
0.201463694868099,2916.23300194859
0.185718692311121,2916.24300194859
0.169923175447173,2916.25300194859
0.1543054631068,2916.26300194859
0.139114171239156,2916.27300194859
0.124004972297585,2916.28300194859
0.109312081443665,2916.29300194859
0.0952699558028432,2916.30300194859
0.0817340969689963,2916.31300194859
0.0689999764371857,2916.32300194859
0.0562401829783103,2916.33300194859
0.0433915153627734,2916.34300194859
0.0307881093499284,2916.35300194859
0.017779689655622,2916.36300194859
0.00545564143031924,2916.37300194859
-0.00661271452840259,2916.38300194859
-0.017460349149977,2916.39300194859
-0.0279007658941644,2916.40300194859
-0.0377891869130833,2916.41300194859
-0.0475704816159007,2916.42300194859
-0.0574484682260382,2916.43300194859
-0.0670870500539673,2916.44300194859
-0.0775200077687933,2916.45300194859
-0.0882914673753465,2916.46300194859
-0.0986830128908786,2916.47300194859
-0.10903351276665,2916.48300194859
-0.119339887701228,2916.49300194859
-0.12890036778467,2916.50300194859
-0.138339604026963,2916.51300194859
-0.14699871849298,2916.52300194859
-0.155049653508064,2916.53300194859
-0.16296575934162,2916.54300194859
-0.170140696318709,2916.55300194859
-0.177345022519577,2916.56300194859
-0.184540783702892,2916.57300194859
-0.191654841787656,2916.58300194859
-0.199863276603077,2916.59300194859
-0.208656033572051,2916.60300194859
-0.218535042969891,2916.61300194859
-0.228640438438188,2916.62300194859
-0.239359270549407,2916.63300194859
-0.248742019444275,2916.64300194859
-0.253534999197294,2916.65300194859
-0.248964965018005,2916.66300194859
-0.229237893482722,2916.67300194859
-0.189865416342369,2916.68300194859
-0.129546292766391,2916.69300194859
-0.0501227516414123,2916.70300194859
0.0425134555692309,2916.71300194859
0.140941806313051,2916.72300194859
0.238061693455688,2916.73300194859
0.326514092770862,2916.74300194859
0.400908596772617,2916.75300194859
0.458212721960881,2916.76300194859
0.497759172946235,2916.77300194859
0.520696920220009,2916.78300194859
0.529063059235316,2916.79300194859
0.52685446864665,2916.80300194859
0.517082370847712,2916.81300194859
0.502175775988536,2916.82300194859
0.48502791631857,2916.83300194859
0.46692004730723,2916.84300194859
0.449186057547506,2916.85300194859
0.432469330109139,2916.86300194859
0.417181512121873,2916.87300194859
0.404247808270232,2916.88300194859
0.393033186216494,2916.89300194859
0.384316907240267,2916.90300194859
0.376780037249497,2916.91300194859
0.37036635014476,2916.92300194859
0.363770157039134,2916.93300194859
0.356784673946951,2916.94300194859
0.347388410968528,2916.95300194859
0.335599076776046,2916.96300194859
0.320881359742303,2916.97300194859
0.304264274549062,2916.98300194859
0.287647923006763,2916.99300194859
0.272041326683768,2917.00300194859
0.259289232672866,2917.01300194859
0.249033813876905,2917.02300194859
0.242592040510457,2917.03300194859
0.238763906815173,2917.04300194859
0.237636606694253,2917.05300194859
0.238603071568951,2917.06300194859
0.240671890883912,2917.07300194859
0.243689383303409,2917.08300194859
0.247083438665494,2917.09300194859
0.250458264396096,2917.10300194859
0.253947394558125,2917.11300194859
0.256052553374233,2917.12300194859
0.256476095284807,2917.13300194859
0.254583369960865,2917.14300194859
0.249783816118122,2917.15300194859
0.242647710274222,2917.16300194859
0.233057028639031,2917.17300194859
0.221952077223307,2917.18300194859
0.209830882894919,2917.19300194859
0.197024709232926,2917.20300194859
0.183172248953162,2917.21300194859
0.168795280966724,2917.22300194859
0.153043324442955,2917.23300194859
0.136936437477972,2917.24300194859
0.120704291731859,2917.25300194859
0.104430314788887,2917.26300194859
0.0882634014071182,2917.27300194859
0.0717524276543083,2917.28300194859
0.0557881108442253,2917.29300194859
0.0400450504853403,2917.30300194859
0.0247348612388396,2917.31300194859
0.0108631579158155,2917.32300194859
-0.00192292177811244,2917.33300194859
-0.0135850200543825,2917.34300194859
-0.0241816260271385,2917.35300194859
-0.03356357891436,2917.36300194859
-0.0430704098461662,2917.37300194859
-0.0522135129744871,2917.38300194859
-0.0619868673544958,2917.39300194859
-0.07235653781146,2917.40300194859
-0.0825754171268019,2917.41300194859
-0.0926193704856388,2917.42300194859
-0.101736857300831,2917.43300194859
-0.110642999544335,2917.44300194859
-0.11942175398117,2917.45300194859
-0.127521458840782,2917.46300194859
-0.135750021132043,2917.47300194859
-0.144707376114292,2917.48300194859
-0.153818452596605,2917.49300194859
-0.163017335670771,2917.50300194859
-0.1716682429772,2917.51300194859
-0.180288222084812,2917.52300194859
-0.188654883073837,2917.53300194859
-0.196593621721432,2917.54300194859
-0.204572711021312,2917.55300194859
-0.212900026034984,2917.56300194859
-0.221600601098985,2917.57300194859
-0.230825861173032,2917.58300194859
-0.241498174909999,2917.59300194859
-0.252396879677993,2917.60300194859
-0.262723593785997,2917.61300194859
-0.271488128369422,2917.62300194859
-0.276035490295065,2917.63300194859
-0.271440255266994,2917.64300194859
-0.252946608521838,2917.65300194859
-0.215642408592255,2917.66300194859
-0.157734244845179,2917.67300194859
-0.0812916435347363,2917.68300194859
0.00826081113058037,2917.69300194859
0.103853991214268,2917.70300194859
0.198098077404185,2917.71300194859
0.283252726097256,2917.72300194859
0.355043012795623,2917.73300194859
0.41027511963961,2917.74300194859
0.447913580411274,2917.75300194859
0.469334560808909,2917.76300194859
0.476606882945444,2917.77300194859
0.472999930567468,2917.78300194859
0.461284060326156,2917.79300194859
0.445077400724091,2917.80300194859
0.426288441804889,2917.81300194859
0.406533491830653,2917.82300194859
0.387847159785564,2917.83300194859
0.370150637723183,2917.84300194859
0.354873259026665,2917.85300194859
0.341132004839248,2917.86300194859
0.329939234948621,2917.87300194859
0.320291286517679,2917.88300194859
0.311621658479605,2917.89300194859
0.303384447854313,2917.90300194859
0.29470864657967,2917.91300194859
0.285532505263887,2917.92300194859
0.274526721932719,2917.93300194859
0.261559281901299,2917.94300194859
0.246625329234341,2917.95300194859
0.23064118227076,2917.96300194859
0.215567637598056,2917.97300194859
0.202454871038282,2917.98300194859
0.192176787851204,2917.99300194859
0.185720007115498,2918.00300194859
0.182775505269172,2918.01300194859
0.182969127172154,2918.02300194859
0.185796988400442,2918.03300194859
0.191049735127569,2918.04300194859
0.196891302051463,2918.05300194859
0.203769142382138,2918.06300194859
0.209814104410483,2918.07300194859
0.214130270924965,2918.08300194859
0.216272624029912,2918.09300194859
0.216204401078201,2918.10300194859
0.213725107017457,2918.11300194859
0.208754577369276,2918.12300194859
0.201734299824976,2918.13300194859
0.19261180950634,2918.14300194859
0.181445594501804,2918.15300194859
0.169741039904628,2918.16300194859
0.157464305182576,2918.17300194859
0.144306043530961,2918.18300194859
0.13146824829843,2918.19300194859
0.11768786268044,2918.20300194859
0.102900610486729,2918.21300194859
0.0885015924217127,2918.22300194859
0.0737313685550557,2918.23300194859
0.0594730881971077,2918.24300194859
0.0452334088361731,2918.25300194859
0.0309719791130138,2918.26300194859
0.016397542645001,2918.27300194859
0.00177453372591228,2918.28300194859
-0.0126640006356952,2918.29300194859
-0.0259617777276744,2918.30300194859
-0.0384012817467664,2918.31300194859
-0.049718717728809,2918.32300194859
-0.0598053298606108,2918.33300194859
-0.0694775476077215,2918.34300194859
-0.0786766033194617,2918.35300194859
-0.0882147872701379,2918.36300194859
-0.0973396156698369,2918.37300194859
-0.106731326543769,2918.38300194859
-0.115406403111002,2918.39300194859
-0.123948248916343,2918.40300194859
-0.131868359590818,2918.41300194859
-0.140189905727219,2918.42300194859
-0.148139184264051,2918.43300194859
-0.156057456293299,2918.44300194859
-0.163472413634366,2918.45300194859
-0.169969518061097,2918.46300194859
-0.176659853563396,2918.47300194859
-0.18385281918929,2918.48300194859
-0.191576780511677,2918.49300194859
-0.200458228499526,2918.50300194859
-0.209386507113197,2918.51300194859
-0.217244081183446,2918.52300194859
-0.221622399472061,2918.53300194859
-0.21815702317891,2918.54300194859
-0.201783758769729,2918.55300194859
-0.166591505142579,2918.56300194859
-0.109903720131891,2918.57300194859
-0.032481660410155,2918.58300194859
0.0595362569942127,2918.59300194859
0.158182018605315,2918.60300194859
0.255860443908711,2918.61300194859
0.34526402972116,2918.62300194859
0.421464042981467,2918.63300194859
0.481615328656539,2918.64300194859
0.524785932948511,2918.65300194859
0.550899144398436,2918.66300194859
0.562764929129212,2918.67300194859
0.562959121465162,2918.68300194859
0.555699904844774,2918.69300194859
0.543560687373676,2918.70300194859
0.529207193140178,2918.71300194859
0.514837652116283,2918.72300194859
0.502365685046862,2918.73300194859
0.491888700223868,2918.74300194859
0.484012485283192,2918.75300194859
0.478170290786496,2918.76300194859
0.474417097019638,2918.77300194859
0.471570893352463,2918.78300194859
0.469514853107753,2918.79300194859
0.467306267932336,2918.80300194859
0.464921535445093,2918.81300194859
0.461714698797279,2918.82300194859
0.457141165822818,2918.83300194859
0.449205305413739,2918.84300194859
0.438309264051767,2918.85300194859
0.42355735681758,2918.86300194859
0.405753237481433,2918.87300194859
0.386459866062344,2918.88300194859
0.366524767401702,2918.89300194859
0.349022723510939,2918.90300194859
0.333780476277355,2918.91300194859
0.32177323692386,2918.92300194859
0.312746019794412,2918.93300194859
0.307219374442477,2918.94300194859
0.304145843912999,2918.95300194859
0.303117812707619,2918.96300194859
0.303203106890431,2918.97300194859
0.304402040179136,2918.98300194859
0.30629314450337,2918.99300194859
0.307443129187102,2919.00300194859
0.307398137034769,2919.01300194859
0.305179481121359,2919.02300194859
0.301012302163165,2919.03300194859
0.294403220833375,2919.04300194859
0.285776433622469,2919.05300194859
0.276027491723285,2919.06300194859
0.264815990625748,2919.07300194859
0.253866799919954,2919.08300194859
0.241429136063505,2919.09300194859
0.228107849282005,2919.10300194859
0.214433359962251,2919.11300194859
0.199663058106065,2919.12300194859
0.184296797720169,2919.13300194859
0.168787186981519,2919.14300194859
0.153312407560469,2919.15300194859
0.137364472923343,2919.16300194859
0.12216635093216,2919.17300194859
0.107094666952023,2919.18300194859
0.0927037044317783,2919.19300194859
0.0793411477578606,2919.20300194859
0.0666935978433544,2919.21300194859
0.0544249473723371,2919.22300194859
0.0426524136831845,2919.23300194859
0.0306802530116901,2919.24300194859
0.0186733935435142,2919.25300194859
0.00754231036077531,2919.26300194859
-0.00331523658103337,2919.27300194859
-0.0131772666120236,2919.28300194859
-0.0230557600079527,2919.29300194859
-0.0322700276882016,2919.30300194859
-0.041780093617826,2919.31300194859
-0.0506958204384652,2919.32300194859
-0.0597722175569912,2919.33300194859
-0.0691631615184557,2919.34300194859
-0.0787175135839648,2919.35300194859
-0.0888326577307752,2919.36300194859
-0.0987725631806648,2919.37300194859
-0.108915991174847,2919.38300194859
-0.118759075724955,2919.39300194859
-0.128712329895113,2919.40300194859
-0.138205325499406,2919.41300194859
-0.148063074873605,2919.42300194859
-0.157488452221861,2919.43300194859
-0.166990794789568,2919.44300194859
-0.17607914947869,2919.45300194859
-0.185489673459641,2919.46300194859
-0.19525818488554,2919.47300194859
-0.205273073666794,2919.48300194859
-0.215598964172397,2919.49300194859
-0.226141428817737,2919.50300194859
-0.237075812740718,2919.51300194859
-0.248247851287034,2919.52300194859
-0.259205940207985,2919.53300194859
-0.269289444550084,2919.54300194859
-0.275435727600208,2919.55300194859
-0.272820966428745,2919.56300194859
-0.256875493874611,2919.57300194859
-0.222988962533088,2919.58300194859
-0.170155846132482,2919.59300194859
-0.0995840171374183,2919.60300194859
-0.0168839406844215,2919.61300194859
0.0707983667829216,2919.62300194859
0.155870129956393,2919.63300194859
0.231917317861005,2919.64300194859
0.293613908607052,2919.65300194859
0.339936759762866,2919.66300194859
0.370409114138874,2919.67300194859
0.385553333562395,2919.68300194859
0.389630368769228,2919.69300194859
0.384795820175374,2919.70300194859
0.37435277801238,2919.71300194859
0.360203158773748,2919.72300194859
0.345032613099684,2919.73300194859
0.330327319325671,2919.74300194859
0.316341937798972,2919.75300194859
0.304799400270985,2919.76300194859
0.295198598705201,2919.77300194859
0.287356042367454,2919.78300194859
0.280722064643997,2919.79300194859
0.275253687961592,2919.80300194859
0.270294981161266,2919.81300194859
0.265982828544376,2919.82300194859
0.261886661334899,2919.83300194859
0.256161542548806,2919.84300194859
0.247992998027513,2919.85300194859
0.236515362901931,2919.86300194859
0.221233629980982,2919.87300194859
0.202749895797115,2919.88300194859
0.181811126397171,2919.89300194859
0.160374431161078,2919.90300194859
0.140352572297076,2919.91300194859
0.122062361698924,2919.92300194859
0.106267151165118,2919.93300194859
0.0925997484410746,2919.94300194859
0.0819132409216698,2919.95300194859
0.0723443358612138,2919.96300194859
0.0642891306087953,2919.97300194859
0.0564687407916129,2919.98300194859
0.049296268432822,2919.99300194859
0.0421666491420644,2920.00300194859
0.0347996768291986,2920.01300194859
0.0266504269798192,2920.02300194859
0.0167828798628616,2920.03300194859
0.00515230061779369,2920.04300194859
-0.00863038239833868,2920.05300194859
-0.0240590853620363,2920.06300194859
-0.0413429320959077,2920.07300194859
-0.0594669173544267,2920.08300194859
-0.0784303614056756,2920.09300194859
-0.0975677737703135,2920.10300194859
-0.11688504423215,2920.11300194859
-0.136832366487965,2920.12300194859
-0.156955566723196,2920.13300194859
-0.177811130450975,2920.14300194859
-0.198802217337769,2920.15300194859
-0.219887071593097,2920.16300194859
-0.240742710207761,2920.17300194859
-0.261429253518762,2920.18300194859
-0.282096716571427,2920.19300194859
-0.302434645520592,2920.20300194859
-0.322694543250993,2920.21300194859
-0.342888544021801,2920.22300194859
-0.363225997891469,2920.23300194859
-0.383431223992272,2920.24300194859
-0.403215619606184,2920.25300194859
-0.422301291365373,2920.26300194859
-0.44124450573222,2920.27300194859
-0.459824371140059,2920.28300194859
-0.478573237165048,2920.29300194859
-0.497203625817311,2920.30300194859
-0.51624877729501,2920.31300194859
-0.535134405131497,2920.32300194859
-0.553855231533419,2920.33300194859
-0.573008344659669,2920.34300194859
-0.59197555968486,2920.35300194859
-0.612223796950931,2920.36300194859
-0.631881184785909,2920.37300194859
-0.651848598151829,2920.38300194859
-0.671945258829769,2920.39300194859
-0.691719658882137,2920.40300194859
-0.711008239459636,2920.41300194859
-0.730275939952272,2920.42300194859
-0.748700755631504,2920.43300194859
-0.76711812415588,2920.44300194859
-0.785531183205154,2920.45300194859
-0.80372835304427,2920.46300194859
-0.822497265841178,2920.47300194859
-0.84127644688477,2920.48300194859
-0.860497528647426,2920.49300194859
-0.880476168800337,2920.50300194859
-0.901063249593215,2920.51300194859
-0.922143279173751,2920.52300194859
-0.94336660396474,2920.53300194859
-0.964606322355264,2920.54300194859
-0.984751546322022,2920.55300194859
-1.00202275655984,2920.56300194859
-1.01212507472019,2920.57300194859
-1.01268944924531,2920.58300194859
-1.00096698719951,2920.59300194859
-0.976370454532496,2920.60300194859
-0.941310938816528,2920.61300194859
-0.898545215103331,2920.62300194859
-0.851625744899859,2920.63300194859
-0.805244946387474,2920.64300194859
-0.762593256053009,2920.65300194859
-0.726426820698765,2920.66300194859
-0.697907625665516,2920.67300194859
-0.677902237682979,2920.68300194859
-0.666211110238995,2920.69300194859
-0.661330393607379,2920.70300194859
-0.662704761586497,2920.71300194859
-0.667843179530803,2920.72300194859
-0.675439707804861,2920.73300194859
-0.683961919038571,2920.74300194859
-0.69219766141149,2920.75300194859
-0.699685294607223,2920.76300194859
-0.706311438425824,2920.77300194859
-0.712558307011225,2920.78300194859
-0.717474036237254,2920.79300194859
-0.721487422008312,2920.80300194859
-0.72464215412322,2920.81300194859
-0.727380884556305,2920.82300194859
-0.730087194620052,2920.83300194859
-0.733576988232397,2920.84300194859
-0.739112198920073,2920.85300194859
-0.747338789709941,2920.86300194859
-0.758482230429967,2920.87300194859
-0.772200467425295,2920.88300194859
-0.787209939361471,2920.89300194859
-0.802751473421222,2920.90300194859
-0.817592886439554,2920.91300194859
-0.83155530264577,2920.92300194859
-0.844284015042412,2920.93300194859
-0.855797984164215,2920.94300194859
-0.86617368738511,2920.95300194859
-0.875575169627645,2920.96300194859
-0.884370856690701,2920.97300194859
-0.892771311105284,2920.98300194859
-0.901468499655132,2920.99300194859
-0.910707337221141,2921.00300194859
-0.920818158553002,2921.01300194859
-0.93159500610546,2921.02300194859
-0.942758912037726,2921.03300194859
-0.954579511244071,2921.04300194859
-0.967313007824346,2921.05300194859
-0.980778436863892,2921.06300194859
-0.995282023385034,2921.07300194859
-1.00985812670532,2921.08300194859
-1.02481669871556,2921.09300194859
-1.03953303237391,2921.10300194859
-1.05412380347393,2921.11300194859
-1.06963023277814,2921.12300194859
-1.0853853327747,2921.13300194859
-1.1016547427475,2921.14300194859
-1.11766480826498,2921.15300194859
-1.13306694503653,2921.16300194859
-1.14794300563476,2921.17300194859
-1.16234252048695,2921.18300194859
-1.1766425935805,2921.19300194859
-1.19104647784054,2921.20300194859
-1.204864737802,2921.21300194859
-1.21829994939311,2921.22300194859
-1.2314425639447,2921.23300194859
-1.24439062305983,2921.24300194859
-1.25745489322816,2921.25300194859
-1.27032201453447,2921.26300194859
-1.28387869513308,2921.27300194859
-1.2967734045475,2921.28300194859
-1.30973560332686,2921.29300194859
-1.32290237729795,2921.30300194859
-1.33547553853994,2921.31300194859
-1.34858217857412,2921.32300194859
-1.36121829919568,2921.33300194859
-1.37319155405483,2921.34300194859
-1.38561088527638,2921.35300194859
-1.39794658413414,2921.36300194859
-1.41053613898874,2921.37300194859
-1.4231233324176,2921.38300194859
-1.43585803051267,2921.39300194859
-1.44791028184154,2921.40300194859
-1.46038697484402,2921.41300194859
-1.47244305711148,2921.42300194859
-1.48401661248543,2921.43300194859
-1.49528981571163,2921.44300194859
-1.506076888667,2921.45300194859
-1.51728604683155,2921.46300194859
-1.52817429263229,2921.47300194859
-1.53908152281296,2921.48300194859
-1.54990227815555,2921.49300194859
-1.55997546985953,2921.50300194859
-1.57072329185155,2921.51300194859
-1.581661180571,2921.52300194859
-1.59271188508987,2921.53300194859
-1.60327081812023,2921.54300194859
-1.61394564536053,2921.55300194859
-1.62340951001572,2921.56300194859
-1.63235403307769,2921.57300194859
-1.63959105787375,2921.58300194859
-1.64203782572021,2921.59300194859
-1.63746817875121,2921.60300194859
-1.6241024973528,2921.61300194859
-1.60282704890964,2921.62300194859
-1.5756963542543,2921.63300194859
-1.54675817982991,2921.64300194859
-1.51939983581923,2921.65300194859
-1.49709611340368,2921.66300194859
-1.48111757179559,2921.67300194859
-1.47276037970181,2921.68300194859
-1.47134763894494,2921.69300194859
-1.47590291939947,2921.70300194859
-1.48347604137493,2921.71300194859
-1.49326428476533,2921.72300194859
-1.50332934064358,2921.73300194859
-1.51313422473059,2921.74300194859
-1.52210894948266,2921.75300194859
-1.5290581571023,2921.76300194859
-1.5347426619772,2921.77300194859
-1.53855789165946,2921.78300194859
-1.54086585474932,2921.79300194859
-1.54160571100482,2921.80300194859
-1.54090189383374,2921.81300194859
-1.53963940980886,2921.82300194859
-1.53813572828716,2921.83300194859
-1.53695573701423,2921.84300194859
-1.53688771150505,2921.85300194859
-1.53803997002643,2921.86300194859
-1.54123761541539,2921.87300194859
-1.54624391548449,2921.88300194859
-1.55280439343847,2921.89300194859
-1.5597907410586,2921.90300194859
-1.56649496747888,2921.91300194859
-1.57253986566791,2921.92300194859
-1.57729940249619,2921.93300194859
-1.58076891183722,2921.94300194859
-1.58369660275105,2921.95300194859
-1.58522082304521,2921.96300194859
-1.58596759651195,2921.97300194859
-1.5861804919446,2921.98300194859
-1.58638497313723,2921.99300194859
-1.58654544635002,2922.00300194859
-1.58661281910353,2922.01300194859
-1.5871742241413,2922.02300194859
-1.58868767465792,2922.03300194859
-1.59082937514069,2922.04300194859
-1.59375215891076,2922.05300194859
-1.5972664037364,2922.06300194859
-1.60158658167008,2922.07300194859
-1.60648780573699,2922.08300194859
-1.61153924398153,2922.09300194859
-1.61698252299569,2922.10300194859
-1.62308381851498,2922.11300194859
-1.62949478462527,2922.12300194859
-1.63572144558677,2922.13300194859
-1.64234188897884,2922.14300194859
-1.64864363817633,2922.15300194859
-1.65513698940719,2922.16300194859
-1.66077755038278,2922.17300194859
-1.66595720686461,2922.18300194859
-1.67078490703173,2922.19300194859
-1.6746951740986,2922.20300194859
-1.6779028463691,2922.21300194859
-1.6814071362881,2922.22300194859
-1.68437714794449,2922.23300194859
-1.68755514129378,2922.24300194859
-1.69086470793997,2922.25300194859
-1.69405580208138,2922.26300194859
-1.69752584605921,2922.27300194859
-1.70054302171576,2922.28300194859
-1.70324557499588,2922.29300194859
-1.70512435938784,2922.30300194859
-1.7073744005851,2922.31300194859
-1.71026846286563,2922.32300194859
-1.71357122074918,2922.33300194859
-1.71704192477612,2922.34300194859
-1.72101234772443,2922.35300194859
-1.72486476308112,2922.36300194859
-1.72834608310282,2922.37300194859
-1.73179098006775,2922.38300194859
-1.73504624984703,2922.39300194859
-1.73812665203655,2922.40300194859
-1.74131963896883,2922.41300194859
-1.74395072679356,2922.42300194859
-1.74667706751149,2922.43300194859
-1.74929391830485,2922.44300194859
-1.75232369447553,2922.45300194859
-1.7557939225456,2922.46300194859
-1.75953220658842,2922.47300194859
-1.76333133126949,2922.48300194859
-1.76726162155171,2922.49300194859
-1.77121516737597,2922.50300194859
-1.77616008325574,2922.51300194859
-1.78174378620965,2922.52300194859
-1.7872438226445,2922.53300194859
-1.79073401801744,2922.54300194859
-1.79159113960699,2922.55300194859
-1.78699791380573,2922.56300194859
-1.77561508962373,2922.57300194859
-1.75792163690936,2922.58300194859
-1.73409727847574,2922.59300194859
-1.70734293823984,2922.60300194859
-1.67988374621391,2922.61300194859
-1.65543905848714,2922.62300194859
-1.63606914754279,2922.63300194859
-1.62338500460905,2922.64300194859
-1.61774944001444,2922.65300194859
-1.61798222718444,2922.66300194859
-1.62277846023639,2922.67300194859
-1.63156497294634,2922.68300194859
-1.6414830080063,2922.69300194859
-1.65161306185724,2922.70300194859
-1.66024231980987,2922.71300194859
-1.666704721826,2922.72300194859
-1.67120259638747,2922.73300194859
-1.67317133172764,2922.74300194859
-1.67386234587058,2922.75300194859
-1.67286169388552,2922.76300194859
-1.67119326411554,2922.77300194859
-1.66859267603075,2922.78300194859
-1.66621694556079,2922.79300194859
-1.66406646862366,2922.80300194859
-1.66282998102918,2922.81300194859
-1.66203404171329,2922.82300194859
-1.66226575999839,2922.83300194859
-1.66426982355792,2922.84300194859
-1.66682167873223,2922.85300194859
-1.66964082639636,2922.86300194859
-1.67224907002523,2922.87300194859
-1.67311403880778,2922.88300194859
-1.67255209552542,2922.89300194859
-1.66963914023813,2922.90300194859
-1.66552231120919,2922.91300194859
-1.66040990754547,2922.92300194859
-1.65498806920942,2922.93300194859
-1.64919893175167,2922.94300194859
-1.6442345740607,2922.95300194859
-1.64027944619101,2922.96300194859
-1.63786429206771,2922.97300194859
-1.63661193280405,2922.98300194859
-1.63643246033381,2922.99300194859
-1.637526911325,2923.00300194859
-1.63864717787853,2923.01300194859
-1.64028889603388,2923.02300194859
-1.64197368827281,2923.03300194859
-1.64333323577904,2923.04300194859
-1.6450312884726,2923.05300194859
-1.64747077376323,2923.06300194859
-1.65019335998711,2923.07300194859
-1.65242365282178,2923.08300194859
-1.65425884080131,2923.09300194859
-1.65632503754134,2923.10300194859
-1.65821774015671,2923.11300194859
-1.66048448410477,2923.12300194859
-1.6632220355507,2923.13300194859
-1.66604101623493,2923.14300194859
-1.66895000932483,2923.15300194859
-1.6711811682538,2923.16300194859
-1.67303282905934,2923.17300194859
-1.67447898608295,2923.18300194859
-1.67509868252953,2923.19300194859
-1.67578354508292,2923.20300194859
-1.67543712801214,2923.21300194859
-1.67544419367419,2923.22300194859
-1.67468517992792,2923.23300194859
-1.6738264013446,2923.24300194859
-1.67308254579486,2923.25300194859
-1.67219819728408,2923.26300194859
-1.67147502020991,2923.27300194859
-1.67042353998222,2923.28300194859
-1.66920702940708,2923.29300194859
-1.66813775889228,2923.30300194859
-1.66728606470257,2923.31300194859
-1.6664541751087,2923.32300194859
-1.6663001105655,2923.33300194859
-1.66685271475661,2923.34300194859
-1.66793758538207,2923.35300194859
-1.67024959366578,2923.36300194859
-1.67268282768733,2923.37300194859
-1.67517919130515,2923.38300194859
-1.67803455127482,2923.39300194859
-1.67969390511851,2923.40300194859
-1.67928927968409,2923.41300194859
-1.67459498487545,2923.42300194859
-1.66394364631408,2923.43300194859
-1.64583599428312,2923.44300194859
-1.62120908837892,2923.45300194859
-1.59310631830169,2923.46300194859
-1.564282771756,2923.47300194859
-1.53839172872262,2923.48300194859
-1.51747753615568,2923.49300194859
-1.50332919075433,2923.50300194859
-1.49485188228929,2923.51300194859
-1.49238028488265,2923.52300194859
-1.49440148601576,2923.53300194859
-1.49896050109269,2923.54300194859
-1.50538942357708,2923.55300194859
-1.51236375621479,2923.56300194859
-1.51894004174689,2923.57300194859
-1.52421831001276,2923.58300194859
-1.52830184909947,2923.59300194859
-1.52978950092847,2923.60300194859
-1.52867382424438,2923.61300194859
-1.52546792913691,2923.62300194859
-1.52022067627528,2923.63300194859
-1.51436441472453,2923.64300194859
-1.50805145259594,2923.65300194859
-1.50240712968569,2923.66300194859
-1.49747992671448,2923.67300194859
-1.49374992676465,2923.68300194859
-1.49177009165575,2923.69300194859
-1.49170155548243,2923.70300194859
-1.49302759703143,2923.71300194859
-1.49568808747517,2923.72300194859
-1.4988938838195,2923.73300194859
-1.50088865904564,2923.74300194859
-1.50130439449878,2923.75300194859
-1.49991236837627,2923.76300194859
-1.49609641825504,2923.77300194859
-1.49101174414875,2923.78300194859
-1.48465853480188,2923.79300194859
-1.47819366013557,2923.80300194859
-1.47260513134238,2923.81300194859
-1.46719695821473,2923.82300194859
-1.46251017755443,2923.83300194859
-1.45850013193125,2923.84300194859
-1.45539598220208,2923.85300194859
-1.45330638119773,2923.86300194859
-1.45228564909514,2923.87300194859
-1.45143572807735,2923.88300194859
-1.45117455758005,2923.89300194859
-1.45054660459334,2923.90300194859
-1.4502448328086,2923.91300194859
-1.45019695326736,2923.92300194859
-1.45072456827644,2923.93300194859
-1.45206149110921,2923.94300194859
-1.45392912904364,2923.95300194859
-1.45605336195101,2923.96300194859
-1.45783379440334,2923.97300194859
-1.45896241494031,2923.98300194859
-1.45896162009031,2923.99300194859
-1.45866735551063,2924.00300194859
-1.45790706436597,2924.01300194859
-1.45620579887085,2924.02300194859
-1.45469663079341,2924.03300194859
-1.4528023262393,2924.04300194859
-1.45016119415743,2924.05300194859
-1.44691940831933,2924.06300194859
-1.44339043232178,2924.07300194859
-1.44039426415553,2924.08300194859
-1.43809607966959,2924.09300194859
-1.43626434181333,2924.10300194859
-1.43475973313483,2924.11300194859
-1.43366897031805,2924.12300194859
-1.43281027348782,2924.13300194859
-1.43251981729863,2924.14300194859
-1.43228049554645,2924.15300194859
-1.43250615077835,2924.16300194859
-1.433320415121,2924.17300194859
-1.43412722090195,2924.18300194859
-1.43487729785885,2924.19300194859
-1.43543042664939,2924.20300194859
-1.43596477284552,2924.21300194859
-1.43702787325113,2924.22300194859
-1.43888129414712,2924.23300194859
-1.44023139618701,2924.24300194859
-1.44165537002623,2924.25300194859
-1.44263542133261,2924.26300194859
-1.44122493675993,2924.27300194859
-1.4367641272117,2924.28300194859
-1.42697875102708,2924.29300194859
-1.40984653296945,2924.30300194859
-1.38544475640046,2924.31300194859
-1.35542915136819,2924.32300194859
-1.32236566848854,2924.33300194859
-1.29065439686865,2924.34300194859
-1.2633054984906,2924.35300194859
-1.24237128648657,2924.36300194859
-1.22948935232975,2924.37300194859
-1.22347234337793,2924.38300194859
-1.22368340829314,2924.39300194859
-1.22722731076326,2924.40300194859
-1.23255647588731,2924.41300194859
-1.2380284495393,2924.42300194859
-1.24223959998167,2924.43300194859
-1.24412798757619,2924.44300194859
-1.24338534968834,2924.45300194859
-1.2400479581718,2924.46300194859
-1.23508903195474,2924.47300194859
-1.22895472202841,2924.48300194859
-1.22181326786418,2924.49300194859
-1.2144318821742,2924.50300194859
-1.20697826493752,2924.51300194859
-1.1998760274509,2924.52300194859
-1.19313892926923,2924.53300194859
-1.1873213035933,2924.54300194859
-1.18290404384641,2924.55300194859
-1.18007245161855,2924.56300194859
-1.17924161236267,2924.57300194859
-1.18069939508536,2924.58300194859
-1.18446419968634,2924.59300194859
-1.18918989807029,2924.60300194859
-1.19363566732237,2924.61300194859
-1.1966966983433,2924.62300194859
-1.19831719165985,2924.63300194859
-1.19751138627944,2924.64300194859
-1.19549575374866,2924.65300194859
-1.1919097496209,2924.66300194859
-1.18715566302052,2924.67300194859
-1.1816885881843,2924.68300194859
-1.17619713807563,2924.69300194859
-1.17061836716819,2924.70300194859
-1.16529155295824,2924.71300194859
-1.1602968343178,2924.72300194859
-1.15577791349996,2924.73300194859
-1.1518336958894,2924.74300194859
-1.14788021623353,2924.75300194859
-1.14417583100218,2924.76300194859
-1.14195448726426,2924.77300194859
-1.14050791697012,2924.78300194859
-1.14093326959495,2924.79300194859
-1.14291997796848,2924.80300194859
-1.14487798300053,2924.81300194859
-1.1476522332314,2924.82300194859
-1.15070040549905,2924.83300194859
-1.15368814921897,2924.84300194859
-1.15581337185924,2924.85300194859
-1.1572883752954,2924.86300194859
-1.1582541566914,2924.87300194859
-1.15890809378133,2924.88300194859
-1.15907877451069,2924.89300194859
-1.15900856374254,2924.90300194859
-1.15864040051161,2924.91300194859
-1.15830007698019,2924.92300194859
-1.15759815355225,2924.93300194859
-1.15630046566177,2924.94300194859
-1.15486284553298,2924.95300194859
-1.15272597060528,2924.96300194859
-1.15062575583723,2924.97300194859
-1.14876820019337,2924.98300194859
-1.14674091267672,2924.99300194859
-1.14506396685401,2925.00300194859
-1.14362601945241,2925.01300194859
-1.14287720007595,2925.02300194859
-1.14273032244337,2925.03300194859
-1.1425118231588,2925.04300194859
-1.14264545810252,2925.05300194859
-1.14223065525024,2925.06300194859
-1.14207639008441,2925.07300194859
-1.14172741053625,2925.08300194859
-1.14094012373433,2925.09300194859
-1.14019400585578,2925.10300194859
-1.13953733944439,2925.11300194859
-1.13908123162399,2925.12300194859
-1.13855355732331,2925.13300194859
-1.13819533644787,2925.14300194859
-1.138063418827,2925.15300194859
-1.1382978465238,2925.16300194859
-1.13934978120311,2925.17300194859
-1.13996062298166,2925.18300194859
-1.141080421033,2925.19300194859
-1.14256122011546,2925.20300194859
-1.14348814125832,2925.21300194859
-1.14411497332166,2925.22300194859
-1.14378329359251,2925.23300194859
-1.14019795339419,2925.24300194859
-1.13231936051459,2925.25300194859
-1.11820313249656,2925.26300194859
-1.09709804239456,2925.27300194859
-1.07017071091695,2925.28300194859
-1.04027188092982,2925.29300194859
-1.01047701811744,2925.30300194859
-0.984829485073938,2925.31300194859
-0.965120404012053,2925.32300194859
-0.952634754575702,2925.33300194859
-0.946629982560483,2925.34300194859
-0.946509310993404,2925.35300194859
-0.949977035240575,2925.36300194859
-0.95593112770518,2925.37300194859
-0.961348052278548,2925.38300194859
-0.965831675508684,2925.39300194859
-0.968860140319219,2925.40300194859
-0.969470123522413,2925.41300194859
-0.967420690785318,2925.42300194859
-0.963816734492306,2925.43300194859
-0.958911037984301,2925.44300194859
-0.952738776291108,2925.45300194859
-0.94619091874442,2925.46300194859
-0.938712585827243,2925.47300194859
-0.931242192387854,2925.48300194859
-0.924885514731979,2925.49300194859
-0.919315000069539,2925.50300194859
-0.915268244348593,2925.51300194859
-0.912512520750292,2925.52300194859
-0.912119610424583,2925.53300194859
-0.913949439413489,2925.54300194859
-0.917529631162785,2925.55300194859
-0.92203723526638,2925.56300194859
-0.926861456432841,2925.57300194859
-0.930892191597775,2925.58300194859
-0.933419477730303,2925.59300194859
-0.934391760410278,2925.60300194859
-0.933584172161696,2925.61300194859
-0.931113718892539,2925.62300194859
-0.927809541753464,2925.63300194859
-0.923581996571569,2925.64300194859
-0.919324830341565,2925.65300194859
-0.915408929553075,2925.66300194859
-0.911588411892384,2925.67300194859
-0.908914899373561,2925.68300194859
-0.90669399911575,2925.69300194859
-0.905257707889501,2925.70300194859
-0.904341881273595,2925.71300194859
-0.903960682269257,2925.72300194859
-0.904027253009145,2925.73300194859
-0.904160777100484,2925.74300194859
-0.904587181238678,2925.75300194859
-0.905147919113649,2925.76300194859
-0.906335006688254,2925.77300194859
-0.907626287953895,2925.78300194859
-0.909281062077291,2925.79300194859
-0.911121203038443,2925.80300194859
-0.912502475540679,2925.81300194859
-0.913502122314733,2925.82300194859
-0.914321574637161,2925.83300194859
-0.914953123311277,2925.84300194859
-0.915178126726752,2925.85300194859
-0.915940490591099,2925.86300194859
-0.916283234150282,2925.87300194859
-0.916608426281297,2925.88300194859
-0.916270277012135,2925.89300194859
-0.916018108664928,2925.90300194859
-0.915596120801797,2925.91300194859
-0.914554770783338,2925.92300194859
-0.914224392555483,2925.93300194859
-0.913737241779728,2925.94300194859
-0.913586713349391,2925.95300194859
-0.913583853167977,2925.96300194859
-0.913310644484021,2925.97300194859
-0.91285608320967,2925.98300194859
-0.912410614491831,2925.99300194859
-0.91186367722355,2926.00300194859
-0.911684065723202,2926.01300194859
-0.911773468041199,2926.02300194859
-0.912498338070892,2926.03300194859
-0.913722432428661,2926.04300194859
-0.914982501824148,2926.05300194859
-0.915679363900968,2926.06300194859
-0.916164866270875,2926.07300194859
-0.916473702044255,2926.08300194859
-0.916836224121481,2926.09300194859
-0.917594966020098,2926.10300194859
-0.918268447771255,2926.11300194859
-0.919435139311833,2926.12300194859
-0.920724121559396,2926.13300194859
-0.922580235393,2926.14300194859
-0.924434989165103,2926.15300194859
-0.925901229749799,2926.16300194859
-0.927239296306841,2926.17300194859
-0.928780200296312,2926.18300194859
-0.929280319716149,2926.19300194859
-0.929351727432059,2926.20300194859
-0.929300104085266,2926.21300194859
-0.929163401665802,2926.22300194859
-0.928951709443602,2926.23300194859
-0.928919614319379,2926.24300194859
-0.929395315749808,2926.25300194859
-0.930135142871915,2926.26300194859
-0.931267875479163,2926.27300194859
-0.932459977920809,2926.28300194859
-0.933535892496743,2926.29300194859
-0.934956913590127,2926.30300194859
-0.935951247176592,2926.31300194859
-0.936862295233117,2926.32300194859
-0.937389968262582,2926.33300194859
-0.937910527947373,2926.34300194859
-0.938655646597272,2926.35300194859
-0.938501062667685,2926.36300194859
-0.936613882063329,2926.37300194859
-0.931087364642871,2926.38300194859
-0.919997619117166,2926.39300194859
-0.902316725481819,2926.40300194859
-0.878696381810101,2926.41300194859
-0.850231908720238,2926.42300194859
-0.821186827326807,2926.43300194859
-0.794109826888448,2926.44300194859
-0.772317958045137,2926.45300194859
-0.75648574770819,2926.46300194859
-0.746980894725599,2926.47300194859
-0.743633142450262,2926.48300194859
-0.744751591276413,2926.49300194859
-0.749286529754174,2926.50300194859
-0.755315444527775,2926.51300194859
-0.761056066887752,2926.52300194859
-0.766152527224469,2926.53300194859
-0.769383671531006,2926.54300194859
-0.77045211112064,2926.55300194859
-0.769453624299334,2926.56300194859
-0.766224609531634,2926.57300194859
-0.761558682209919,2926.58300194859
-0.75500464254097,2926.59300194859
-0.747113129536031,2926.60300194859
-0.738302700596114,2926.61300194859
-0.729067388022844,2926.62300194859
-0.721027744774942,2926.63300194859
-0.714934658717436,2926.64300194859
-0.711005803127852,2926.65300194859
-0.709615711400035,2926.66300194859
-0.710113066108427,2926.67300194859
-0.712949428250164,2926.68300194859
-0.717439539192824,2926.69300194859
-0.7223501866941,2926.70300194859
-0.72712475471839,2926.71300194859
-0.730731805155906,2926.72300194859
-0.73255272011086,2926.73300194859
-0.732216361151604,2926.74300194859
-0.730320473380366,2926.75300194859
-0.727248712413955,2926.76300194859
-0.72301006381441,2926.77300194859
-0.717949668135331,2926.78300194859
-0.712872772198514,2926.79300194859
-0.707593050570119,2926.80300194859
-0.702754209013081,2926.81300194859
-0.698862066771023,2926.82300194859
-0.696444158980725,2926.83300194859
-0.695304192558513,2926.84300194859
-0.69456694452274,2926.85300194859
-0.694395157992124,2926.86300194859
-0.694073624367855,2926.87300194859
-0.693787782903802,2926.88300194859
-0.693919479592383,2926.89300194859
-0.694584327735044,2926.90300194859
-0.694936893946353,2926.91300194859
-0.695083429662337,2926.92300194859
-0.696047686213068,2926.93300194859
-0.696877968006733,2926.94300194859
-0.697935127115655,2926.95300194859
-0.699010623708916,2926.96300194859
-0.700162941961148,2926.97300194859
-0.700993406775318,2926.98300194859
-0.70170250928858,2926.99300194859
-0.701829617081236,2927.00300194859
-0.702303931450652,2927.01300194859
-0.703042296158681,2927.02300194859
-0.702973724532927,2927.03300194859
-0.703127089164856,2927.04300194859
-0.702529730156194,2927.05300194859
-0.702139545788401,2927.06300194859
-0.701879138946582,2927.07300194859
-0.702129805815094,2927.08300194859
-0.702641934300106,2927.09300194859
-0.703352129350659,2927.10300194859
-0.703863238833392,2927.11300194859
-0.703850646115145,2927.12300194859
-0.703710663605795,2927.13300194859
-0.702768101099207,2927.14300194859
-0.702302279956025,2927.15300194859
-0.702395435280076,2927.16300194859
-0.70347383163888,2927.17300194859
-0.704378789044397,2927.18300194859
-0.705166423092045,2927.19300194859
-0.706221182108182,2927.20300194859
-0.706986864061959,2927.21300194859
-0.707980478632481,2927.22300194859
-0.708048470901767,2927.23300194859
-0.708548425184223,2927.24300194859
-0.709164438566515,2927.25300194859
-0.710099686028654,2927.26300194859
-0.711432450534926,2927.27300194859
-0.712645338837063,2927.28300194859
-0.714220862807942,2927.29300194859
-0.715109951366457,2927.30300194859
-0.71545642525316,2927.31300194859
-0.714638650148811,2927.32300194859
-0.71409134894189,2927.33300194859
-0.71365626823102,2927.34300194859
-0.713299796376281,2927.35300194859
-0.713801624622998,2927.36300194859
-0.714442728687697,2927.37300194859
-0.715393198854359,2927.38300194859
-0.716451072988387,2927.39300194859
-0.717302995988588,2927.40300194859
-0.718454111228969,2927.41300194859
-0.720010052513418,2927.42300194859
-0.721552607441981,2927.43300194859
-0.723809018991877,2927.44300194859
-0.725588481358545,2927.45300194859
-0.726269488559729,2927.46300194859
-0.724732370213388,2927.47300194859
-0.719278177504138,2927.48300194859
-0.707805441404317,2927.49300194859
-0.689837929899243,2927.50300194859
-0.666324038530461,2927.51300194859
-0.63896318022986,2927.52300194859
-0.611606713282139,2927.53300194859
-0.586437773305101,2927.54300194859
-0.566025236938535,2927.55300194859
-0.552005363821391,2927.56300194859
-0.544072289204675,2927.57300194859
-0.541854873620757,2927.58300194859
-0.54387037978723,2927.59300194859
-0.548174701793783,2927.60300194859
-0.553235039596885,2927.61300194859
-0.55782752831178,2927.62300194859
-0.560965949204239,2927.63300194859
-0.562581618982284,2927.64300194859
-0.561994772694389,2927.65300194859
-0.55915327458032,2927.66300194859
-0.555207938654027,2927.67300194859
-0.55072112703283,2927.68300194859
-0.545216776138019,2927.69300194859
-0.539494226945466,2927.70300194859
-0.53314230193974,2927.71300194859
-0.526375738910672,2927.72300194859
-0.519804006711283,2927.73300194859
-0.513817276969081,2927.74300194859
-0.509676396470398,2927.75300194859
-0.50713743707686,2927.76300194859
-0.506712857615813,2927.77300194859
-0.507194335824325,2927.78300194859
-0.508427663232467,2927.79300194859
-0.509277191351299,2927.80300194859
-0.509006028098288,2927.81300194859
-0.507114636660219,2927.82300194859
-0.504049432138123,2927.83300194859
-0.500150580345195,2927.84300194859
-0.495457909187453,2927.85300194859
-0.490537244760342,2927.86300194859
-0.485187229328427,2927.87300194859
-0.479634882954857,2927.88300194859
-0.474011660972712,2927.89300194859
-0.468772338547861,2927.90300194859
-0.464515257522098,2927.91300194859
-0.460969580087047,2927.92300194859
-0.458693496170304,2927.93300194859
-0.457078266584942,2927.94300194859
-0.455921921800048,2927.95300194859
-0.455055701106737,2927.96300194859
-0.454468373817701,2927.97300194859
-0.453972688513406,2927.98300194859
-0.453656999099539,2927.99300194859
-0.453741854355373,2928.00300194859
-0.453673300240851,2928.01300194859
-0.453496447947088,2928.02300194859
-0.453933303037311,2928.03300194859
-0.454345306435976,2928.04300194859
-0.455292490964181,2928.05300194859
-0.456473879498059,2928.06300194859
-0.457100149652545,2928.07300194859
-0.457313302333749,2928.08300194859
-0.457247903002505,2928.09300194859
-0.456648683660883,2928.10300194859
-0.455374548511225,2928.11300194859
-0.453564717905767,2928.12300194859
-0.451860963944552,2928.13300194859
-0.449921441909111,2928.14300194859
-0.448015626771522,2928.15300194859
-0.446563754716452,2928.16300194859
-0.445142646287778,2928.17300194859
-0.44416680231608,2928.18300194859
-0.443555171168846,2928.19300194859
-0.443257249688855,2928.20300194859
-0.442572892990943,2928.21300194859
-0.441674217518165,2928.22300194859
-0.440726709472069,2928.23300194859
-0.439868364257106,2928.24300194859
-0.439185128694075,2928.25300194859
-0.438302017929796,2928.26300194859
-0.437004323514365,2928.27300194859
-0.436072600484067,2928.28300194859
-0.435398075335213,2928.29300194859
-0.435211056573571,2928.30300194859
-0.435586786674305,2928.31300194859
-0.436364639682536,2928.32300194859
-0.437120324182934,2928.33300194859
-0.437636181691144,2928.34300194859
-0.437383338050296,2928.35300194859
-0.435696095059632,2928.36300194859
-0.430674374768938,2928.37300194859
-0.420855992684214,2928.38300194859
-0.404726718830108,2928.39300194859
-0.383314627063914,2928.40300194859
-0.358200078828919,2928.41300194859
-0.330919702450117,2928.42300194859
-0.304258785494438,2928.43300194859
-0.279577309734705,2928.44300194859
-0.258553709073051,2928.45300194859
-0.242752516284851,2928.46300194859
-0.231804519283334,2928.47300194859
-0.225684701498169,2928.48300194859
-0.22282269494087,2928.49300194859
-0.222171615255904,2928.50300194859
-0.221263124774007,2928.51300194859
-0.219365851762945,2928.52300194859
-0.214943014318631,2928.53300194859
-0.208892077779931,2928.54300194859
-0.20085858412142,2928.55300194859
-0.190683695535805,2928.56300194859
-0.179806484709337,2928.57300194859
-0.168378796177109,2928.58300194859
-0.157068085116745,2928.59300194859
-0.145849369863087,2928.60300194859
-0.135084404249879,2928.61300194859
-0.124236503224738,2928.62300194859
-0.114318769835472,2928.63300194859
-0.104903226899726,2928.64300194859
-0.0974014847499177,2928.65300194859
-0.0919565551539129,2928.66300194859
-0.0883294738610964,2928.67300194859
-0.0865590417352858,2928.68300194859
-0.0857710777409054,2928.69300194859
-0.0844137686947428,2928.70300194859
-0.0816682096622204,2928.71300194859
-0.0770831314169884,2928.72300194859
-0.0712810580768716,2928.73300194859
-0.064036611238297,2928.74300194859
-0.0562830698638723,2928.75300194859
-0.0485886053306446,2928.76300194859
-0.0409188038356051,2928.77300194859
-0.0338675915116235,2928.78300194859
-0.0272571102912752,2928.79300194859
-0.021157090546747,2928.80300194859
-0.0153009862966107,2928.81300194859
-0.0100827852123246,2928.82300194859
-0.00581727444121297,2928.83300194859
-0.00230527698225181,2928.84300194859
0.000829426184781102,2928.85300194859
0.00327912360405909,2928.86300194859
0.00570940206143905,2928.87300194859
0.00737817815930857,2928.88300194859
0.0083983792739475,2928.89300194859
0.00924581596448632,2928.90300194859
0.00920723071645418,2928.91300194859
0.00866460709921888,2928.92300194859
0.00789177817025112,2928.93300194859
0.00718670011977327,2928.94300194859
0.0065828743798126,2928.95300194859
0.00588847851200002,2928.96300194859
0.00549738452134686,2928.97300194859
0.00544085624970391,2928.98300194859
0.00588707296131396,2928.99300194859
0.00664165196327062,2929.00300194859
0.00698925417149496,2929.01300194859
0.00739776314876046,2929.02300194859
0.00782418756664317,2929.03300194859
0.00779776421668649,2929.04300194859
0.00770907149439783,2929.05300194859
0.00796986490362125,2929.06300194859
0.00853297848877318,2929.07300194859
0.00843588453685962,2929.08300194859
0.00799016952542323,2929.09300194859
0.00739000065513634,2929.10300194859
0.00642050494091914,2929.11300194859
0.00576062237060824,2929.12300194859
0.0056394685459121,2929.13300194859
0.00477034352145175,2929.14300194859
0.00393668769292037,2929.15300194859
0.00289084525619849,2929.16300194859
0.00114521561159283,2929.17300194859
-0.000877989936732924,2929.18300194859
-0.00339904755950865,2929.19300194859
-0.00593826995481836,2929.20300194859
-0.00868423067496968,2929.21300194859
-0.0112913237746924,2929.22300194859
-0.0134368258894359,2929.23300194859
-0.0151200213621273,2929.24300194859
-0.0161496716494949,2929.25300194859
-0.0174707406655566,2929.26300194859
-0.018740364633923,2929.27300194859
-0.0202755761186029,2929.28300194859
-0.0222850120154161,2929.29300194859
-0.0243889594111438,2929.30300194859
-0.0272753470936759,2929.31300194859
-0.0298191079303339,2929.32300194859
-0.0323020971794616,2929.33300194859
-0.0348961402475654,2929.34300194859
-0.0375211815603633,2929.35300194859
-0.0406560730350276,2929.36300194859
-0.0437051035161434,2929.37300194859
-0.0463415737191417,2929.38300194859
-0.0468523493135527,2929.39300194859
-0.0441699053003191,2929.40300194859
-0.0356508223952291,2929.41300194859
-0.0206942991628068,2929.42300194859
0.00151803297075085,2929.43300194859
0.0293330789322726,2929.44300194859
0.0609870700185721,2929.45300194859
0.0928240275052838,2929.46300194859
0.12296287692766,2929.47300194859
0.149004102038671,2929.48300194859
0.16979184202217,2929.49300194859
0.185185616359868,2929.50300194859
0.195682941745206,2929.51300194859
0.202721336384757,2929.52300194859
0.207202627298191,2929.53300194859
0.210251197701614,2929.54300194859
0.21317428363236,2929.55300194859
0.216890744030011,2929.56300194859
0.222238724770439,2929.57300194859
0.230076144061983,2929.58300194859
0.239993482686507,2929.59300194859
0.25124435225855,2929.60300194859
0.263971022565546,2929.61300194859
0.277651285558084,2929.62300194859
0.292210186720671,2929.63300194859
0.307324399862843,2929.64300194859
0.322553565702739,2929.65300194859
0.336717813321602,2929.66300194859
0.350555426230341,2929.67300194859
0.362118938643624,2929.68300194859
0.371688601517382,2929.69300194859
0.378332046139315,2929.70300194859
0.382293955119512,2929.71300194859
0.383985258567208,2929.72300194859
0.384767051888893,2929.73300194859
0.385531371592113,2929.74300194859
0.387240846466449,2929.75300194859
0.389575803319443,2929.76300194859
0.393268910569882,2929.77300194859
0.397970515866377,2929.78300194859
0.403106713912028,2929.79300194859
0.40919609096794,2929.80300194859
0.41590784878202,2929.81300194859
0.422338353563824,2929.82300194859
0.428559717963472,2929.83300194859
0.434469336409992,2929.84300194859
0.439453790648142,2929.85300194859
0.443929014747201,2929.86300194859
0.446916445045751,2929.87300194859
0.448829370603434,2929.88300194859
0.44928354438146,2929.89300194859
0.44948257578823,2929.90300194859
0.448939194055242,2929.91300194859
0.44762362671164,2929.92300194859
0.445842527958816,2929.93300194859
0.443678680237979,2929.94300194859
0.441413002892075,2929.95300194859
0.438948327427315,2929.96300194859
0.436226024414391,2929.97300194859
0.433197935345794,2929.98300194859
0.429598803507808,2929.99300194859
0.425764795166109,2930.00300194859
0.421820974604281,2930.01300194859
0.417868249685476,2930.02300194859
0.414553845458344,2930.03300194859
0.41123853825316,2930.04300194859
0.407796004197591,2930.05300194859
0.404058748739968,2930.06300194859
0.400692427093932,2930.07300194859
0.396969757975813,2930.08300194859
0.393283161270015,2930.09300194859
0.389074660513942,2930.10300194859
0.384590939987083,2930.11300194859
0.380516491986934,2930.12300194859
0.376991133607405,2930.13300194859
0.373641218163346,2930.14300194859
0.370048710009329,2930.15300194859
0.366615421743292,2930.16300194859
0.362389706861023,2930.17300194859
0.357625556728848,2930.18300194859
0.352350104683472,2930.19300194859
0.346584566675285,2930.20300194859
0.340960203284128,2930.21300194859
0.334688784125358,2930.22300194859
0.328639643389593,2930.23300194859
0.323278414012081,2930.24300194859
0.318267768423043,2930.25300194859
0.313417871236469,2930.26300194859
0.308897461122345,2930.27300194859
0.304427225108815,2930.28300194859
0.299475272534883,2930.29300194859
0.294032245418751,2930.30300194859
0.287969662395444,2930.31300194859
0.281798289935747,2930.32300194859
0.275533719512524,2930.33300194859
0.269776220922756,2930.34300194859
0.263942727680403,2930.35300194859
0.258337508849624,2930.36300194859
0.253128715065818,2930.37300194859
0.247864208032951,2930.38300194859
0.242377043319699,2930.39300194859
0.237065029707032,2930.40300194859
0.231165414467226,2930.41300194859
0.225388163130874,2930.42300194859
0.219545321699472,2930.43300194859
0.213676379132989,2930.44300194859
0.208137002809524,2930.45300194859
0.202981086606158,2930.46300194859
0.197810145117093,2930.47300194859
0.192671734385291,2930.48300194859
0.187136716605514,2930.49300194859
0.181070877920662,2930.50300194859
0.175366199780085,2930.51300194859
0.169692589163458,2930.52300194859
0.164799461858699,2930.53300194859
0.160866222780947,2930.54300194859
0.159544887546417,2930.55300194859
0.163623181107948,2930.56300194859
0.174007661392004,2930.57300194859
0.191653824147741,2930.58300194859
0.216667006494328,2930.59300194859
0.246553176235085,2930.60300194859
0.278881557097999,2930.61300194859
0.311145862991966,2930.62300194859
0.34074699594774,2930.63300194859
0.366142143617961,2930.64300194859
0.386167134345643,2930.65300194859
0.400621174792679,2930.66300194859
0.410410724444273,2930.67300194859
0.417361842407204,2930.68300194859
0.422201817536937,2930.69300194859
0.425862904181615,2930.70300194859
0.429819170930703,2930.71300194859
0.433770052989115,2930.72300194859
0.438806369011684,2930.73300194859
0.444933470418483,2930.74300194859
0.452121486884107,2930.75300194859
0.460676205959923,2930.76300194859
0.469829895030516,2930.77300194859
0.480341460257598,2930.78300194859
0.492050268815283,2930.79300194859
0.503790151587285,2930.80300194859
0.5158347585186,2930.81300194859
0.525941097815846,2930.82300194859
0.535103061533633,2930.83300194859
0.542277264299799,2930.84300194859
0.547111220377552,2930.85300194859
0.549160909455888,2930.86300194859
0.549172021003542,2930.87300194859
0.547591445458438,2930.88300194859
0.545809625798911,2930.89300194859
0.543596083234653,2930.90300194859
0.542540175641534,2930.91300194859
0.542229448524926,2930.92300194859
0.542439191474297,2930.93300194859
0.543657751928223,2930.94300194859
0.545580973340798,2930.95300194859
0.548676966434783,2930.96300194859
0.552328345803697,2930.97300194859
0.555968894167818,2930.98300194859
0.559684164426247,2930.99300194859
0.562747362728368,2931.00300194859
0.564577807351014,2931.01300194859
0.565309180970143,2931.02300194859
0.565067978998899,2931.03300194859
0.563554739652506,2931.04300194859
0.561277494724556,2931.05300194859
0.558040593946238,2931.06300194859
0.55417149100496,2931.07300194859
0.549291607608486,2931.08300194859
0.543150486419688,2931.09300194859
0.536897371025751,2931.10300194859
0.530052203257568,2931.11300194859
0.523070023795988,2931.12300194859
0.516191771384405,2931.13300194859
0.509235976289549,2931.14300194859
0.502435777863881,2931.15300194859
0.495190956893622,2931.16300194859
0.488234101023638,2931.17300194859
0.481984265798572,2931.18300194859
0.475978813181242,2931.19300194859
0.469861573442337,2931.20300194859
0.463351214746469,2931.21300194859
0.455677787846737,2931.22300194859
0.448421393029212,2931.23300194859
0.440907023059103,2931.24300194859
0.434120128316331,2931.25300194859
0.427314417372742,2931.26300194859
0.42051248425629,2931.27300194859
0.413893232081917,2931.28300194859
0.407410799420731,2931.29300194859
0.400727983336184,2931.30300194859
0.394014659514201,2931.31300194859
0.387144068383268,2931.32300194859
0.380254128540751,2931.33300194859
0.373510872728244,2931.34300194859
0.366557154641749,2931.35300194859
0.359603681991864,2931.36300194859
0.352262058853441,2931.37300194859
0.344914167047874,2931.38300194859
0.3378314932529,2931.39300194859
0.329938212846216,2931.40300194859
0.322117234660825,2931.41300194859
0.314145903919816,2931.42300194859
0.305935049919721,2931.43300194859
0.29760914882724,2931.44300194859
0.288987592442632,2931.45300194859
0.281252861301278,2931.46300194859
0.273661622090299,2931.47300194859
0.26600341688389,2931.48300194859
0.258541254670049,2931.49300194859
0.250314505526724,2931.50300194859
0.242166563028887,2931.51300194859
0.233565066241455,2931.52300194859
0.225292434196152,2931.53300194859
0.217202074152926,2931.54300194859
0.209462946299471,2931.55300194859
0.202465821984692,2931.56300194859
0.196497529168699,2931.57300194859
0.190615160351966,2931.58300194859
0.18408675427517,2931.59300194859
0.177146786933078,2931.60300194859
0.169166249541797,2931.61300194859
0.160831909764162,2931.62300194859
0.15246268852001,2931.63300194859
0.144951681141827,2931.64300194859
0.138756101992884,2931.65300194859
0.135470932514241,2931.66300194859
0.13692670117317,2931.67300194859
0.144620617464845,2931.68300194859
0.159641838541638,2931.69300194859
0.181363373270911,2931.70300194859
0.207960749696083,2931.71300194859
0.237016626203566,2931.72300194859
0.265680374937049,2931.73300194859
0.292471887986687,2931.74300194859
0.315586686217435,2931.75300194859
0.333536087970376,2931.76300194859
0.347036391105794,2931.77300194859
0.355694066579483,2931.78300194859
0.361197495574415,2931.79300194859
0.364606628813285,2931.80300194859
0.366831358633662,2931.81300194859
0.368565849116698,2931.82300194859
0.370714389507057,2931.83300194859
0.373789548922168,2931.84300194859
0.376979497374571,2931.85300194859
0.381219559037664,2931.86300194859
0.386908969505659,2931.87300194859
0.392804270273523,2931.88300194859
0.399717260680533,2931.89300194859
0.40644726824192,2931.90300194859
0.413617281262826,2931.91300194859
0.420456323447973,2931.92300194859
0.427104059967492,2931.93300194859
0.432877397428634,2931.94300194859
0.436584629540362,2931.95300194859
0.437638987957717,2931.96300194859
0.436837071208095,2931.97300194859
0.434583955401729,2931.98300194859
0.43155080568425,2931.99300194859
0.428703870104102,2932.00300194859
0.427196999677797,2932.01300194859
0.426933047226704,2932.02300194859
0.427789202638748,2932.03300194859
0.429786145940624,2932.04300194859
0.432470931872622,2932.05300194859
0.435272219931026,2932.06300194859
0.438724366315999,2932.07300194859
0.441578946748244,2932.08300194859
0.444692504439475,2932.09300194859
0.447774170505587,2932.10300194859
0.449978931786943,2932.11300194859
0.451133638806042,2932.12300194859
0.450919983300849,2932.13300194859
0.449798081380086,2932.14300194859
0.447776458975564,2932.15300194859
0.445257979977824,2932.16300194859
0.44251906224544,2932.17300194859
0.438723883700779,2932.18300194859
0.434016131579561,2932.19300194859
0.428352109926079,2932.20300194859
0.421823303427531,2932.21300194859
0.414587716402642,2932.22300194859
0.407676326048019,2932.23300194859
0.400889960158722,2932.24300194859
0.394204497653492,2932.25300194859
0.387597280956762,2932.26300194859
0.380467367672702,2932.27300194859
0.373003490323321,2932.28300194859
0.365645003927162,2932.29300194859
0.358076490109691,2932.30300194859
0.350804870658331,2932.31300194859
0.344234687716986,2932.32300194859
0.337858123235935,2932.33300194859
0.331198584025935,2932.34300194859
0.324181388421444,2932.35300194859
0.317100655327425,2932.36300194859
0.309952377796871,2932.37300194859
0.302984201391857,2932.38300194859
0.296444265347093,2932.39300194859
0.290219000522609,2932.40300194859
0.284230374911528,2932.41300194859
0.278852169000279,2932.42300194859
0.272865479905393,2932.43300194859
0.266078216227072,2932.44300194859
0.25934607210108,2932.45300194859
0.252249125093153,2932.46300194859
0.244648341106834,2932.47300194859
0.237348874047292,2932.48300194859
0.230081916437578,2932.49300194859
0.223403099829206,2932.50300194859
0.216896678559714,2932.51300194859
0.212754644528501,2932.52300194859
0.212550802876774,2932.53300194859
0.218242444070394,2932.54300194859
0.230833965044158,2932.55300194859
0.249965273835686,2932.56300194859
0.274730212025279,2932.57300194859
0.303141997868391,2932.58300194859
0.333150065594666,2932.59300194859
0.362698453591771,2932.60300194859
0.389948958347859,2932.61300194859
0.413308359076965,2932.62300194859
0.432805175004869,2932.63300194859
0.448796225442888,2932.64300194859
0.460810833870791,2932.65300194859
0.470734389190248,2932.66300194859
0.478717277877664,2932.67300194859
0.485680095267039,2932.68300194859
0.492711113372903,2932.69300194859
0.500263798873174,2932.70300194859
0.50882179994991,2932.71300194859
0.518652792187082,2932.72300194859
0.529596034929194,2932.73300194859
0.541829967662448,2932.74300194859
0.554356512295745,2932.75300194859
0.566869894102837,2932.76300194859
0.579425126831787,2932.77300194859
0.591056141039942,2932.78300194859
0.60201759511796,2932.79300194859
0.611950529604333,2932.80300194859
0.620432990693256,2932.81300194859
0.627727153970271,2932.82300194859
0.63202799770825,2932.83300194859
0.633946731291177,2932.84300194859
0.632869997420589,2932.85300194859
0.630487985717346,2932.86300194859
0.626666848440977,2932.87300194859
0.622371063312203,2932.88300194859
0.61955890576474,2932.89300194859
0.617537173857488,2932.90300194859
0.616493132177043,2932.91300194859
0.616478750775309,2932.92300194859
0.617218981139173,2932.93300194859
0.618285202753189,2932.94300194859
0.619214222409993,2932.95300194859
0.620674657443245,2932.96300194859
0.622272802922764,2932.97300194859
0.623770201969041,2932.98300194859
0.624371352440339,2932.99300194859
0.624093302660721,2933.00300194859
0.622030069520951,2933.01300194859
0.618613442531331,2933.02300194859
0.613732924092734,2933.03300194859
0.608146497627788,2933.04300194859
0.601281801069968,2933.05300194859
0.593231479148535,2933.06300194859
0.585075075583415,2933.07300194859
0.57639858400845,2933.08300194859
0.568061800806559,2933.09300194859
0.559448224338835,2933.10300194859
0.550855841498013,2933.11300194859
0.541719631513928,2933.12300194859
0.532914686260658,2933.13300194859
0.524314442474018,2933.14300194859
0.516644947106577,2933.15300194859
0.508877802505569,2933.16300194859
0.500237712476845,2933.17300194859
0.491185391519761,2933.18300194859
0.481847309304219,2933.19300194859
0.472641985789437,2933.20300194859
0.463798417275642,2933.21300194859
0.455998563609371,2933.22300194859
0.448262661705481,2933.23300194859
0.441087337816341,2933.24300194859
0.433902366122523,2933.25300194859
0.426359869484291,2933.26300194859
0.418484489484619,2933.27300194859
0.410557469244359,2933.28300194859
0.402247842091655,2933.29300194859
0.394352176811655,2933.30300194859
0.385856808464811,2933.31300194859
0.377699474205082,2933.32300194859
0.368846061629771,2933.33300194859
0.359602075829199,2933.34300194859
0.350476565466475,2933.35300194859
0.340688906264505,2933.36300194859
0.330946723823475,2933.37300194859
0.321351675028523,2933.38300194859
0.31106112466628,2933.39300194859
0.301626203980394,2933.40300194859
0.294021519887874,2933.41300194859
0.289379571874072,2933.42300194859
0.290282840557857,2933.43300194859
0.29875786176612,2933.44300194859
0.315749932524817,2933.45300194859
0.340831373172111,2933.46300194859
0.37271027343546,2933.47300194859
0.409434828390266,2933.48300194859
0.447323673599492,2933.49300194859
0.484197503074851,2933.50300194859
0.518096428013681,2933.51300194859
0.54773324852633,2933.52300194859
0.572845348513437,2933.53300194859
0.593987966125357,2933.54300194859
0.610928799474362,2933.55300194859
0.624873101246999,2933.56300194859
0.636713733094215,2933.57300194859
0.646270978885912,2933.58300194859
0.655366404326919,2933.59300194859
0.664668790947976,2933.60300194859
0.674822796049018,2933.61300194859
0.686273482497458,2933.62300194859
0.698922747262816,2933.63300194859
0.712884811695299,2933.64300194859
0.727300757480576,2933.65300194859
0.742314957968232,2933.66300194859
0.757225875191092,2933.67300194859
0.771406387672056,2933.68300194859
0.783848125405135,2933.69300194859
0.794369622001189,2933.70300194859
0.802846914018213,2933.71300194859
0.807917612829669,2933.72300194859
0.80950156132109,2933.73300194859
0.807982715181621,2933.74300194859
0.80366836356702,2933.75300194859
0.798114124946606,2933.76300194859
0.7923773203508,2933.77300194859
0.787862130818064,2933.78300194859
0.784060231365041,2933.79300194859
0.781837640138677,2933.80300194859
0.780368742690458,2933.81300194859
0.779913448022993,2933.82300194859
0.779485225447682,2933.83300194859
0.779162945612451,2933.84300194859
0.77904929940154,2933.85300194859
0.778475046774115,2933.86300194859
0.778290446258846,2933.87300194859
0.777274289579644,2933.88300194859
0.775513902433911,2933.89300194859
0.773288914599008,2933.90300194859
0.76982119848449,2933.91300194859
0.764558569559989,2933.92300194859
0.757356104658808,2933.93300194859
0.749342312051942,2933.94300194859
0.740065964217243,2933.95300194859
0.730601771122636,2933.96300194859
0.721022199974176,2933.97300194859
0.710449917192685,2933.98300194859
0.699852196798444,2933.99300194859
0.688405714164295,2934.00300194859
0.67683895349072,2934.01300194859
0.665739124178154,2934.02300194859
0.654969231080576,2934.03300194859
0.64483079069845,2934.04300194859
0.634668310836823,2934.05300194859
0.624685925869728,2934.06300194859
0.614000833929032,2934.07300194859
0.602861261020296,2934.08300194859
0.591403569458885,2934.09300194859
0.579736586649341,2934.10300194859
0.569069098717085,2934.11300194859
0.559073635901706,2934.12300194859
0.549931877050371,2934.13300194859
0.540625914621368,2934.14300194859
0.531008912112927,2934.15300194859
0.520523904719846,2934.16300194859
0.510493432141995,2934.17300194859
0.500230184256472,2934.18300194859
0.489808288594296,2934.19300194859
0.479388098591852,2934.20300194859
0.46892564672773,2934.21300194859
0.458692281304306,2934.22300194859
0.44856278205068,2934.23300194859
0.438149430087934,2934.24300194859
0.427771208461284,2934.25300194859
0.417078769225551,2934.26300194859
0.406559618379848,2934.27300194859
0.396140810578212,2934.28300194859
0.386373167935431,2934.29300194859
0.377219426085633,2934.30300194859
0.368557588182232,2934.31300194859
0.360109685514387,2934.32300194859
0.351085692487396,2934.33300194859
0.341372727910481,2934.34300194859
0.331230696888772,2934.35300194859
0.321374246930921,2934.36300194859
0.311579704326411,2934.37300194859
0.302256290457163,2934.38300194859
0.293479423413112,2934.39300194859
0.284493944711429,2934.40300194859
0.27516479919696,2934.41300194859
0.266258127084514,2934.42300194859
0.257285896635728,2934.43300194859
0.247873556512197,2934.44300194859
0.23824834068207,2934.45300194859
0.228078131353727,2934.46300194859
0.218254843694157,2934.47300194859
0.208944997467095,2934.48300194859
0.200986022621189,2934.49300194859
0.195219753331763,2934.50300194859
0.194414523339363,2934.51300194859
0.20010844598999,2934.52300194859
0.214088288109736,2934.53300194859
0.237933495712158,2934.54300194859
0.270570139560667,2934.55300194859
0.310824464574346,2934.56300194859
0.356733123216912,2934.57300194859
0.406061059893412,2934.58300194859
0.455270530118755,2934.59300194859
0.501619741030962,2934.60300194859
0.54239963035033,2934.61300194859
0.577200745570515,2934.62300194859
0.605234854964843,2934.63300194859
0.626437851473818,2934.64300194859
0.642112273904238,2934.65300194859
0.653005593105905,2934.66300194859
0.661525020344361,2934.67300194859
0.668702190423363,2934.68300194859
0.676203103028129,2934.69300194859
0.684906624637401,2934.70300194859
0.69515396797356,2934.71300194859
0.706660795765758,2934.72300194859
0.718876563139367,2934.73300194859
0.731557524529262,2934.74300194859
0.744914712569461,2934.75300194859
0.758024664853888,2934.76300194859
0.770656330068067,2934.77300194859
0.781956461895488,2934.78300194859
0.791531424326,2934.79300194859
0.798214352141274,2934.80300194859
0.801695150668558,2934.81300194859
0.802174172232031,2934.82300194859
0.800073000709731,2934.83300194859
0.796585393514335,2934.84300194859
0.791833093466722,2934.85300194859
0.787315682883268,2934.86300194859
0.783441844372594,2934.87300194859
0.780721067823815,2934.88300194859
0.77985328453206,2934.89300194859
0.780883394510187,2934.90300194859
0.783410158144387,2934.91300194859
0.786889745721836,2934.92300194859
0.790690944976606,2934.93300194859
0.794179451054212,2934.94300194859
0.796965564453255,2934.95300194859
0.799165353225756,2934.96300194859
0.800724897378148,2934.97300194859
0.801176531819865,2934.98300194859
0.799365128884989,2934.99300194859
0.796114324460386,2935.00300194859
0.79105962561418,2935.01300194859
0.784911341328342,2935.02300194859
0.77742917583029,2935.03300194859
0.768725032568287,2935.04300194859
0.759427036272592,2935.05300194859
0.748824744326922,2935.06300194859
0.738712805097923,2935.07300194859
0.727921823187945,2935.08300194859
0.716106037758681,2935.09300194859
0.704304976044521,2935.10300194859
0.692139621023442,2935.11300194859
0.680021389166327,2935.12300194859
0.667787207632063,2935.13300194859
0.655622009148033,2935.14300194859
0.643025436230905,2935.15300194859
0.630095405468953,2935.16300194859
0.617419466702711,2935.17300194859
0.606134375443656,2935.18300194859
0.595217753715786,2935.19300194859
0.585416324540598,2935.20300194859
0.57637806420439,2935.21300194859
0.567488664188623,2935.22300194859
0.558959707907085,2935.23300194859
0.550782202973728,2935.24300194859
0.54185703136355,2935.25300194859
0.532799803299447,2935.26300194859
0.522943874512404,2935.27300194859
0.513329396933335,2935.28300194859
0.503795048997711,2935.29300194859
0.494377058103384,2935.30300194859
0.48532509054221,2935.31300194859
0.477101580263191,2935.32300194859
0.46857789497264,2935.33300194859
0.459920438810234,2935.34300194859
0.451097051737689,2935.35300194859
0.441763321859372,2935.36300194859
0.43158883176946,2935.37300194859
0.420420959165099,2935.38300194859
0.409476363844937,2935.39300194859
0.399233927704813,2935.40300194859
0.391290221156564,2935.41300194859
0.387985103145659,2935.42300194859
0.392534530797102,2935.43300194859
0.405894382956929,2935.44300194859
0.43013511515662,2935.45300194859
0.464936154245261,2935.46300194859
0.508499949910626,2935.47300194859
0.558139041977098,2935.48300194859
0.610549781764139,2935.49300194859
0.661150137953554,2935.50300194859
0.706882671935045,2935.51300194859
0.745858973305754,2935.52300194859
0.776498029463822,2935.53300194859
0.799149143666289,2935.54300194859
0.814687325083323,2935.55300194859
0.825090468588995,2935.56300194859
0.831803488052374,2935.57300194859
0.836769702677346,2935.58300194859
0.841333153218796,2935.59300194859
0.846238018761878,2935.60300194859
0.852408277673684,2935.61300194859
0.860461640524331,2935.62300194859
0.869504681767728,2935.63300194859
0.879312484531428,2935.64300194859
0.88979741645085,2935.65300194859
0.900408309284772,2935.66300194859
0.910058732519455,2935.67300194859
0.917797640985413,2935.68300194859
0.923068021514893,2935.69300194859
0.925851403665067,2935.70300194859
0.924682364555109,2935.71300194859
0.919572339398738,2935.72300194859
0.911305456827265,2935.73300194859
0.900157031025049,2935.74300194859
0.887940906765959,2935.75300194859
0.876203942876776,2935.76300194859
0.865361228459378,2935.77300194859
0.85558395188933,2935.78300194859
0.847510946733518,2935.79300194859
0.841148565216469,2935.80300194859
0.83603911723929,2935.81300194859
0.83246683745528,2935.82300194859
0.829643172347404,2935.83300194859
0.827016159283236,2935.84300194859
0.824288187905137,2935.85300194859
0.820547075768864,2935.86300194859
0.81612830746247,2935.87300194859
0.810926487144075,2935.88300194859
0.805085774761407,2935.89300194859
0.798328475083998,2935.90300194859
0.789995994556844,2935.91300194859
0.780436332204588,2935.92300194859
0.770102785857846,2935.93300194859
0.759103605219189,2935.94300194859
0.747713740508145,2935.95300194859
0.735927618576206,2935.96300194859
0.723951407361008,2935.97300194859
0.711632185621368,2935.98300194859
0.699080880138687,2935.99300194859
0.685917737131493,2936.00300194859
0.672241915398681,2936.01300194859
0.658644192109883,2936.02300194859
0.644981728599419,2936.03300194859
0.6318113824542,2936.04300194859
0.618715537960299,2936.05300194859
0.605480122780618,2936.06300194859
0.592419646826291,2936.07300194859
0.5795633429669,2936.08300194859
0.567364856096577,2936.09300194859
0.556320245721653,2936.10300194859
0.545980465230534,2936.11300194859
0.535244100064657,2936.12300194859
0.5247382880156,2936.13300194859
0.51436550936567,2936.14300194859
0.504178254970277,2936.15300194859
0.494293019285629,2936.16300194859
0.483781509431687,2936.17300194859
0.473365846191016,2936.18300194859
0.461960803548503,2936.19300194859
0.45057166361948,2936.20300194859
0.438417328623369,2936.21300194859
0.426457773437181,2936.22300194859
0.414633489970454,2936.23300194859
0.403462492559737,2936.24300194859
0.392684171807099,2936.25300194859
0.382433964000811,2936.26300194859
0.372183425011993,2936.27300194859
0.361509388078107,2936.28300194859
0.351623959960983,2936.29300194859
0.341797614406177,2936.30300194859
0.332046054981024,2936.31300194859
0.322139681401274,2936.32300194859
0.312112029971395,2936.33300194859
0.301867075876619,2936.34300194859
0.290866677047482,2936.35300194859
0.280026994040208,2936.36300194859
0.269243887387451,2936.37300194859
0.259477540529961,2936.38300194859
0.251792196638477,2936.39300194859
0.249592456095507,2936.40300194859
0.255229780317866,2936.41300194859
0.271627748436899,2936.42300194859
0.30028138798047,2936.43300194859
0.340012295190091,2936.44300194859
0.388893891357137,2936.45300194859
0.443718322529813,2936.46300194859
0.500224242592675,2936.47300194859
0.554398290045238,2936.48300194859
0.602521215865525,2936.49300194859
0.642844705480938,2936.50300194859
0.673126006308632,2936.51300194859
0.694638578545421,2936.52300194859
0.708361917114823,2936.53300194859
0.716767113572513,2936.54300194859
0.72183430788225,2936.55300194859
0.725620852131157,2936.56300194859
0.728710472559678,2936.57300194859
0.733038988209131,2936.58300194859
0.738448671421058,2936.59300194859
0.745859177301957,2936.60300194859
0.754564359960353,2936.61300194859
0.764311820478815,2936.62300194859
0.774189994836845,2936.63300194859
0.783244696229702,2936.64300194859
0.791544640328544,2936.65300194859
0.797863005824271,2936.66300194859
0.802713916175338,2936.67300194859
0.8053277627218,2936.68300194859
0.805157333188554,2936.69300194859
0.801487392727781,2936.70300194859
0.79464201992117,2936.71300194859
0.78489279144071,2936.72300194859
0.772820727398126,2936.73300194859
0.759262118271438,2936.74300194859
0.745718712902431,2936.75300194859
0.733046322430365,2936.76300194859
0.722328150686276,2936.77300194859
0.713953476556925,2936.78300194859
0.707806125267149,2936.79300194859
0.702718908228091,2936.80300194859
0.699120713049786,2936.81300194859
0.695813491070673,2936.82300194859
0.692392040658807,2936.83300194859
0.688840564563813,2936.84300194859
0.684710264661211,2936.85300194859
0.680046094931622,2936.86300194859
0.674299334796855,2936.87300194859
0.667313818453644,2936.88300194859
0.659073913254542,2936.89300194859
0.649646742569286,2936.90300194859
0.639415746326145,2936.91300194859
0.628125852025574,2936.92300194859
0.616241490313409,2936.93300194859
0.603120127056978,2936.94300194859
0.589436020670342,2936.95300194859
0.575384342839155,2936.96300194859
0.56143238555203,2936.97300194859
0.547758212222966,2936.98300194859
0.534492437162904,2936.99300194859
0.520878075746131,2937.00300194859
0.507966598581058,2937.01300194859
0.495167817891771,2937.02300194859
0.482343145900722,2937.03300194859
0.469852353321698,2937.04300194859
0.457392429047625,2937.05300194859
0.445038669011475,2937.06300194859
0.432046075181182,2937.07300194859
0.419621966363672,2937.08300194859
0.407306894041324,2937.09300194859
0.395563540886601,2937.10300194859
0.384350817867707,2937.11300194859
0.374700883524928,2937.12300194859
0.365048007330081,2937.13300194859
0.355278044591651,2937.14300194859
0.344854057478626,2937.15300194859
0.334243689396294,2937.16300194859
0.323639955967931,2937.17300194859
0.313343074355989,2937.18300194859
0.303356739215569,2937.19300194859
0.293731493466656,2937.20300194859
0.284259898594859,2937.21300194859
0.274464773794876,2937.22300194859
0.264217429029639,2937.23300194859
0.254428205231989,2937.24300194859
0.244377111851388,2937.25300194859
0.23427724116881,2937.26300194859
0.224303438280794,2937.27300194859
0.214173986634669,2937.28300194859
0.20379916166184,2937.29300194859
0.193762233135037,2937.30300194859
0.183766918369407,2937.31300194859
0.173509587355885,2937.32300194859
0.162581316607426,2937.33300194859
0.151938747853394,2937.34300194859
0.141208725780166,2937.35300194859
0.130929590214084,2937.36300194859
0.120725314152535,2937.37300194859
0.110724886944267,2937.38300194859
0.101315011347207,2937.39300194859
0.0918513112540627,2937.40300194859
0.082809608726092,2937.41300194859
0.0738729373246568,2937.42300194859
0.0645176940942183,2937.43300194859
0.054951463700288,2937.44300194859
0.045319176413813,2937.45300194859
0.0355050492930518,2937.46300194859
0.0257633855886296,2937.47300194859
0.016790085130512,2937.48300194859
0.00806012038946458,2937.49300194859
0.000515287691280649,2937.50300194859
-0.00368644576440022,2937.51300194859
-0.00282114395948608,2937.52300194859
0.00686215671528464,2937.53300194859
0.0273556260217307,2937.54300194859
0.0602411944414831,2937.55300194859
0.104666973601919,2937.56300194859
0.158288913009509,2937.57300194859
0.217654323085387,2937.58300194859
0.277803680872948,2937.59300194859
0.336021151759924,2937.60300194859
0.38857127311271,2937.61300194859
0.43266056033874,2937.62300194859
0.468218574976082,2937.63300194859
0.494784680865563,2937.64300194859
0.513520331402563,2937.65300194859
0.525350095760649,2937.66300194859
0.531916535940355,2937.67300194859
0.535618002014741,2937.68300194859
0.538383297736435,2937.69300194859
0.541213463007348,2937.70300194859
0.545292587299054,2937.71300194859
0.55065172336902,2937.72300194859
0.556906307300578,2937.73300194859
0.564703467805296,2937.74300194859
0.573174916251056,2937.75300194859
0.582587067459046,2937.76300194859
0.592118842271386,2937.77300194859
0.601183326749881,2937.78300194859
0.608809552005597,2937.79300194859
0.614082079746723,2937.80300194859
0.616052058447636,2937.81300194859
0.614062584433382,2937.82300194859
0.608186095327181,2937.83300194859
0.599638261015831,2937.84300194859
0.588823428689686,2937.85300194859
0.577802017265571,2937.86300194859
0.566884961625699,2937.87300194859
0.556892742380149,2937.88300194859
0.548362613407733,2937.89300194859
0.541003081432736,2937.90300194859
0.535512425064111,2937.91300194859
0.531408146858566,2937.92300194859
0.52849211318658,2937.93300194859
0.526572653806145,2937.94300194859
0.525311869566654,2937.95300194859
0.523715255578934,2937.96300194859
0.521041228362629,2937.97300194859
0.517977721617293,2937.98300194859
0.513589840696318,2937.99300194859
0.508642474761769,2938.00300194859
0.502641452737017,2938.01300194859
0.495665346790803,2938.02300194859
0.487605374129177,2938.03300194859
0.478602607318116,2938.04300194859
0.468726923042304,2938.05300194859
0.458335369572917,2938.06300194859
0.447606807026875,2938.07300194859
0.436002560823697,2938.08300194859
0.42464857679651,2938.09300194859
0.413236264683156,2938.10300194859
0.401801319175561,2938.11300194859
0.390147449865364,2938.12300194859
0.377657520687384,2938.13300194859
0.364828028732182,2938.14300194859
0.352291025092283,2938.15300194859
0.339581416680378,2938.16300194859
0.327289355777706,2938.17300194859
0.31589599809445,2938.18300194859
0.305369809295037,2938.19300194859
0.295802252879442,2938.20300194859
0.286875412030123,2938.21300194859
0.278081760865064,2938.22300194859
0.269512982119878,2938.23300194859
0.261162357207469,2938.24300194859
0.25258009823392,2938.25300194859
0.244119150191492,2938.26300194859
0.235927386242758,2938.27300194859
0.228169210108817,2938.28300194859
0.220049981504232,2938.29300194859
0.211415436129097,2938.30300194859
0.203471697794287,2938.31300194859
0.195521387280228,2938.32300194859
0.187559616355469,2938.33300194859
0.179851205547984,2938.34300194859
0.17212622066638,2938.35300194859
0.16445458183841,2938.36300194859
0.157151148969306,2938.37300194859
0.149384315584406,2938.38300194859
0.141291087461584,2938.39300194859
0.132567983020102,2938.40300194859
0.124305207351941,2938.41300194859
0.116221128210606,2938.42300194859
0.108972808293137,2938.43300194859
0.102145716380832,2938.44300194859
0.0962233115878833,2938.45300194859
0.0910461490261562,2938.46300194859
0.086088075105204,2938.47300194859
0.0814453590245475,2938.48300194859
0.0765308545670759,2938.49300194859
0.0709511406846781,2938.50300194859
0.064588264228507,2938.51300194859
0.0574705324206966,2938.52300194859
0.0504512146924455,2938.53300194859
0.0432364589720438,2938.54300194859
0.0366506211872275,2938.55300194859
0.0325799868757138,2938.56300194859
0.0325805251573069,2938.57300194859
0.0391222116721931,2938.58300194859
0.0549330508960819,2938.59300194859
0.0818505866769502,2938.60300194859
0.120370835697119,2938.61300194859
0.169469129603427,2938.62300194859
0.226985643764789,2938.63300194859
0.2879236873662,2938.64300194859
0.348776687301778,2938.65300194859
0.405427365110781,2938.66300194859
0.454648169617065,2938.67300194859
0.495330819613119,2938.68300194859
0.526459291504477,2938.69300194859
0.547575358034931,2938.70300194859
0.56033647788238,2938.71300194859
0.565926156581163,2938.72300194859
0.567170396479276,2938.73300194859
0.565466485647344,2938.74300194859
0.562412340030584,2938.75300194859
0.559822129169197,2938.76300194859
0.558158044538398,2938.77300194859
0.558270239929498,2938.78300194859
0.559688255151671,2938.79300194859
0.563336893971653,2938.80300194859
0.567925887522102,2938.81300194859
0.572575767296496,2938.82300194859
0.577382103792172,2938.83300194859
0.581467006937746,2938.84300194859
0.583986952797078,2938.85300194859
0.583933627937386,2938.86300194859
0.580420538815334,2938.87300194859
0.573880247077541,2938.88300194859
0.5649729670282,2938.89300194859
0.554691154223506,2938.90300194859
0.544820088997492,2938.91300194859
0.535669736721447,2938.92300194859
0.528305032862629,2938.93300194859
0.522761605583615,2938.94300194859
0.518740080298813,2938.95300194859
0.516325628741604,2938.96300194859
0.514741380598327,2938.97300194859
0.513935873506451,2938.98300194859
0.513191253462884,2938.99300194859
0.511946221742393,2939.00300194859
0.510220118500752,2939.01300194859
0.50822619036172,2939.02300194859
0.504848797077291,2939.03300194859
0.50153676406358,2939.04300194859
0.496797630172121,2939.05300194859
0.49018709176797,2939.06300194859
0.482090337724515,2939.07300194859
0.472279762249347,2939.08300194859
0.461572764653708,2939.09300194859
0.450217825816947,2939.10300194859
0.438627927123736,2939.11300194859
0.427079162623442,2939.12300194859
0.41540974512609,2939.13300194859
0.403964776899505,2939.14300194859
0.392559094259882,2939.15300194859
0.380626662917088,2939.16300194859
0.369104510048508,2939.17300194859
0.357078949726914,2939.18300194859
0.345224706342541,2939.19300194859
0.333268752783993,2939.20300194859
0.321139316516387,2939.21300194859
0.309196275025082,2939.22300194859
0.297205309393517,2939.23300194859
0.285551240849166,2939.24300194859
0.273980727122431,2939.25300194859
0.262922029740175,2939.26300194859
0.252656049521291,2939.27300194859
0.242342172750147,2939.28300194859
0.232477645920396,2939.29300194859
0.223016359379015,2939.30300194859
0.213904391780068,2939.31300194859
0.204525166945038,2939.32300194859
0.195255334104814,2939.33300194859
0.186292207392934,2939.34300194859
0.17677888607713,2939.35300194859
0.167109287616563,2939.36300194859
0.158335079568294,2939.37300194859
0.149621898424533,2939.38300194859
0.141466251493366,2939.39300194859
0.133089547865718,2939.40300194859
0.124028387515129,2939.41300194859
0.114288575086002,2939.42300194859
0.10463800245521,2939.43300194859
0.0952435548307042,2939.44300194859
0.0863475878619697,2939.45300194859
0.0784901814013147,2939.46300194859
0.0709683917098331,2939.47300194859
0.0631921899876419,2939.48300194859
0.0552806824514167,2939.49300194859
0.0468848264053428,2939.50300194859
0.0380994760456403,2939.51300194859
0.0288076150868901,2939.52300194859
0.0195709243373203,2939.53300194859
0.0100615661672035,2939.54300194859
0.000777890548203453,2939.55300194859
-0.00814159633248302,2939.56300194859
-0.0158940220421042,2939.57300194859
-0.0205818982506167,2939.58300194859
-0.0185271503314558,2939.59300194859
-0.00636158847056254,2939.60300194859
0.0185823798702626,2939.61300194859
0.0580154857444325,2939.62300194859
0.110118254124025,2939.63300194859
0.172613526562723,2939.64300194859
0.240775883989096,2939.65300194859
0.310340229237214,2939.66300194859
0.377096182267194,2939.67300194859
0.437547872362614,2939.68300194859
0.488716861255006,2939.69300194859
0.528962532521463,2939.70300194859
0.557884715974189,2939.71300194859
0.576996887284945,2939.72300194859
0.587753599531765,2939.73300194859
0.593082459449113,2939.74300194859
0.594516053258173,2939.75300194859
0.594703404407464,2939.76300194859
0.594836133289842,2939.77300194859
0.595237328240613,2939.78300194859
0.598177683863261,2939.79300194859
0.602702445910797,2939.80300194859
0.608673943147761,2939.81300194859
0.615294636111312,2939.82300194859
0.622185192655031,2939.83300194859
0.628996835949922,2939.84300194859
0.634784121965198,2939.85300194859
0.639648397106465,2939.86300194859
0.642360524785778,2939.87300194859
0.642401819335753,2939.88300194859
0.638862735613184,2939.89300194859
0.631968536392439,2939.90300194859
0.62235312598343,2939.91300194859
0.611063298866177,2939.92300194859
0.599031627728514,2939.93300194859
0.587589470624422,2939.94300194859
0.57728260261531,2939.95300194859
0.568826157394687,2939.96300194859
0.562112015239692,2939.97300194859
0.55699815826862,2939.98300194859
0.55399329307348,2939.99300194859
0.551789179060592,2940.00300194859
0.550323939950072,2940.01300194859
0.548973515461885,2940.02300194859
0.547520558639873,2940.03300194859
0.544694343625073,2940.04300194859
0.541569292487907,2940.05300194859
0.537176009305986,2940.06300194859
0.531391018987285,2940.07300194859
0.52424837027477,2940.08300194859
0.515380499627185,2940.09300194859
0.505424297200487,2940.10300194859
0.494836888293875,2940.11300194859
0.48355528609598,2940.12300194859
0.47143928228981,2940.13300194859
0.458698118849643,2940.14300194859
0.446145253739209,2940.15300194859
0.432864510886818,2940.16300194859
0.419694971465457,2940.17300194859
0.406798712201292,2940.18300194859
0.393215028193852,2940.19300194859
0.380348477260259,2940.20300194859
0.367570464210428,2940.21300194859
0.3548636078436,2940.22300194859
0.34210578807114,2940.23300194859
0.328849541251518,2940.24300194859
0.315997583885296,2940.25300194859
0.302927519805628,2940.26300194859
0.290481902139337,2940.27300194859
0.278289943461727,2940.28300194859
0.266254976253024,2940.29300194859
0.255329416393794,2940.30300194859
0.24509341515041,2940.31300194859
0.234955922906666,2940.32300194859
0.225395384384212,2940.33300194859
0.215870497057615,2940.34300194859
0.206362661711182,2940.35300194859
0.197386702129801,2940.36300194859
0.188749349882289,2940.37300194859
0.18024594133898,2940.38300194859
0.171265821457597,2940.39300194859
0.162382020789271,2940.40300194859
0.152944133535365,2940.41300194859
0.143842383000013,2940.42300194859
0.134613307977853,2940.43300194859
0.125430450618399,2940.44300194859
0.116529939647904,2940.45300194859
0.108569342734458,2940.46300194859
0.101431345952477,2940.47300194859
0.0945928443415208,2940.48300194859
0.0875617271090989,2940.49300194859
0.0803649166433373,2940.50300194859
0.072733269190238,2940.51300194859
0.0642372708177951,2940.52300194859
0.055258310900141,2940.53300194859
0.0463655932173777,2940.54300194859
0.0374645064353001,2940.55300194859
0.028942935425811,2940.56300194859
0.0232264405626252,2940.57300194859
0.0234987391237989,2940.58300194859
0.0333942423418551,2940.59300194859
0.0561603798760447,2940.60300194859
0.0939398078263417,2940.61300194859
0.144996060764778,2940.62300194859
