PPG,time
0.284436847889306,2402.93982470126
0.570367887833688,2402.94982470126
0.505353572825145,2402.95982470126
0.534337409017212,2402.96982470126
0.499432946946124,2402.97982470126
0.497340803767477,2402.98982470126
0.470321014453196,2402.99982470126
0.458460391508318,2403.00982470126
0.440166883632332,2403.01982470126
0.429561523731171,2403.02982470126
0.419278437741578,2403.03982470126
0.413302742704698,2403.04982470126
0.41099627265649,2403.05982470126
0.410722799758503,2403.06982470126
0.411365020586357,2403.07982470126
0.411928028847095,2403.08982470126
0.410506036468587,2403.09982470126
0.405844201404208,2403.10982470126
0.398952637126631,2403.11982470126
0.390549326877207,2403.12982470126
0.381859712488867,2403.13982470126
0.375338331704954,2403.14982470126
0.372520017124409,2403.15982470126
0.37360869770103,2403.16982470126
0.379044111797184,2403.17982470126
0.387956113775477,2403.18982470126
0.399359707321173,2403.19982470126
0.412038726713368,2403.20982470126
0.425607107835754,2403.21982470126
0.438342199105594,2403.22982470126
0.44914575190062,2403.23982470126
0.45774963386089,2403.24982470126
0.462849129629112,2403.25982470126
0.464829414245992,2403.26982470126
0.463576247860539,2403.27982470126
0.459420015327039,2403.28982470126
0.453292865462756,2403.29982470126
0.444629089154402,2403.30982470126
0.434715934101967,2403.31982470126
0.423588892801968,2403.32982470126
0.412376099552017,2403.33982470126
0.400709703906433,2403.34982470126
0.388343203923121,2403.35982470126
0.375263158942542,2403.36982470126
0.361568952417623,2403.37982470126
0.347300270714756,2403.38982470126
0.333230020467462,2403.39982470126
0.3193779488811,2403.40982470126
0.305698352968366,2403.41982470126
0.292404891827924,2403.42982470126
0.279454867616619,2403.43982470126
0.266304464155467,2403.44982470126
0.253502575022101,2403.45982470126
0.24043238801869,2403.46982470126
0.227805319893491,2403.47982470126
0.215771439353006,2403.48982470126
0.204692323628269,2403.49982470126
0.194688636328972,2403.50982470126
0.186065658059457,2403.51982470126
0.178373872201952,2403.52982470126
0.171549832852333,2403.53982470126
0.164780526372016,2403.54982470126
0.15782832289059,2403.55982470126
0.150626718063492,2403.56982470126
0.143212267368902,2403.57982470126
0.135761383573212,2403.58982470126
0.128065203090725,2403.59982470126
0.120304927481742,2403.60982470126
0.112095324559259,2403.61982470126
0.103587840668541,2403.62982470126
0.0941125719307081,2403.63982470126
0.0842875108917147,2403.64982470126
0.0743374378910646,2403.65982470126
0.0632369625607641,2403.66982470126
0.0520532064065365,2403.67982470126
0.0408154409702042,2403.68982470126
0.0297825025081162,2403.69982470126
0.0193440832720149,2403.70982470126
0.00865541074928834,2403.71982470126
-0.00180586436551989,2403.72982470126
-0.0129429350173967,2403.73982470126
-0.0233326564011713,2403.74982470126
-0.0332576688605836,2403.75982470126
-0.0430948456300873,2403.76982470126
-0.052593432302952,2403.77982470126
-0.0624025424930433,2403.78982470126
-0.0706371095596296,2403.79982470126
-0.0755000757081314,2403.80982470126
-0.0704332806506709,2403.81982470126
-0.0487418478018405,2403.82982470126
-0.00457045279136866,2403.83982470126
0.0618410813050722,2403.84982470126
0.145482200732215,2403.85982470126
0.238269978328222,2403.86982470126
0.331069804893518,2403.87982470126
0.417919443433675,2403.88982470126
0.495403495851917,2403.89982470126
0.560420748173315,2403.90982470126
0.611879324190358,2403.91982470126
0.649928928153926,2403.92982470126
0.674369994248257,2403.93982470126
0.686962081580369,2403.94982470126
0.689030535683469,2403.95982470126
0.682121954686638,2403.96982470126
0.669039816563309,2403.97982470126
0.65169362960506,2403.98982470126
0.632328742468898,2403.99982470126
0.613138019336604,2404.00982470126
0.595750032517293,2404.01982470126
0.580546323610465,2404.02982470126
0.568222972284731,2404.03982470126
0.558693144983555,2404.04982470126
0.551445362815877,2404.05982470126
0.545532458748093,2404.06982470126
0.539343635886169,2404.07982470126
0.532149642901996,2404.08982470126
0.521693756443661,2404.09982470126
0.508127751213759,2404.10982470126
0.492220289669839,2404.11982470126
0.475319903466181,2404.12982470126
0.460590351090415,2404.13982470126
0.450437429413336,2404.14982470126
0.446388960047025,2404.15982470126
0.448871816640454,2404.16982470126
0.457726351623478,2404.17982470126
0.471806203124791,2404.18982470126
0.489394155057773,2404.19982470126
0.509371865831723,2404.20982470126
0.530101681648054,2404.21982470126
0.549483412921093,2404.22982470126
0.565833908633219,2404.23982470126
0.578247682717176,2404.24982470126
0.585570555499993,2404.25982470126
0.587823431690053,2404.26982470126
0.585762135128965,2404.27982470126
0.579778606158133,2404.28982470126
0.570685364390429,2404.29982470126
0.558481871358941,2404.30982470126
0.543988986575379,2404.31982470126
0.527528474732509,2404.32982470126
0.50959490146573,2404.33982470126
0.491193870823426,2404.34982470126
0.472578012049006,2404.35982470126
0.453930034951381,2404.36982470126
0.436203061896322,2404.37982470126
0.418645244497927,2404.38982470126
0.40207466402924,2404.39982470126
0.385985917622324,2404.40982470126
0.369969837142555,2404.41982470126
0.354838799214915,2404.42982470126
0.340205744882352,2404.43982470126
0.326869071172548,2404.44982470126
0.314525117180186,2404.45982470126
0.3033573373025,2404.46982470126
0.293499737904996,2404.47982470126
0.284004819021837,2404.48982470126
0.275583003752432,2404.49982470126
0.268319561119685,2404.50982470126
0.261920514126792,2404.51982470126
0.256007698809095,2404.52982470126
0.250097842643324,2404.53982470126
0.244575539961707,2404.54982470126
0.238734325771858,2404.55982470126
0.232733416909644,2404.56982470126
0.225580635773584,2404.57982470126
0.21841290763762,2404.58982470126
0.209847682418511,2404.59982470126
0.200344950447752,2404.60982470126
0.190038080918297,2404.61982470126
0.17929355506838,2404.62982470126
0.167783085524063,2404.63982470126
0.156642403721737,2404.64982470126
0.145329181041138,2404.65982470126
0.134445027525162,2404.66982470126
0.123944848821361,2404.67982470126
0.11386656490357,2404.68982470126
0.104109084752668,2404.69982470126
0.0947451370230037,2404.70982470126
0.0883714493440538,2404.71982470126
0.0902023674732141,2404.72982470126
0.106548762221493,2404.73982470126
0.143927841300533,2404.74982470126
0.204439338591705,2404.75982470126
0.284388692499629,2404.76982470126
0.377631626757703,2404.77982470126
0.476008464640109,2404.78982470126
0.572381195604321,2404.79982470126
0.661306778294122,2404.80982470126
0.73914977002431,2404.81982470126
0.803742771912869,2404.82982470126
0.852519443992797,2404.83982470126
0.884886350565026,2404.84982470126
0.901786017818435,2404.85982470126
0.90491028466492,2404.86982470126
0.897769647018705,2404.87982470126
0.883105783675342,2404.88982470126
0.864332799360619,2404.89982470126
0.844864764767126,2404.90982470126
0.825941312881995,2404.91982470126
0.809478145721833,2404.92982470126
0.79680837401606,2404.93982470126
0.787677084868371,2404.94982470126
0.782388323683828,2404.95982470126
0.778959699716029,2404.96982470126
0.77664192916048,2404.97982470126
0.773429418096906,2404.98982470126
0.767957321223902,2404.99982470126
0.758307803116624,2405.00982470126
0.744882659201082,2405.01982470126
0.728656025915338,2405.02982470126
0.711546015340513,2405.03982470126
0.696561442816785,2405.04982470126
0.685847584676189,2405.05982470126
0.680381276805857,2405.06982470126
0.681589986093246,2405.07982470126
0.68845880144255,2405.08982470126
0.700037652120092,2405.09982470126
0.714884748343435,2405.10982470126
0.73194096838261,2405.11982470126
0.749270755788853,2405.12982470126
0.765444561385591,2405.13982470126
0.779235232445675,2405.14982470126
0.789343842240571,2405.15982470126
0.794657925451866,2405.16982470126
0.794752070492955,2405.17982470126
0.789983775292582,2405.18982470126
0.78066339055367,2405.19982470126
0.768515253083565,2405.20982470126
0.753844470768141,2405.21982470126
0.737544648482283,2405.22982470126
0.719840207580296,2405.23982470126
0.701912519674037,2405.24982470126
0.682395678613696,2405.25982470126
0.662367558328815,2405.26982470126
0.641230458622605,2405.27982470126
0.620377863308586,2405.28982470126
0.599678277772811,2405.29982470126
0.580039049089391,2405.30982470126
0.561353845439527,2405.31982470126
0.543922658826868,2405.32982470126
0.527103986493672,2405.33982470126
0.511114752028886,2405.34982470126
0.496106974350217,2405.35982470126
0.482147331987352,2405.36982470126
0.469094693881572,2405.37982470126
0.457232476265844,2405.38982470126
0.445458598173929,2405.39982470126
0.434593452482412,2405.40982470126
0.423565292175108,2405.41982470126
0.412866263487311,2405.42982470126
0.402512170505345,2405.43982470126
0.391537310711808,2405.44982470126
0.380536466645251,2405.45982470126
0.369120089432462,2405.46982470126
0.357050209392614,2405.47982470126
0.344587494386886,2405.48982470126
0.331850494033581,2405.49982470126
0.319532020247147,2405.50982470126
0.306471817503541,2405.51982470126
0.293166189097646,2405.52982470126
0.279314700786811,2405.53982470126
0.265296362874511,2405.54982470126
0.250997398069644,2405.55982470126
0.236848720751052,2405.56982470126
0.222638172337583,2405.57982470126
0.208548881121276,2405.58982470126
0.194700891781904,2405.59982470126
0.181222327367844,2405.60982470126
0.168349819118395,2405.61982470126
0.154925079138548,2405.62982470126
0.141143976409027,2405.63982470126
0.127479251271855,2405.64982470126
0.113091842591524,2405.65982470126
0.0993591226018267,2405.66982470126
0.0852402799455391,2405.67982470126
0.0717862343187349,2405.68982470126
0.0586063435382983,2405.69982470126
0.0456567170465298,2405.70982470126
0.0331624465962542,2405.71982470126
0.0200064849801657,2405.72982470126
0.00636207409565907,2405.73982470126
-0.00760504053011965,2405.74982470126
-0.0216509298096525,2405.75982470126
-0.0356491865068238,2405.76982470126
-0.0496016872716478,2405.77982470126
-0.0636328329019856,2405.78982470126
-0.0778805570975664,2405.79982470126
-0.0916208252327431,2405.80982470126
-0.105604193651837,2405.81982470126
-0.119058476215792,2405.82982470126
-0.131734956935125,2405.83982470126
-0.14432111803315,2405.84982470126
-0.156395564353016,2405.85982470126
-0.168764965302709,2405.86982470126
-0.181204864407764,2405.87982470126
-0.193862162790345,2405.88982470126
-0.206953960753149,2405.89982470126
-0.220728691668681,2405.90982470126
-0.234596903812443,2405.91982470126
-0.247087184125355,2405.92982470126
-0.255438760112624,2405.93982470126
-0.253616284316792,2405.94982470126
-0.232278415032114,2405.95982470126
-0.185929539484654,2405.96982470126
-0.113991049494925,2405.97982470126
-0.0246637042236113,2405.98982470126
0.0708476727351407,2405.99982470126
0.162588652753555,2406.00982470126
0.242445884268627,2406.01982470126
0.306808009766076,2406.02982470126
0.353874748732143,2406.03982470126
0.384696145900234,2406.04982470126
0.400503751396503,2406.05982470126
0.403715390729323,2406.06982470126
0.396605613430789,2406.07982470126
0.381461645095838,2406.08982470126
0.360638380143995,2406.09982470126
0.336214126727759,2406.10982470126
0.310453371407766,2406.11982470126
0.285524685752595,2406.12982470126
0.262869083469298,2406.13982470126
0.24411567243823,2406.14982470126
0.229693755419645,2406.15982470126
0.220092524806986,2406.16982470126
0.215134121886546,2406.17982470126
0.213437960383449,2406.18982470126
0.214216128820344,2406.19982470126
0.21627160112956,2406.20982470126
0.218230049350682,2406.21982470126
0.218648898412203,2406.22982470126
0.216298532589902,2406.23982470126
0.210146852675946,2406.24982470126
0.200086948226965,2406.25982470126
0.186736063254137,2406.26982470126
0.171617678706219,2406.27982470126
0.157089327773978,2406.28982470126
0.144285771905176,2406.29982470126
0.133564645002984,2406.30982470126
0.126028289140481,2406.31982470126
0.121635418289596,2406.32982470126
0.119193522870918,2406.33982470126
0.11873341117926,2406.34982470126
0.11828969550048,2406.35982470126
0.116970821266335,2406.36982470126
0.115135276626981,2406.37982470126
0.112195578176779,2406.38982470126
0.107872329627321,2406.39982470126
0.102168703308629,2406.40982470126
0.0947946353097293,2406.41982470126
0.0861564695118181,2406.42982470126
0.0764142656830209,2406.43982470126
0.0647281916283448,2406.44982470126
0.0520363862522406,2406.45982470126
0.0380868742352339,2406.46982470126
0.0233177420837954,2406.47982470126
0.00814824292912436,2406.48982470126
-0.00665584018841785,2406.49982470126
-0.0214340550924658,2406.50982470126
-0.0364885141673738,2406.51982470126
-0.0512723267003734,2406.52982470126
-0.0659955624206659,2406.53982470126
-0.0810761731134113,2406.54982470126
-0.0964261274786777,2406.55982470126
-0.111125281878427,2406.56982470126
-0.125568888737613,2406.57982470126
-0.139908550702747,2406.58982470126
-0.153399736244201,2406.59982470126
-0.166437920549198,2406.60982470126
-0.178472210508549,2406.61982470126
-0.189620295621852,2406.62982470126
-0.200406903166996,2406.63982470126
-0.211082768971036,2406.64982470126
-0.221554837864051,2406.65982470126
-0.23200766629421,2406.66982470126
-0.242685316732454,2406.67982470126
-0.253020670165452,2406.68982470126
-0.263667894827972,2406.69982470126
-0.274144690631479,2406.70982470126
-0.284709540828184,2406.71982470126
-0.294812197626882,2406.72982470126
-0.304645407571413,2406.73982470126
-0.314567293928737,2406.74982470126
-0.324292586097621,2406.75982470126
-0.335026895440086,2406.76982470126
-0.346074885295996,2406.77982470126
-0.357630125903,2406.78982470126
-0.369553841797945,2406.79982470126
-0.380847423742698,2406.80982470126
-0.392466891823675,2406.81982470126
-0.403753947928766,2406.82982470126
-0.414414222788134,2406.83982470126
-0.42537710369081,2406.84982470126
-0.436820899784263,2406.85982470126
-0.448118499696176,2406.86982470126
-0.459586295822349,2406.87982470126
-0.470897853273114,2406.88982470126
-0.482051415682667,2406.89982470126
-0.493070321728946,2406.90982470126
-0.503812022999808,2406.91982470126
-0.51420657516131,2406.92982470126
-0.524181569888587,2406.93982470126
-0.533914180072439,2406.94982470126
-0.544057060499197,2406.95982470126
-0.55411335282616,2406.96982470126
-0.564011080902184,2406.97982470126
-0.573223062683153,2406.98982470126
-0.581882828146586,2406.99982470126
-0.590142956240321,2407.00982470126
-0.598494840685283,2407.01982470126
-0.607434210270725,2407.02982470126
-0.616902368470503,2407.03982470126
-0.627231494734602,2407.04982470126
-0.638155777369032,2407.05982470126
-0.649178133837866,2407.06982470126
-0.660311588358873,2407.07982470126
-0.670254590186623,2407.08982470126
-0.677725100838198,2407.09982470126
-0.680727146303216,2407.10982470126
-0.673270625537252,2407.11982470126
-0.649872358063548,2407.12982470126
-0.609603334573538,2407.13982470126
-0.554687668558404,2407.14982470126
-0.492580044569572,2407.15982470126
-0.43164657455108,2407.16982470126
-0.377797882151638,2407.17982470126
-0.335837630143654,2407.18982470126
-0.307153682129435,2407.19982470126
-0.291113288498387,2407.20982470126
-0.285851194612276,2407.21982470126
-0.289201888847799,2407.22982470126
-0.299408834192484,2407.23982470126
-0.314623846541207,2407.24982470126
-0.332931388177582,2407.25982470126
-0.353445403569565,2407.26982470126
-0.373353866134497,2407.27982470126
-0.391812411819459,2407.28982470126
-0.407192109238824,2407.29982470126
-0.418556261376064,2407.30982470126
-0.426673565429307,2407.31982470126
-0.431896330040138,2407.32982470126
-0.434894139473854,2407.33982470126
-0.435756052758195,2407.34982470126
-0.435379719533248,2407.35982470126
-0.43361292052205,2407.36982470126
-0.432184071161519,2407.37982470126
-0.432002405546043,2407.38982470126
-0.433119900635961,2407.39982470126
-0.437023377697335,2407.40982470126
-0.443234354031133,2407.41982470126
-0.451432459550216,2407.42982470126
-0.461411250947097,2407.43982470126
-0.471407999079688,2407.44982470126
-0.48036829155808,2407.45982470126
-0.487487557788794,2407.46982470126
-0.492447656928946,2407.47982470126
-0.495299879281059,2407.48982470126
-0.496507723315954,2407.49982470126
-0.496902715942994,2407.50982470126
-0.496751889357874,2407.51982470126
-0.497247004888607,2407.52982470126
-0.49749889569732,2407.53982470126
-0.498359060369452,2407.54982470126
-0.499689474759997,2407.55982470126
-0.50158500726782,2407.56982470126
-0.504076735592076,2407.57982470126
-0.507090221649557,2407.58982470126
-0.511077721959424,2407.59982470126
-0.515671803095455,2407.60982470126
-0.520769995344992,2407.61982470126
-0.526996417528892,2407.62982470126
-0.534290419206425,2407.63982470126
-0.54177564567685,2407.64982470126
-0.549849320556088,2407.65982470126
-0.55816622503272,2407.66982470126
-0.566654868004268,2407.67982470126
-0.575486125134718,2407.68982470126
-0.58439997384261,2407.69982470126
-0.592817755862033,2407.70982470126
-0.600817641948739,2407.71982470126
-0.608174277048746,2407.72982470126
-0.614835141859208,2407.73982470126
-0.621378541318894,2407.74982470126
-0.628140643573997,2407.75982470126
-0.635250809397181,2407.76982470126
-0.642583180261086,2407.77982470126
-0.650134641839531,2407.78982470126
-0.656922422443134,2407.79982470126
-0.662675478398092,2407.80982470126
-0.668251658372546,2407.81982470126
-0.674024255029515,2407.82982470126
-0.67938040035455,2407.83982470126
-0.684851790965196,2407.84982470126
-0.689808985866328,2407.85982470126
-0.694633320518725,2407.86982470126
-0.69961666356614,2407.87982470126
-0.704394136122937,2407.88982470126
-0.710092811296324,2407.89982470126
-0.715469551893365,2407.90982470126
-0.720707485721278,2407.91982470126
-0.725683183028178,2407.92982470126
-0.730283680318889,2407.93982470126
-0.734993717221221,2407.94982470126
-0.740366924427585,2407.95982470126
-0.746093428990001,2407.96982470126
-0.751839480968094,2407.97982470126
-0.757886967322042,2407.98982470126
-0.763740186873823,2407.99982470126
-0.769224587806103,2408.00982470126
-0.774097670824312,2408.01982470126
-0.779427668857248,2408.02982470126
-0.784569857052178,2408.03982470126
-0.790258313540905,2408.04982470126
-0.796043566235632,2408.05982470126
-0.802462139637294,2408.06982470126
-0.808630387542821,2408.07982470126
-0.814576075112754,2408.08982470126
-0.820292165432105,2408.09982470126
-0.825767080439967,2408.10982470126
-0.831013944915964,2408.11982470126
-0.835979784002094,2408.12982470126
-0.840268460778167,2408.13982470126
-0.844483731675739,2408.14982470126
-0.848349331191814,2408.15982470126
-0.852982417562378,2408.16982470126
-0.857879662146729,2408.17982470126
-0.863853875332876,2408.18982470126
-0.870239794780603,2408.19982470126
-0.876485746902272,2408.20982470126
-0.88282132112028,2408.21982470126
-0.889191170657787,2408.22982470126
-0.89480995498453,2408.23982470126
-0.899847806257253,2408.24982470126
-0.902671194315958,2408.25982470126
-0.901065170827363,2408.26982470126
-0.891460934148051,2408.27982470126
-0.870339385345143,2408.28982470126
-0.836916882209963,2408.29982470126
-0.793546082332127,2408.30982470126
-0.745655804454926,2408.31982470126
-0.699200456347297,2408.32982470126
-0.658745118818561,2408.33982470126
-0.628179685906814,2408.34982470126
-0.608937530712929,2408.35982470126
-0.599605676613598,2408.36982470126
-0.599507197986264,2408.37982470126
-0.606624622915204,2408.38982470126
-0.618173345234356,2408.39982470126
-0.633477304728109,2408.40982470126
-0.649743612943232,2408.41982470126
-0.666259525514113,2408.42982470126
-0.681273376716109,2408.43982470126
-0.69447259001029,2408.44982470126
-0.705198205786746,2408.45982470126
-0.713514170014688,2408.46982470126
-0.719001069991912,2408.47982470126
-0.722288865763594,2408.48982470126
-0.723593256638553,2408.49982470126
-0.724088696919321,2408.50982470126
-0.724727822534081,2408.51982470126
-0.725438176451445,2408.52982470126
-0.727139882755021,2408.53982470126
-0.729932685114448,2408.54982470126
-0.73424369058144,2408.55982470126
-0.739420044404883,2408.56982470126
-0.745517065175598,2408.57982470126
-0.752299337584643,2408.58982470126
-0.759141947438661,2408.59982470126
-0.764480823644782,2408.60982470126
-0.768551043985678,2408.61982470126
-0.770363172647196,2408.62982470126
-0.769925493429738,2408.63982470126
-0.768633359737669,2408.64982470126
-0.766427941343777,2408.65982470126
-0.763528376259596,2408.66982470126
-0.760304301064825,2408.67982470126
-0.757225050405786,2408.68982470126
-0.754817145952751,2408.69982470126
-0.752900906995135,2408.70982470126
-0.751786131337871,2408.71982470126
-0.751567949314346,2408.72982470126
-0.752657246893398,2408.73982470126
-0.754728856031966,2408.74982470126
-0.757465431656708,2408.75982470126
-0.760260434016414,2408.76982470126
-0.762481848655817,2408.77982470126
-0.764805218675538,2408.78982470126
-0.766848561916497,2408.79982470126
-0.769575624837222,2408.80982470126
-0.772986819528192,2408.81982470126
-0.77689638345871,2408.82982470126
-0.781568653755599,2408.83982470126
-0.786290621441855,2408.84982470126
-0.791135111917192,2408.85982470126
-0.795868714178035,2408.86982470126
-0.800399079629404,2408.87982470126
-0.805298999753846,2408.88982470126
-0.809865618435435,2408.89982470126
-0.814212589598872,2408.90982470126
-0.818623402061433,2408.91982470126
-0.822447459801232,2408.92982470126
-0.825714274148543,2408.93982470126
-0.829111378532575,2408.94982470126
-0.832253896182406,2408.95982470126
-0.834738099018359,2408.96982470126
-0.837119212195878,2408.97982470126
-0.838760775538579,2408.98982470126
-0.840731201170529,2408.99982470126
-0.842700532860777,2409.00982470126
-0.84478592403863,2409.01982470126
-0.846726825814363,2409.02982470126
-0.848781342107549,2409.03982470126
-0.850849470490609,2409.04982470126
-0.852961913176217,2409.05982470126
-0.855227774302139,2409.06982470126
-0.857279777803416,2409.07982470126
-0.859619751975381,2409.08982470126
-0.861997775393951,2409.09982470126
-0.864001878201247,2409.10982470126
-0.866245636524717,2409.11982470126
-0.868039548502516,2409.12982470126
-0.870011150102116,2409.13982470126
-0.872013328927876,2409.14982470126
-0.87429121552551,2409.15982470126
-0.875914134006212,2409.16982470126
-0.878092992920716,2409.17982470126
-0.880670827507006,2409.18982470126
-0.883815916907915,2409.19982470126
-0.887212962781553,2409.20982470126
-0.890612940971839,2409.21982470126
-0.893968071365027,2409.22982470126
-0.897109658101173,2409.23982470126
-0.899842244049162,2409.24982470126
-0.902145654870687,2409.25982470126
-0.904046650180913,2409.26982470126
-0.906111462201648,2409.27982470126
-0.908237476724451,2409.28982470126
-0.9105210044359,2409.29982470126
-0.912856430031083,2409.30982470126
-0.914990193924619,2409.31982470126
-0.917044963024267,2409.32982470126
-0.918687551406553,2409.33982470126
-0.920539884668492,2409.34982470126
-0.921696781241881,2409.35982470126
-0.923652473200198,2409.36982470126
-0.925979706971119,2409.37982470126
-0.928957226003429,2409.38982470126
-0.932280015291928,2409.39982470126
-0.935939816289822,2409.40982470126
-0.938848252481537,2409.41982470126
-0.940263440458488,2409.42982470126
-0.938856335626266,2409.43982470126
-0.93242322874798,2409.44982470126
-0.91850147591932,2409.45982470126
-0.894241843448004,2409.46982470126
-0.860707564125416,2409.47982470126
-0.819810690640826,2409.48982470126
-0.776582305039276,2409.49982470126
-0.7350819887199,2409.50982470126
-0.700166508139041,2409.51982470126
-0.673437928411023,2409.52982470126
-0.656041276741929,2409.53982470126
-0.648023114391535,2409.54982470126
-0.64720386954139,2409.55982470126
-0.652785007530583,2409.56982470126
-0.662816363124116,2409.57982470126
-0.675381063000769,2409.58982470126
-0.688631301328678,2409.59982470126
-0.7015280973561,2409.60982470126
-0.712570257924131,2409.61982470126
-0.720635172117868,2409.62982470126
-0.726690477187945,2409.63982470126
-0.729500471945706,2409.64982470126
-0.730431556726097,2409.65982470126
-0.729401898437452,2409.66982470126
-0.726893455695455,2409.67982470126
-0.723077061137898,2409.68982470126
-0.718432175001347,2409.69982470126
-0.713894777848637,2409.70982470126
-0.709990191953602,2409.71982470126
-0.707449359526964,2409.72982470126
-0.708025454657689,2409.73982470126
-0.710846718009605,2409.74982470126
-0.715505351734389,2409.75982470126
-0.721115442916458,2409.76982470126
-0.725866203422717,2409.77982470126
-0.729023797325787,2409.78982470126
-0.730552134632595,2409.79982470126
-0.730282327258163,2409.80982470126
-0.728606706726522,2409.81982470126
-0.725726217132354,2409.82982470126
-0.722132794524901,2409.83982470126
-0.718150006060264,2409.84982470126
-0.714001765379298,2409.85982470126
-0.709593338939371,2409.86982470126
-0.706102012899908,2409.87982470126
-0.703053400817789,2409.88982470126
-0.700931557358616,2409.89982470126
-0.700122017542709,2409.90982470126
-0.700175255382151,2409.91982470126
-0.700700926720508,2409.92982470126
-0.701866467415376,2409.93982470126
-0.703569814557022,2409.94982470126
-0.705726358273343,2409.95982470126
-0.708051764618741,2409.96982470126
-0.710775782944743,2409.97982470126
-0.71385637864126,2409.98982470126
-0.716943694461056,2409.99982470126
-0.720097897391231,2410.00982470126
-0.724092275913164,2410.01982470126
-0.727627239645301,2410.02982470126
-0.730867754847387,2410.03982470126
-0.733905319262342,2410.04982470126
-0.736974440827724,2410.05982470126
-0.739461293134273,2410.06982470126
-0.741138827037288,2410.07982470126
-0.743427699895194,2410.08982470126
-0.745053298240936,2410.09982470126
-0.74699148677494,2410.10982470126
-0.748573679048708,2410.11982470126
-0.749935701196943,2410.12982470126
-0.751030573987951,2410.13982470126
-0.751716271971723,2410.14982470126
-0.75283480744718,2410.15982470126
-0.753900762749152,2410.16982470126
-0.75488514738837,2410.17982470126
-0.75627265693142,2410.18982470126
-0.757683018595054,2410.19982470126
-0.759274077153173,2410.20982470126
-0.760937883942542,2410.21982470126
-0.762871243624633,2410.22982470126
-0.764483516198624,2410.23982470126
-0.765567408947791,2410.24982470126
-0.767174625672761,2410.25982470126
-0.76856153171638,2410.26982470126
-0.769463527854918,2410.27982470126
-0.770564864389188,2410.28982470126
-0.771358868623452,2410.29982470126
-0.772602548248527,2410.30982470126
-0.773910528021534,2410.31982470126
-0.775559565743012,2410.32982470126
-0.776784509663915,2410.33982470126
-0.777830132427478,2410.34982470126
-0.779133438636436,2410.35982470126
-0.780263357992159,2410.36982470126
-0.782178347580709,2410.37982470126
-0.783704454311899,2410.38982470126
-0.785993487690218,2410.39982470126
-0.787693119522528,2410.40982470126
-0.789145278510419,2410.41982470126
-0.790258502648709,2410.42982470126
-0.79169885970575,2410.43982470126
-0.792930291324117,2410.44982470126
-0.79432649376353,2410.45982470126
-0.795777605854863,2410.46982470126
-0.797193375880281,2410.47982470126
-0.799043409135672,2410.48982470126
-0.801202645941246,2410.49982470126
-0.803678189755046,2410.50982470126
-0.806374386095835,2410.51982470126
-0.809017580162687,2410.52982470126
-0.811072512308741,2410.53982470126
-0.812030266083654,2410.54982470126
-0.810519187309023,2410.55982470126
-0.804567701372626,2410.56982470126
-0.790950581675826,2410.57982470126
-0.76772044260731,2410.58982470126
-0.734933744354293,2410.59982470126
-0.695230255458822,2410.60982470126
-0.652575307213592,2410.61982470126
-0.611093817354084,2410.62982470126
-0.574245720507465,2410.63982470126
-0.544149646596396,2410.64982470126
-0.522831639665708,2410.65982470126
-0.510137121981172,2410.66982470126
-0.504731528450425,2410.67982470126
-0.505875607321836,2410.68982470126
-0.511970609841681,2410.69982470126
-0.521175932732123,2410.70982470126
-0.532129733163281,2410.71982470126
-0.543712433119537,2410.72982470126
-0.554540028148185,2410.73982470126
-0.563351594340116,2410.74982470126
-0.569547094426446,2410.75982470126
-0.572609923104211,2410.76982470126
-0.573288981684395,2410.77982470126
-0.571721613078159,2410.78982470126
-0.568526818517686,2410.79982470126
-0.564228806671485,2410.80982470126
-0.559852824004752,2410.81982470126
-0.555909354873705,2410.82982470126
-0.553251513275143,2410.83982470126
-0.552069829771772,2410.84982470126
-0.552299889686354,2410.85982470126
-0.553666715029786,2410.86982470126
-0.555945883850647,2410.87982470126
-0.558171550562985,2410.88982470126
-0.559235621699085,2410.89982470126
-0.55831074052231,2410.90982470126
-0.555591257177208,2410.91982470126
-0.551410408786404,2410.92982470126
-0.545750373545208,2410.93982470126
-0.539474710000189,2410.94982470126
-0.532944183029262,2410.95982470126
-0.526307163780434,2410.96982470126
-0.519791372741623,2410.97982470126
-0.513534860780309,2410.98982470126
-0.508345424670586,2410.99982470126
-0.503981919432871,2411.00982470126
-0.500842643169512,2411.01982470126
-0.49879959135247,2411.02982470126
-0.497326998222791,2411.03982470126
-0.496435620205386,2411.04982470126
-0.496526733461659,2411.05982470126
-0.49729057028593,2411.06982470126
-0.49934217732684,2411.07982470126
-0.501550358404716,2411.08982470126
-0.504409990310989,2411.09982470126
-0.507694847497651,2411.10982470126
-0.510506113781126,2411.11982470126
-0.513493453469346,2411.12982470126
-0.515789014022897,2411.13982470126
-0.518027741678755,2411.14982470126
-0.519724953694525,2411.15982470126
-0.521077588846633,2411.16982470126
-0.522289395097464,2411.17982470126
-0.522687682230298,2411.18982470126
-0.523490303590153,2411.19982470126
-0.524373738834068,2411.20982470126
-0.524994804159848,2411.21982470126
-0.526048722312424,2411.22982470126
-0.527385067088485,2411.23982470126
-0.528738675542036,2411.24982470126
-0.53015575554154,2411.25982470126
-0.53172349668022,2411.26982470126
-0.533505179052222,2411.27982470126
-0.53454462847653,2411.28982470126
-0.53527492702761,2411.29982470126
-0.535764116178834,2411.30982470126
-0.535843955325135,2411.31982470126
-0.535808990751737,2411.32982470126
-0.536138094841854,2411.33982470126
-0.536682146342805,2411.34982470126
-0.537749348062696,2411.35982470126
-0.538552507634609,2411.36982470126
-0.539423730509691,2411.37982470126
-0.540335705367705,2411.38982470126
-0.540892969232683,2411.39982470126
-0.541734610700348,2411.40982470126
-0.542051083614154,2411.41982470126
-0.542600007583176,2411.42982470126
-0.542989368617229,2411.43982470126
-0.543541070249607,2411.44982470126
-0.544537014223731,2411.45982470126
-0.54544699954574,2411.46982470126
-0.547249585957094,2411.47982470126
-0.549448291143686,2411.48982470126
-0.551250947136896,2411.49982470126
-0.553619770435113,2411.50982470126
-0.555561987375151,2411.51982470126
-0.55806498971234,2411.52982470126
-0.560486851617228,2411.53982470126
-0.563067536939405,2411.54982470126
-0.565887397686588,2411.55982470126
-0.568424199912768,2411.56982470126
-0.569952585623705,2411.57982470126
-0.571215675899319,2411.58982470126
-0.571382701327685,2411.59982470126
-0.572217561630064,2411.60982470126
-0.572825738724272,2411.61982470126
-0.573748340277607,2411.62982470126
-0.574617605632738,2411.63982470126
-0.575388467512523,2411.64982470126
-0.57709150055628,2411.65982470126
-0.57951862861854,2411.66982470126
-0.582392564980187,2411.67982470126
-0.585400388872499,2411.68982470126
-0.588085290411478,2411.69982470126
-0.589293298114432,2411.70982470126
-0.587779484078058,2411.71982470126
-0.580572253714016,2411.72982470126
-0.563736767587777,2411.73982470126
-0.535009361725794,2411.74982470126
-0.493502069533081,2411.75982470126
-0.44239700145162,2411.76982470126
-0.385780286316614,2411.77982470126
-0.328606328379252,2411.78982470126
-0.27592016081108,2411.79982470126
-0.230731173590095,2411.80982470126
-0.19486427849572,2411.81982470126
-0.169730586166529,2411.82982470126
-0.154229180692138,2411.83982470126
-0.146953892599009,2411.84982470126
-0.146329522781168,2411.85982470126
-0.150444397559418,2411.86982470126
-0.157914216544338,2411.87982470126
-0.165980485362487,2411.88982470126
-0.173236011841458,2411.89982470126
-0.179032832955015,2411.90982470126
-0.182604929897294,2411.91982470126
-0.183548820849272,2411.92982470126
-0.182367113817158,2411.93982470126
-0.178832800846942,2411.94982470126
-0.17374048176438,2411.95982470126
-0.167541399175448,2411.96982470126
-0.160617719831732,2411.97982470126
-0.153668210909734,2411.98982470126
-0.147311105317227,2411.99982470126
-0.142525786147418,2412.00982470126
-0.139748894045801,2412.01982470126
-0.139225319076414,2412.02982470126
-0.140281292507716,2412.03982470126
-0.142280034509839,2412.04982470126
-0.144031858986292,2412.05982470126
-0.144787447518588,2412.06982470126
-0.144089476345795,2412.07982470126
-0.14189267843555,2412.08982470126
-0.138122015436546,2412.09982470126
-0.133091316061081,2412.10982470126
-0.127017345665762,2412.11982470126
-0.119765450716836,2412.12982470126
-0.111730935282919,2412.13982470126
-0.103192918011425,2412.14982470126
-0.0950826337919709,2412.15982470126
-0.088423270875641,2412.16982470126
-0.0833227390166864,2412.17982470126
-0.0800289836340786,2412.18982470126
-0.0783601991013306,2412.19982470126
-0.0786256388687734,2412.20982470126
-0.0797860564107539,2412.21982470126
-0.0818396581423875,2412.22982470126
-0.0847696351499723,2412.23982470126
-0.0878772836607038,2412.24982470126
-0.0912702563278474,2412.25982470126
-0.0943777607375608,2412.26982470126
-0.0970487558295455,2412.27982470126
-0.0998117147197243,2412.28982470126
-0.10254848468425,2412.29982470126
-0.104945176674184,2412.30982470126
-0.108342063370208,2412.31982470126
-0.112072569895828,2412.32982470126
-0.115883906350566,2412.33982470126
-0.119446117583744,2412.34982470126
-0.122889198164385,2412.35982470126
-0.126863522142644,2412.36982470126
-0.130687680842348,2412.37982470126
-0.134693593884529,2412.38982470126
-0.138635198831349,2412.39982470126
-0.142608503316277,2412.40982470126
-0.146226638790945,2412.41982470126
-0.149246573737981,2412.42982470126
-0.151694605395383,2412.43982470126
-0.153784744488876,2412.44982470126
-0.155638673520782,2412.45982470126
-0.157058345468353,2412.46982470126
-0.158504772275789,2412.47982470126
-0.160201477971874,2412.48982470126
-0.162516074828694,2412.49982470126
-0.164381214535671,2412.50982470126
-0.166478948901435,2412.51982470126
-0.16938342639784,2412.52982470126
-0.171873907368296,2412.53982470126
-0.174499188833425,2412.54982470126
-0.17762009542649,2412.55982470126
-0.180558471127226,2412.56982470126
-0.184014765655811,2412.57982470126
-0.187567772510329,2412.58982470126
-0.191702109922666,2412.59982470126
-0.195518684187326,2412.60982470126
-0.199885723543133,2412.61982470126
-0.204072942744691,2412.62982470126
-0.208512927546548,2412.63982470126
-0.212955739627658,2412.64982470126
-0.217114262220788,2412.65982470126
-0.220902329011107,2412.66982470126
-0.224274005563727,2412.67982470126
-0.228063495279365,2412.68982470126
-0.232256672169562,2412.69982470126
-0.237115449466791,2412.70982470126
-0.241319692445753,2412.71982470126
-0.244392604796012,2412.72982470126
-0.247071509905505,2412.73982470126
-0.249278527178515,2412.74982470126
-0.251525339712701,2412.75982470126
-0.254611679611018,2412.76982470126
-0.257969263620385,2412.77982470126
-0.261473445710897,2412.78982470126
-0.264773554754074,2412.79982470126
-0.267662879188435,2412.80982470126
-0.270398393757387,2412.81982470126
-0.273130440024176,2412.82982470126
-0.276101698408997,2412.83982470126
-0.27946295334988,2412.84982470126
-0.282774459361583,2412.85982470126
-0.286030590373542,2412.86982470126
-0.289881899330101,2412.87982470126
-0.293929005316118,2412.88982470126
-0.298066205639154,2412.89982470126
-0.302263846846545,2412.90982470126
-0.306367907557374,2412.91982470126
-0.30834768446994,2412.92982470126
-0.305422578724437,2412.93982470126
-0.292773835692502,2412.94982470126
-0.266728424924703,2412.95982470126
-0.225423684243353,2412.96982470126
-0.170481724392777,2412.97982470126
-0.106313182552829,2412.98982470126
-0.0390397576997607,2412.99982470126
0.0257369324803569,2413.00982470126
0.0842608340781853,2413.01982470126
0.133157719234962,2413.02982470126
0.171738813781341,2413.03982470126
0.199455158387585,2413.04982470126
0.216893891634181,2413.05982470126
0.225388789008661,2413.06982470126
0.226748743192309,2413.07982470126
0.222658430661643,2413.08982470126
0.215667653158679,2413.09982470126
0.206760599049791,2413.10982470126
0.198081094967989,2413.11982470126
0.190674300321322,2413.12982470126
0.184973418281886,2413.13982470126
0.181602879139517,2413.14982470126
0.180835522590726,2413.15982470126
0.181833216235482,2413.16982470126
0.184816058761037,2413.17982470126
0.189556393124423,2413.18982470126
0.194922117524556,2413.19982470126
0.200868090906683,2413.20982470126
0.205158182463783,2413.21982470126
0.207874578211001,2413.22982470126
0.208433682975995,2413.23982470126
0.206302295411954,2413.24982470126
0.202877539516199,2413.25982470126
0.199152882302623,2413.26982470126
0.196182424112408,2413.27982470126
0.194708991809982,2413.28982470126
0.195515262017577,2413.29982470126
0.198561760721644,2413.30982470126
0.203382323825768,2413.31982470126
0.209959116992074,2413.32982470126
0.217527897057351,2413.33982470126
0.225702892939503,2413.34982470126
0.233844296718422,2413.35982470126
0.240913774323783,2413.36982470126
0.247376367028982,2413.37982470126
0.252868958750082,2413.38982470126
0.257323642942244,2413.39982470126
0.26046296853163,2413.40982470126
0.261448898630047,2413.41982470126
0.2611888345415,2413.42982470126
0.2588548305195,2413.43982470126
0.255455520902559,2413.44982470126
0.250981908817237,2413.45982470126
0.245576410001348,2413.46982470126
0.24028028450561,2413.47982470126
0.234805990666017,2413.48982470126
0.229494437799803,2413.49982470126
0.224500452797697,2413.50982470126
0.219113972440388,2413.51982470126
0.212714444210716,2413.52982470126
0.206159560313671,2413.53982470126
0.199268398322366,2413.54982470126
0.192200126927994,2413.55982470126
0.185323639349071,2413.56982470126
0.178375079017456,2413.57982470126
0.17135259009677,2413.58982470126
0.165076820379949,2413.59982470126
0.159556700670786,2413.60982470126
0.154679136690716,2413.61982470126
0.149689940774111,2413.62982470126
0.14511031529472,2413.63982470126
0.139988946369047,2413.64982470126
0.134802450219753,2413.65982470126
0.129667136575611,2413.66982470126
0.124473042741656,2413.67982470126
0.119624018036277,2413.68982470126
0.114942271491954,2413.69982470126
0.110262949352355,2413.70982470126
0.105203247920379,2413.71982470126
0.100194110662207,2413.72982470126
0.095039466751768,2413.73982470126
0.090210011629769,2413.74982470126
0.08454377334139,2413.75982470126
0.0793208407932735,2413.76982470126
0.0735599243471227,2413.77982470126
0.0671053725888529,2413.78982470126
0.0608914792090786,2413.79982470126
0.0545715884076134,2413.80982470126
0.0484165369286518,2413.81982470126
0.0420830873316212,2413.82982470126
0.0360232249313485,2413.83982470126
0.0307386037010325,2413.84982470126
0.0256927395360671,2413.85982470126
0.0209165775754648,2413.86982470126
0.0160984864085501,2413.87982470126
0.0110134233525886,2413.88982470126
0.00550777346550304,2413.89982470126
0.000240641984822925,2413.90982470126
-0.00460548875263546,2413.91982470126
-0.00949819506210807,2413.92982470126
-0.013862200944951,2413.93982470126
-0.0180420125754086,2413.94982470126
-0.0220659448152954,2413.95982470126
-0.0264206771588701,2413.96982470126
-0.0308225348418548,2413.97982470126
-0.0354601523484471,2413.98982470126
-0.0407054158758931,2413.99982470126
-0.0467469359054053,2414.00982470126
-0.0526190815996217,2414.01982470126
-0.0591833850660946,2414.02982470126
-0.065753119260576,2414.03982470126
-0.0717372827951908,2414.04982470126
-0.0758191233917923,2414.05982470126
-0.0755478849180568,2414.06982470126
-0.0669095394038517,2414.07982470126
-0.0450784754362556,2414.08982470126
-0.00796562283927793,2414.09982470126
0.044732837007367,2414.10982470126
0.108359081332739,2414.11982470126
0.178236405770542,2414.12982470126
0.248501569671981,2414.13982470126
0.313818852281722,2414.14982470126
0.370842760774674,2414.15982470126
0.416936619020806,2414.16982470126
0.452481058418135,2414.17982470126
0.477474229522507,2414.18982470126
0.492542682751714,2414.19982470126
0.499051825209542,2414.20982470126
0.497918275144731,2414.21982470126
0.491204460277695,2414.22982470126
0.480872196492435,2414.23982470126
0.468489831577599,2414.24982470126
0.457001328516299,2414.25982470126
0.447675395487544,2414.26982470126
0.440878679910537,2414.27982470126
0.436681634997132,2414.28982470126
0.434588453008923,2414.29982470126
0.433810974859361,2414.30982470126
0.43475907697661,2414.31982470126
0.436324121585404,2414.32982470126
0.438196714799193,2414.33982470126
0.440128506304259,2414.34982470126
0.44059861478545,2414.35982470126
0.438535920936599,2414.36982470126
0.43461673144653,2414.37982470126
0.429163232137603,2414.38982470126
0.422634310138757,2414.39982470126
0.416640287094533,2414.40982470126
0.411833137406927,2414.41982470126
0.408836418472244,2414.42982470126
0.408801924167675,2414.43982470126
0.411655647153065,2414.44982470126
0.41672264975245,2414.45982470126
0.423339856936323,2414.46982470126
0.4313937258039,2414.47982470126
0.439673337929309,2414.48982470126
0.447005685814065,2414.49982470126
0.453558891859661,2414.50982470126
0.45819620416912,2414.51982470126
0.46092796543863,2414.52982470126
0.461467388261199,2414.53982470126
0.460073086037218,2414.54982470126
0.45623539090939,2414.55982470126
0.450864420966114,2414.56982470126
0.445060934480464,2414.57982470126
0.438950741373729,2414.58982470126
0.43211642334898,2414.59982470126
0.425094143344815,2414.60982470126
0.417405848014109,2414.61982470126
0.409125899376403,2414.62982470126
0.400564084482906,2414.63982470126
0.391645685097099,2414.64982470126
0.383042940447753,2414.65982470126
0.374370018672812,2414.66982470126
0.365998645100195,2414.67982470126
0.357556428492861,2414.68982470126
0.34882361164993,2414.69982470126
0.33988637836181,2414.70982470126
0.331392685664567,2414.71982470126
0.322742421021662,2414.72982470126
0.314546208929971,2414.73982470126
0.306445252602078,2414.74982470126
0.298625120394997,2414.75982470126
0.291488017180199,2414.76982470126
0.284523004940515,2414.77982470126
0.277943298686603,2414.78982470126
0.271344832304972,2414.79982470126
0.264703959360468,2414.80982470126
0.258630959931555,2414.81982470126
0.252557038407112,2414.82982470126
0.246869438388646,2414.83982470126
0.241098705080511,2414.84982470126
0.235430218624052,2414.85982470126
0.229204805352857,2414.86982470126
0.223277353939827,2414.87982470126
0.217308037504578,2414.88982470126
0.211089138177516,2414.89982470126
0.204561528267896,2414.90982470126
0.197337729094802,2414.91982470126
0.19001276846297,2414.92982470126
0.182088183383423,2414.93982470126
0.174686488288185,2414.94982470126
0.167762776879042,2414.95982470126
0.160991532655687,2414.96982470126
0.154527179277554,2414.97982470126
0.147631224537905,2414.98982470126
0.14069596400931,2414.99982470126
0.13388903621728,2415.00982470126
0.127263979012157,2415.01982470126
0.11998866623282,2415.02982470126
0.1128198312651,2415.03982470126
0.105880185550077,2415.04982470126
0.0995690476200667,2415.05982470126
0.0937133096502316,2415.06982470126
0.0877111791542547,2415.07982470126
0.0823041575308912,2415.08982470126
0.0759788860244966,2415.09982470126
0.0691795052526525,2415.10982470126
0.0619410304296924,2415.11982470126
0.0540698790734666,2415.12982470126
0.0464224885429153,2415.13982470126
0.0388266651437741,2415.14982470126
0.0319257815052937,2415.15982470126
0.0291695283138929,2415.16982470126
0.0333259764040617,2415.17982470126
0.0502811352732991,2415.18982470126
0.0840775700430808,2415.19982470126
0.134323625382264,2415.20982470126
0.198729895058553,2415.21982470126
0.271817816157648,2415.22982470126
0.347841361383278,2415.23982470126
0.421524416650093,2415.24982470126
0.488382105141605,2415.25982470126
0.545602713889085,2415.26982470126
0.591380178704462,2415.27982470126
0.62567264821721,2415.28982470126
0.64929023034956,2415.29982470126
0.662594635149421,2415.30982470126
0.667672366994351,2415.31982470126
0.665312948576412,2415.32982470126
0.658010148054653,2415.33982470126
0.647108392894164,2415.34982470126
0.634180682355072,2415.35982470126
0.62194800670692,2415.36982470126
0.61099460237191,2415.37982470126
0.602265199503433,2415.38982470126
0.595912610551378,2415.39982470126
0.591944148979789,2415.40982470126
0.589773092804434,2415.41982470126
0.589233209094655,2415.42982470126
0.589858083575441,2415.43982470126
0.590615760129822,2415.44982470126
0.590063590373135,2415.45982470126
0.587767132712545,2415.46982470126
0.582174390918038,2415.47982470126
0.573907415057378,2415.48982470126
0.563840084202189,2415.49982470126
0.553796223439734,2415.50982470126
0.545151953344664,2415.51982470126
0.539529268616232,2415.52982470126
0.537271248991482,2415.53982470126
0.538173036875812,2415.54982470126
0.540774962135599,2415.55982470126
0.546094763189284,2415.56982470126
0.551927744918123,2415.57982470126
0.558091568486559,2415.58982470126
0.564777715742178,2415.59982470126
0.571183301412896,2415.60982470126
0.57658207249133,2415.61982470126
0.579971663572512,2415.62982470126
0.581312985646394,2415.63982470126
0.580609775776801,2415.64982470126
0.576871122827122,2415.65982470126
0.571499769333002,2415.66982470126
0.564007953162076,2415.67982470126
0.555798874600201,2415.68982470126
0.546538577081404,2415.69982470126
0.536564998834778,2415.70982470126
0.526122020854419,2415.71982470126
0.515274725564109,2415.72982470126
0.504780405608512,2415.73982470126
0.493633837587328,2415.74982470126
0.482373687482123,2415.75982470126
0.471194482578602,2415.76982470126
0.460345143767627,2415.77982470126
0.449643733407264,2415.78982470126
0.439549964484643,2415.79982470126
0.429383350407677,2415.80982470126
0.419067469211746,2415.81982470126
0.408008712943945,2415.82982470126
0.397085254994321,2415.83982470126
0.385826628146861,2415.84982470126
0.375245753883894,2415.85982470126
0.365422616371001,2415.86982470126
0.356564543230785,2415.87982470126
0.347640491193211,2415.88982470126
0.338609626294522,2415.89982470126
0.329735188905796,2415.90982470126
0.320600485241971,2415.91982470126
0.311750124674011,2415.92982470126
0.303759953627455,2415.93982470126
0.296406151714208,2415.94982470126
0.289533629219328,2415.95982470126
0.282814388060554,2415.96982470126
0.276031678308725,2415.97982470126
0.268415493491981,2415.98982470126
0.260711768222613,2415.99982470126
0.252228005813825,2416.00982470126
0.243989208513557,2416.01982470126
0.235067314479805,2416.02982470126
0.226452962379919,2416.03982470126
0.217939510564797,2416.04982470126
0.209629600584646,2416.05982470126
0.201545986072845,2416.06982470126
0.193120247900651,2416.07982470126
0.184830672739225,2416.08982470126
0.175784116899041,2416.09982470126
0.166481787400593,2416.10982470126
0.156900713227199,2416.11982470126
0.1470244097671,2416.12982470126
0.13754467029719,2416.13982470126
0.12799702694706,2416.14982470126
0.119700056435973,2416.15982470126
0.111559574495009,2416.16982470126
0.103558411977607,2416.17982470126
0.0956063455436836,2416.18982470126
0.0875894883218521,2416.19982470126
0.0800614522438133,2416.20982470126
0.072705146729643,2416.21982470126
0.0654986994199956,2416.22982470126
0.0582503741288762,2416.23982470126
0.0506958232241303,2416.24982470126
0.0427773802995053,2416.25982470126
0.0342133854592834,2416.26982470126
0.0252532317005781,2416.27982470126
0.0169320085533177,2416.28982470126
0.0108047190852885,2416.29982470126
0.0093040977904152,2416.30982470126
0.0191037001363153,2416.31982470126
0.0451732838954637,2416.32982470126
0.0900669300844058,2416.33982470126
0.152580886250712,2416.34982470126
0.228624128097516,2416.35982470126
0.310665344176981,2416.36982470126
0.393232264979767,2416.37982470126
0.471060040744619,2416.38982470126
0.540492364805677,2416.39982470126
0.598941599739659,2416.40982470126
0.645349598869484,2416.41982470126
0.679632474545698,2416.42982470126
0.702294286633855,2416.43982470126
0.714211273363746,2416.44982470126
0.716547460965055,2416.45982470126
0.711771568939621,2416.46982470126
0.701053522114929,2416.47982470126
0.687830350032744,2416.48982470126
0.673135176545227,2416.49982470126
0.659010295487314,2416.50982470126
0.646910710925624,2416.51982470126
0.637222216507421,2416.52982470126
0.630394169621544,2416.53982470126
0.626410501122475,2416.54982470126
0.624590123009694,2416.55982470126
0.624484975767757,2416.56982470126
0.625706458304791,2416.57982470126
0.626133465659093,2416.58982470126
0.624855870999885,2416.59982470126
0.621356947629926,2416.60982470126
0.614929583647563,2416.61982470126
0.606558353080145,2416.62982470126
0.597205230022196,2416.63982470126
0.588223733000954,2416.64982470126
0.580461729553257,2416.65982470126
0.575150479642806,2416.66982470126
0.572362682484236,2416.67982470126
0.572146667157352,2416.68982470126
0.57443409242554,2416.69982470126
0.579383775953475,2416.70982470126
0.58611625965348,2416.71982470126
0.593936905717563,2416.72982470126
0.601893412105471,2416.73982470126
0.609363377301848,2416.74982470126
0.614742312543886,2416.75982470126
0.61815567330015,2416.76982470126
0.619334154621145,2416.77982470126
0.618392346650559,2416.78982470126
0.615512765345375,2416.79982470126
0.610484706976455,2416.80982470126
0.603476935918163,2416.81982470126
0.59493380421708,2416.82982470126
0.584824009415278,2416.83982470126
0.573872426229367,2416.84982470126
0.562192297696116,2416.85982470126
0.550187542643922,2416.86982470126
0.537402193168836,2416.87982470126
0.524520754525141,2416.88982470126
0.511289554753893,2416.89982470126
0.498860799402336,2416.90982470126
0.486806688166279,2416.91982470126
0.475506940587473,2416.92982470126
0.464507739446615,2416.93982470126
0.454339730510709,2416.94982470126
0.444324271393807,2416.95982470126
0.433853452558303,2416.96982470126
0.423360526194454,2416.97982470126
0.412818149105697,2416.98982470126
0.40218545650198,2416.99982470126
0.391290150648686,2417.00982470126
0.38101350213304,2417.01982470126
0.37104802521413,2417.02982470126
0.361553049770641,2417.03982470126
0.352469679854405,2417.04982470126
0.3430818210505,2417.05982470126
0.334016688914679,2417.06982470126
0.324673064921693,2417.07982470126
0.315745534267626,2417.08982470126
0.306708176890119,2417.09982470126
0.298269114870199,2417.10982470126
0.289434286486064,2417.11982470126
0.28051904893044,2417.12982470126
0.271639142680577,2417.13982470126
0.263554497380664,2417.14982470126
0.255689332320681,2417.15982470126
0.248039397966337,2417.16982470126
0.240833498337851,2417.17982470126
0.233815232724842,2417.18982470126
0.226686084452209,2417.19982470126
0.218563449985635,2417.20982470126
0.209769794071362,2417.21982470126
0.199582517909431,2417.22982470126
0.188816089966918,2417.23982470126
0.178453922679669,2417.24982470126
0.170304575087154,2417.25982470126
0.168764996076885,2417.26982470126
0.178798767881421,2417.27982470126
0.2055395036886,2417.28982470126
0.251457372337794,2417.29982470126
0.314705700708507,2417.30982470126
0.391464314684179,2417.31982470126
0.475740565675089,2417.32982470126
0.561294168267619,2417.33982470126
0.642988547175495,2417.34982470126
0.716939787697245,2417.35982470126
0.779786540636022,2417.36982470126
0.830082039905158,2417.37982470126
0.86705526253037,2417.38982470126
0.890341304476187,2417.39982470126
0.901775349489036,2417.40982470126
0.902996891467135,2417.41982470126
0.89707351937761,2417.42982470126
0.885967045582686,2417.43982470126
0.872295436448958,2417.44982470126
0.858446254479401,2417.45982470126
0.846027740937825,2417.46982470126
0.835515680174725,2417.47982470126
0.827551300391429,2417.48982470126
0.821853013945432,2417.49982470126
0.818250806381491,2417.50982470126
0.816565152770571,2417.51982470126
0.815371257286233,2417.52982470126
0.814392116313741,2417.53982470126
0.81236591357547,2417.54982470126
0.808557613591448,2417.55982470126
0.801453093362857,2417.56982470126
0.790960438366077,2417.57982470126
0.778136874146203,2417.58982470126
0.764312759974257,2417.59982470126
0.751451791435694,2417.60982470126
0.740996489069343,2417.61982470126
0.733548585601923,2417.62982470126
0.729428338304692,2417.63982470126
0.728352956828335,2417.64982470126
0.73007807498405,2417.65982470126
0.733990731704874,2417.66982470126
0.740027588678447,2417.67982470126
0.746545304071474,2417.68982470126
0.752600814841311,2417.69982470126
0.757947355685621,2417.70982470126
0.76139080125592,2417.71982470126
0.762663676498035,2417.72982470126
0.761799226678289,2417.73982470126
0.758610446118618,2417.74982470126
0.753731882239655,2417.75982470126
0.746667847665781,2417.76982470126
0.73788930827886,2417.77982470126
0.726981389840697,2417.78982470126
0.715346353414097,2417.79982470126
0.702401647350862,2417.80982470126
0.689116254609098,2417.81982470126
0.674742187705281,2417.82982470126
0.660153719882197,2417.83982470126
0.645112883973104,2417.84982470126
0.630365228181455,2417.85982470126
0.615951811897522,2417.86982470126
0.601837173709512,2417.87982470126
0.588429506860425,2417.88982470126
0.574515151484493,2417.89982470126
0.560513291796981,2417.90982470126
0.546493618541818,2417.91982470126
0.532145841019057,2417.92982470126
0.518293783344172,2417.93982470126
0.505176021848256,2417.94982470126
0.49235471800776,2417.95982470126
0.480623786876342,2417.96982470126
0.469838484279071,2417.97982470126
0.459243443546459,2417.98982470126
0.448742232570973,2417.99982470126
0.437838576877207,2418.00982470126
0.426977586439157,2418.01982470126
0.415574838009361,2418.02982470126
0.404085781073811,2418.03982470126
0.392812660834112,2418.04982470126
0.381408800510017,2418.05982470126
0.370056397497857,2418.06982470126
0.358396050079963,2418.07982470126
0.34707994855963,2418.08982470126
0.335720080992236,2418.09982470126
0.324384055185058,2418.10982470126
0.31336037185112,2418.11982470126
0.302078819743448,2418.12982470126
0.29105404094387,2418.13982470126
0.280181180626238,2418.14982470126
0.269162033398001,2418.15982470126
0.258205221319664,2418.16982470126
0.24698135466317,2418.17982470126
0.235976897887855,2418.18982470126
0.224999850930635,2418.19982470126
0.214311626204023,2418.20982470126
0.203512880430127,2418.21982470126
0.193061397165996,2418.22982470126
0.1829813977508,2418.23982470126
0.172784784122674,2418.24982470126
0.162674173355895,2418.25982470126
0.152746388760084,2418.26982470126
0.143383253551796,2418.27982470126
0.134215882368372,2418.28982470126
0.125622064944821,2418.29982470126
0.11700313944704,2418.30982470126
0.10773805437836,2418.31982470126
0.0983570840595118,2418.32982470126
0.0885474925973758,2418.33982470126
0.0785433468804061,2418.34982470126
0.0674152398126381,2418.35982470126
0.0558242423939937,2418.36982470126
0.0444047082483407,2418.37982470126
0.0357152126855987,2418.38982470126
0.0343831899842855,2418.39982470126
0.0477215300602395,2418.40982470126
0.0817086555977274,2418.41982470126
0.139759406508006,2418.42982470126
0.219225591907769,2418.43982470126
0.31347287430145,2418.44982470126
0.414781998884975,2418.45982470126
0.515633212604334,2418.46982470126
0.610235687436948,2418.47982470126
0.694776962808087,2418.48982470126
0.766041240821714,2418.49982470126
0.823208802475682,2418.50982470126
0.865658405797479,2418.51982470126
0.893238243260407,2418.52982470126
0.906863338011684,2418.53982470126
0.908405517164423,2418.54982470126
0.900235987035447,2418.55982470126
0.886208623275356,2418.56982470126
0.868563783228563,2418.57982470126
0.850617058359313,2418.58982470126
0.833328815650506,2418.59982470126
0.818059801745976,2418.60982470126
0.804574708870778,2418.61982470126
0.794050271055638,2418.62982470126
0.786113309704776,2418.63982470126
0.780532963827822,2418.64982470126
0.776652388281963,2418.65982470126
0.773816115941844,2418.66982470126
0.770374012538311,2418.67982470126
0.765579689133952,2418.68982470126
0.75835306314357,2418.69982470126
0.748375041700814,2418.70982470126
0.73668585015104,2418.71982470126
0.724325234115907,2418.72982470126
0.712608697351391,2418.73982470126
0.702325669036334,2418.74982470126
0.694935904628235,2418.75982470126
0.691393722853084,2418.76982470126
0.690741536457894,2418.77982470126
0.693200775729139,2418.78982470126
0.69816213167268,2418.79982470126
0.704904846189515,2418.80982470126
0.711974268073029,2418.81982470126
0.719059544451366,2418.82982470126
0.724875564011879,2418.83982470126
0.72867417504211,2418.84982470126
0.730918222944795,2418.85982470126
0.730784569052723,2418.86982470126
0.728047275796197,2418.87982470126
0.722804285783865,2418.88982470126
0.714778789642821,2418.89982470126
0.704422407526474,2418.90982470126
0.692344431556031,2418.91982470126
0.679086067772466,2418.92982470126
0.665002635073376,2418.93982470126
0.650537824710693,2418.94982470126
0.635285626376232,2418.95982470126
0.619755723900174,2418.96982470126
0.604493723982129,2418.97982470126
0.589459255139882,2418.98982470126
0.573980410761911,2418.99982470126
0.55836084662535,2419.00982470126
0.542197970783985,2419.01982470126
0.526246346012316,2419.02982470126
0.510127434202305,2419.03982470126
0.494882920632588,2419.04982470126
0.479533898319509,2419.05982470126
0.464337325732777,2419.06982470126
0.449734966304514,2419.07982470126
0.436114988320643,2419.08982470126
0.4231313489379,2419.09982470126
0.410982859824016,2419.10982470126
0.398833743615315,2419.11982470126
0.386720995478206,2419.12982470126
0.374833848019029,2419.13982470126
0.362895089113718,2419.14982470126
0.350555934178458,2419.15982470126
0.338673727486881,2419.16982470126
0.32700476546932,2419.17982470126
0.315895594187082,2419.18982470126
0.30480725748938,2419.19982470126
0.294005977254644,2419.20982470126
0.283260884112481,2419.21982470126
0.272367209295155,2419.22982470126
0.261326959644033,2419.23982470126
0.250331458787315,2419.24982470126
0.23856795647809,2419.25982470126
0.226761722693191,2419.26982470126
0.215315662059078,2419.27982470126
0.203505584953732,2419.28982470126
0.19208596567925,2419.29982470126
0.181034158804076,2419.30982470126
0.169561689528856,2419.31982470126
0.158282516431242,2419.32982470126
0.147283507860628,2419.33982470126
0.136721114654262,2419.34982470126
0.125901088502336,2419.35982470126
0.114695835006488,2419.36982470126
0.102995036696429,2419.37982470126
0.0913944017954143,2419.38982470126
0.0801074832998217,2419.39982470126
0.069246570200869,2419.40982470126
0.0578233578856029,2419.41982470126
0.0466347655247994,2419.42982470126
0.0353221700351095,2419.43982470126
0.024232952231347,2419.44982470126
0.0137661613850145,2419.45982470126
0.00415271904614581,2419.46982470126
-0.00467285219580693,2419.47982470126
-0.0129145562595706,2419.48982470126
-0.020660056928685,2419.49982470126
-0.0289578246027275,2419.50982470126
-0.0377897236977909,2419.51982470126
-0.0471777420915341,2419.52982470126
-0.0576205205077151,2419.53982470126
-0.0688308539595212,2419.54982470126
-0.0798369229942733,2419.55982470126
-0.0895231780753399,2419.56982470126
-0.0953984233072324,2419.57982470126
-0.0915625842263636,2419.58982470126
-0.0706067481715352,2419.59982470126
-0.0265441621210252,2419.60982470126
0.0430531387425183,2419.61982470126
0.133864809095114,2419.62982470126
0.238691583287824,2419.63982470126
0.348595099663472,2419.64982470126
0.455729651605318,2419.65982470126
0.554408286879365,2419.66982470126
0.641359881524202,2419.67982470126
0.714220209512449,2419.68982470126
0.772333346029213,2419.69982470126
0.814859531560944,2419.70982470126
0.842314364068844,2419.71982470126
0.855312042353438,2419.72982470126
0.855984544796233,2419.73982470126
0.846781570676894,2419.74982470126
0.83056822683166,2419.75982470126
0.810879117043974,2419.76982470126
0.78972007620611,2419.77982470126
0.768745490819507,2419.78982470126
0.749488275122494,2419.79982470126
0.732189174769594,2419.80982470126
0.717383178146222,2419.81982470126
0.705276402024888,2419.82982470126
0.696111877142379,2419.83982470126
0.688740682382987,2419.84982470126
0.68259918901707,2419.85982470126
0.676438127772823,2419.86982470126
0.668934851065511,2419.87982470126
0.659836508867082,2419.88982470126
0.648099428430374,2419.89982470126
0.635636831094648,2419.90982470126
0.623004117029676,2419.91982470126
0.611370233514145,2419.92982470126
0.602835985054656,2419.93982470126
0.598096847815623,2419.94982470126
0.597607027712909,2419.95982470126
0.601120312364489,2419.96982470126
0.607968168050909,2419.97982470126
0.616485049941909,2419.98982470126
0.626500915972477,2419.99982470126
0.63670362757851,2420.00982470126
0.646669279406354,2420.01982470126
0.65528820985934,2420.02982470126
0.661874327777981,2420.03982470126
0.665874158300382,2420.04982470126
0.666850173277319,2420.05982470126
0.664467011743765,2420.06982470126
0.658386759726473,2420.07982470126
0.649287361102754,2420.08982470126
0.638246339951552,2420.09982470126
0.624789843521521,2420.10982470126
0.610401582510466,2420.11982470126
0.595252389570131,2420.12982470126
0.579136362603217,2420.13982470126
0.562996805859036,2420.14982470126
0.547004660307186,2420.15982470126
0.530959174999188,2420.16982470126
0.514613421776099,2420.17982470126
0.498086155697829,2420.18982470126
0.480990139464476,2420.19982470126
0.463881872774575,2420.20982470126
0.446894267200652,2420.21982470126
0.429478874079205,2420.22982470126
0.413126068552456,2420.23982470126
0.396935372754592,2420.24982470126
0.381574153818098,2420.25982470126
0.367242767765033,2420.26982470126
0.353821516434802,2420.27982470126
0.341125745873043,2420.28982470126
0.32851515318264,2420.29982470126
0.316826167564456,2420.30982470126
0.305351419979369,2420.31982470126
0.294485696504129,2420.32982470126
0.284548567693433,2420.33982470126
0.274469504452944,2420.34982470126
0.263838333868603,2420.35982470126
0.253271065509175,2420.36982470126
0.242661125459414,2420.37982470126
0.231639151520053,2420.38982470126
0.220902793350031,2420.39982470126
0.210056440495477,2420.40982470126
0.1994014327694,2420.41982470126
0.18891599833354,2420.42982470126
0.178444018900518,2420.43982470126
0.167909567742211,2420.44982470126
0.156930385775444,2420.45982470126
0.14620846557309,2420.46982470126
0.13477780735212,2420.47982470126
0.123609420447502,2420.48982470126
0.112304379558527,2420.49982470126
0.101251312283939,2420.50982470126
0.0908243892073145,2420.51982470126
0.0806403747469958,2420.52982470126
0.0704031976201713,2420.53982470126
0.0598795626864914,2420.54982470126
0.0500168128124032,2420.55982470126
0.0400128686167889,2420.56982470126
0.0291880111383965,2420.57982470126
0.0181258752046392,2420.58982470126
0.00624359453144552,2420.59982470126
-0.00538352661715921,2420.60982470126
-0.0162896955496639,2420.61982470126
-0.0225731452090576,2420.62982470126
-0.0184640311683237,2420.63982470126
0.00403680236760448,2420.64982470126
0.0509109887611583,2420.65982470126
0.122205816226418,2420.66982470126
0.214714148814601,2420.67982470126
0.320025074339187,2420.68982470126
0.430373985044642,2420.69982470126
0.53753623764163,2420.70982470126
0.636248882193062,2420.71982470126
0.722920460488818,2420.72982470126
0.794959349882871,2420.73982470126
0.850731581058082,2420.74982470126
0.889817973666253,2420.75982470126
0.912619905771382,2420.76982470126
0.920839756745495,2420.77982470126
0.917105090141277,2420.78982470126
0.904645092330341,2420.79982470126
0.88568061551924,2420.80982470126
0.863116942934507,2420.81982470126
0.839423339664912,2420.82982470126
0.816079987100442,2420.83982470126
0.795197742718254,2420.84982470126
0.776414080396533,2420.85982470126
0.760161877860524,2420.86982470126
0.74655057637369,2420.87982470126
0.734244973976765,2420.88982470126
0.723200051006887,2420.89982470126
0.711978183723157,2420.90982470126
0.699663114477667,2420.91982470126
0.68602396254199,2420.92982470126
0.670524978922969,2420.93982470126
0.653256475485191,2420.94982470126
0.635993616678796,2420.95982470126
0.620244500560506,2420.96982470126
0.608036457546055,2420.97982470126
0.59957337073713,2420.98982470126
0.596166740609409,2420.99982470126
0.598102761112023,2421.00982470126
0.604526906242971,2421.01982470126
0.61408660488593,2421.02982470126
0.625289287955217,2421.03982470126
0.637169416833254,2421.04982470126
0.648123181945442,2421.05982470126
0.657539319630582,2421.06982470126
0.664746050277019,2421.07982470126
0.669328713788398,2421.08982470126
0.671310444273129,2421.09982470126
0.669825473082695,2421.10982470126
0.664728853056035,2421.11982470126
0.656434870775848,2421.12982470126
0.645032663431056,2421.13982470126
0.631453681306301,2421.14982470126
0.615984471293055,2421.15982470126
0.598962069421943,2421.16982470126
0.581323318741687,2421.17982470126
0.562879804394636,2421.18982470126
0.543727527734375,2421.19982470126
0.524390348212864,2421.20982470126
0.505005697503028,2421.21982470126
0.486222443769503,2421.22982470126
0.468072570128899,2421.23982470126
0.450264042977462,2421.24982470126
0.432664801489159,2421.25982470126
0.415341524127725,2421.26982470126
0.398940178588742,2421.27982470126
0.382676041353063,2421.28982470126
0.366934512577626,2421.29982470126
0.351232045966781,2421.30982470126
0.335956997334612,2421.31982470126
0.320820579419482,2421.32982470126
0.306024835937149,2421.33982470126
0.291985733374123,2421.34982470126
0.278446059466994,2421.35982470126
0.265057761160475,2421.36982470126
0.252259364361593,2421.37982470126
0.239322090038649,2421.38982470126
0.226589783593787,2421.39982470126
0.213766410408559,2421.40982470126
0.200865885531683,2421.41982470126
0.188675605334992,2421.42982470126
0.17651336212219,2421.43982470126
0.164424974219447,2421.44982470126
0.152508903708591,2421.45982470126
0.140987778558061,2421.46982470126
0.128835688564753,2421.47982470126
0.116425737978479,2421.48982470126
0.103916896027677,2421.49982470126
0.0909737290066307,2421.50982470126
0.0783849798608516,2421.51982470126
0.0658127595372113,2421.52982470126
0.0535120453909887,2421.53982470126
0.040925649125536,2421.54982470126
0.0288122424765749,2421.55982470126
0.0173579890823178,2421.56982470126
0.00657664424925791,2421.57982470126
-0.00368142159874082,2421.58982470126
-0.0132328815083728,2421.59982470126
-0.0224934918503079,2421.60982470126
-0.0319366120792717,2421.61982470126
-0.0415342867917555,2421.62982470126
-0.0509975383693068,2421.63982470126
-0.0611399635327078,2421.64982470126
-0.0719059089464349,2421.65982470126
-0.0833228725129933,2421.66982470126
-0.0948006021579178,2421.67982470126
-0.105091996311144,2421.68982470126
-0.110677417146817,2421.69982470126
-0.105026070142908,2421.70982470126
-0.0796267787530271,2421.71982470126
-0.0273425607099611,2421.72982470126
0.0522025542742796,2421.73982470126
0.154818505193132,2421.74982470126
0.272204511658663,2421.75982470126
0.394839082356791,2421.76982470126
0.514592103537548,2421.77982470126
0.625191393183337,2421.78982470126
0.722210638101531,2421.79982470126
0.803027223642863,2421.80982470126
0.866172853103994,2421.81982470126
0.911522251091313,2421.82982470126
0.940278713463847,2421.83982470126
0.953883025536298,2421.84982470126
0.954641234228044,2421.85982470126
0.945344870054209,2421.86982470126
0.928571262613848,2421.87982470126
0.908000240674407,2421.88982470126
0.885574635203761,2421.89982470126
0.86345327478466,2421.90982470126
0.842388805335383,2421.91982470126
0.822809201579125,2421.92982470126
0.805779462144758,2421.93982470126
0.79112667665583,2421.94982470126
0.77921298969314,2421.95982470126
0.769658621103465,2421.96982470126
0.761464908013798,2421.97982470126
0.753795293903515,2421.98982470126
0.744751171565732,2421.99982470126
0.732682253178081,2422.00982470126
0.717948099343872,2422.01982470126
0.701280726611118,2422.02982470126
0.684184590786268,2422.03982470126
0.668430071124399,2422.04982470126
0.655649469637351,2422.05982470126
0.6465750277044,2422.06982470126
0.642473113575183,2422.07982470126
0.642718643318884,2422.08982470126
0.64709660849912,2422.09982470126
0.654584561987717,2422.10982470126
0.663432853269183,2422.11982470126
0.673567771448313,2422.12982470126
0.683290916424411,2422.13982470126
0.691621328130555,2422.14982470126
0.697751975537693,2422.15982470126
0.701296149350954,2422.16982470126
0.701335536320649,2422.17982470126
0.698287129703982,2422.18982470126
0.691703806268888,2422.19982470126
0.682149626809262,2422.20982470126
0.670434364408675,2422.21982470126
0.657142549465439,2422.22982470126
0.64240106450371,2422.23982470126
0.626247232468382,2422.24982470126
0.608981915581019,2422.25982470126
0.591296209881755,2422.26982470126
0.572716675371258,2422.27982470126
0.554088539760555,2422.28982470126
0.535417896752432,2422.29982470126
0.516076274780288,2422.30982470126
0.496552889547891,2422.31982470126
0.477028329151508,2422.32982470126
0.457327699040386,2422.33982470126
0.438483830070594,2422.34982470126
0.419700727555369,2422.35982470126
0.401188070898837,2422.36982470126
0.383337796157411,2422.37982470126
0.366018169303389,2422.38982470126
0.349198973147395,2422.39982470126
0.33337157038726,2422.40982470126
0.318114110061169,2422.41982470126
0.303010623915654,2422.42982470126
0.28860429913737,2422.43982470126
0.274436595576443,2422.44982470126
0.260725651995684,2422.45982470126
0.248095398575685,2422.46982470126
0.235303411620901,2422.47982470126
0.222858607839395,2422.48982470126
0.209817046200349,2422.49982470126
0.197329155134244,2422.50982470126
0.18452985508161,2422.51982470126
0.171634759058666,2422.52982470126
0.158808902048073,2422.53982470126
0.145591319060124,2422.54982470126
0.132651278343783,2422.55982470126
0.120668705268645,2422.56982470126
0.10928476382942,2422.57982470126
0.0979912457835349,2422.58982470126
0.0868591243944814,2422.59982470126
0.0755993340452322,2422.60982470126
0.0635615078874647,2422.61982470126
0.0508994159170519,2422.62982470126
0.0378503190497936,2422.63982470126
0.0245166350732382,2422.64982470126
0.0111953890503471,2422.65982470126
-0.00176666528068956,2422.66982470126
-0.0144672014188948,2422.67982470126
-0.026900848634263,2422.68982470126
-0.0387231698958772,2422.69982470126
-0.0497682972641399,2422.70982470126
-0.0600643424181862,2422.71982470126
-0.0695439096737879,2422.72982470126
-0.0789810569741187,2422.73982470126
-0.0883893157135929,2422.74982470126
-0.097703771939798,2422.75982470126
-0.107877990458119,2422.76982470126
-0.119237681724505,2422.77982470126
-0.132425762156605,2422.78982470126
-0.145331439755106,2422.79982470126
-0.156950457389524,2422.80982470126
-0.163779056783112,2422.81982470126
-0.159206843685422,2422.82982470126
-0.135625730331904,2422.83982470126
-0.0849074064028726,2422.84982470126
-0.00521376068175084,2422.85982470126
0.0987968693528851,2422.86982470126
0.218606483167653,2422.87982470126
0.344903701354058,2422.88982470126
0.468789949622352,2422.89982470126
0.583919998512603,2422.90982470126
0.685836644910253,2422.91982470126
0.771767826524812,2422.92982470126
0.839799659196676,2422.93982470126
0.88923702581204,2422.94982470126
0.92105985777438,2422.95982470126
0.937084319927224,2422.96982470126
0.940110487143129,2422.97982470126
0.932350505306108,2422.98982470126
0.916565926700728,2422.99982470126
0.89588834069233,2423.00982470126
0.872372283340699,2423.01982470126
0.848429391593487,2423.02982470126
0.824881425023773,2423.03982470126
0.803691030158616,2423.04982470126
0.784756837506804,2423.05982470126
0.769030993955046,2423.06982470126
0.756085453495342,2423.07982470126
0.744999537562803,2423.08982470126
0.735281099754674,2423.09982470126
0.725002707990149,2423.10982470126
0.71338318968669,2423.11982470126
0.700019957369978,2423.12982470126
0.684124030265855,2423.13982470126
0.666965258520513,2423.14982470126
0.649390844732155,2423.15982470126
0.633237457194855,2423.16982470126
0.62010380018662,2423.17982470126
0.610977771974801,2423.18982470126
0.606562145767009,2423.19982470126
0.60684678349884,2423.20982470126
0.61089516684063,2423.21982470126
0.618145032569182,2423.22982470126
0.627835265213389,2423.23982470126
0.637941038085552,2423.24982470126
0.648200908382398,2423.25982470126
0.65706982070548,2423.26982470126
0.664909769044611,2423.27982470126
0.670208690821905,2423.28982470126
0.672067994701746,2423.29982470126
0.670681094936814,2423.30982470126
0.665321361491802,2423.31982470126
0.656286400998842,2423.32982470126
0.644601777243517,2423.33982470126
0.6302820700336,2423.34982470126
0.614289852913387,2423.35982470126
0.596791466236055,2423.36982470126
0.5781619666799,2423.37982470126
0.558969644166989,2423.38982470126
0.539577226875648,2423.39982470126
0.520046563063821,2423.40982470126
0.500285558736888,2423.41982470126
0.480980967594554,2423.42982470126
0.460814166027706,2423.43982470126
0.441114972847951,2423.44982470126
0.421290691170795,2423.45982470126
0.402291654681411,2423.46982470126
0.384000057834239,2423.47982470126
0.366220546997097,2423.48982470126
0.350108301907055,2423.49982470126
0.334049054415752,2423.50982470126
0.318282744934332,2423.51982470126
0.302782640737009,2423.52982470126
0.287072060651396,2423.53982470126
0.271236795694157,2423.54982470126
0.256475655052407,2423.55982470126
0.242468301116132,2423.56982470126
0.228779043634482,2423.57982470126
0.216338463566316,2423.58982470126
0.203898350087328,2423.59982470126
0.191262703035362,2423.60982470126
0.17818826358841,2423.61982470126
0.164259666906251,2423.62982470126
0.150523678976912,2423.63982470126
0.137234439177803,2423.64982470126
0.123876259436657,2423.65982470126
0.110977827190555,2423.66982470126
0.0983631998541631,2423.67982470126
0.0862190877606177,2423.68982470126
0.073764143810874,2423.69982470126
0.0609734743714001,2423.70982470126
0.0480092427088158,2423.71982470126
0.0354535155579704,2423.72982470126
0.023189868176588,2423.73982470126
0.0108915194389508,2423.74982470126
-0.00127857310288318,2423.75982470126
-0.0136538597179205,2423.76982470126
-0.0261340017526166,2423.77982470126
-0.0383609919392182,2423.78982470126
-0.0495885458651603,2423.79982470126
-0.0595517859017985,2423.80982470126
-0.0687994877522423,2423.81982470126
-0.0783785651063059,2423.82982470126
-0.0883347011390146,2423.83982470126
-0.0992420360522483,2423.84982470126
-0.110687810605434,2423.85982470126
-0.123153859154884,2423.86982470126
-0.136419385728286,2423.87982470126
-0.149101101373868,2423.88982470126
-0.158054813033326,2423.89982470126
-0.157908320356011,2423.90982470126
-0.139942315317647,2423.91982470126
-0.0965510708572746,2423.92982470126
-0.0238171317127144,2423.93982470126
0.075275163191798,2423.94982470126
0.193348993572016,2423.95982470126
0.319904992130306,2423.96982470126
0.446179245128993,2423.97982470126
0.565039873074405,2423.98982470126
0.671158809341693,2423.99982470126
0.761226926827246,2424.00982470126
0.833121118537131,2424.01982470126
0.885649104727001,2424.02982470126
0.92063077125886,2424.03982470126
0.938957207958984,2424.04982470126
0.943626408065203,2424.05982470126
0.937628260115612,2424.06982470126
0.923212305725525,2424.07982470126
0.903541134226603,2424.08982470126
0.880410040893739,2424.09982470126
0.856011708903769,2424.10982470126
0.832037778860431,2424.11982470126
0.809148019889702,2424.12982470126
0.788140973611619,2424.13982470126
0.769747790067392,2424.14982470126
0.75356933527284,2424.15982470126
0.74021796900647,2424.16982470126
0.728292188600552,2424.17982470126
0.717552039195065,2424.18982470126
0.705293989698865,2424.19982470126
0.690806459382365,2424.20982470126
0.674102038438902,2424.21982470126
0.655362828457318,2424.22982470126
0.636324592724901,2424.23982470126
0.61862827798788,2424.24982470126
0.604165874750683,2424.25982470126
0.593957748962805,2424.26982470126
0.589153339673861,2424.27982470126
0.589681309205534,2424.28982470126
0.595304523459442,2424.29982470126
0.604433484079623,2424.30982470126
0.615819427540553,2424.31982470126
0.627855520297025,2424.32982470126
0.639522731840544,2424.33982470126
0.649394578136239,2424.34982470126
0.657080835517638,2424.35982470126
0.662020100800224,2424.36982470126
0.664456251785346,2424.37982470126
0.663481599935269,2424.38982470126
0.65919254010195,2424.39982470126
0.651075268385049,2424.40982470126
0.639202252262575,2424.41982470126
0.623992398266556,2424.42982470126
0.607101327587195,2424.43982470126
0.58889002199731,2424.44982470126
0.569877612639275,2424.45982470126
0.551558934976607,2424.46982470126
0.531434083566468,2424.47982470126
0.510225221997716,2424.48982470126
0.490145523587156,2424.49982470126
0.46878810615061,2424.50982470126
0.44744133855689,2424.51982470126
0.425320747663646,2424.52982470126
0.403662841829991,2424.53982470126
0.381431434333195,2424.54982470126
0.360139749450059,2424.55982470126
0.341091405257097,2424.56982470126
0.322438346347419,2424.57982470126
0.304117239948514,2424.58982470126
0.286156280622018,2424.59982470126
0.269527457558211,2424.60982470126
0.253038249346139,2424.61982470126
0.237327349835218,2424.62982470126
0.223368567392826,2424.63982470126
0.210264939545012,2424.64982470126
0.197196901988908,2424.65982470126
0.184551135616025,2424.66982470126
0.172618901530993,2424.67982470126
0.159143992684843,2424.68982470126
0.145495647123212,2424.69982470126
0.13296118291659,2424.70982470126
0.12070854729116,2424.71982470126
0.108957580993652,2424.72982470126
0.0970826238738605,2424.73982470126
0.0857105106602132,2424.74982470126
0.0730743681460816,2424.75982470126
0.0594546275063917,2424.76982470126
0.047288206806618,2424.77982470126
0.0342179803890835,2424.78982470126
0.0207454034787186,2424.79982470126
0.00671145552161052,2424.80982470126
-0.00668016533439127,2424.81982470126
-0.0208657087265164,2424.82982470126
-0.0354853328694477,2424.83982470126
-0.0475766087112931,2424.84982470126
-0.0604520684881881,2424.85982470126
-0.0725333159694607,2424.86982470126
-0.0852518825058666,2424.87982470126
-0.0973036760593263,2424.88982470126
-0.109470076161387,2424.89982470126
-0.120464898432985,2424.90982470126
-0.129985324908659,2424.91982470126
-0.139145441175708,2424.92982470126
-0.148734700731987,2424.93982470126
-0.159093482541205,2424.94982470126
-0.1691303116369,2424.95982470126
-0.18086915344509,2424.96982470126
-0.192647976931098,2424.97982470126
-0.203666189051247,2424.98982470126
-0.215541552932306,2424.99982470126
-0.227672601554869,2425.00982470126
-0.23753283090404,2425.01982470126
-0.239053901198133,2425.02982470126
-0.226036142760518,2425.03982470126
-0.187798583745723,2425.04982470126
-0.117900934267125,2425.05982470126
-0.0200729630556766,2425.06982470126
0.0980313177595666,2425.07982470126
0.22579418750888,2425.08982470126
0.354927825865211,2425.09982470126
0.476344834678476,2425.10982470126
0.585366988874317,2425.11982470126
0.679822371351974,2425.12982470126
0.755691516625988,2425.13982470126
0.812360982560012,2425.14982470126
0.849144625273573,2425.15982470126
0.869272419199123,2425.16982470126
0.873651022562452,2425.17982470126
0.866168430403297,2425.18982470126
0.851368630474786,2425.19982470126
0.829867697461587,2425.20982470126
0.804011008172493,2425.21982470126
0.775476424483526,2425.22982470126
0.747796993041693,2425.23982470126
0.720151589261541,2425.24982470126
0.694299659540585,2425.25982470126
0.672649840237274,2425.26982470126
0.653442840790101,2425.27982470126
0.63652906219081,2425.28982470126
0.620941380323996,2425.29982470126
0.607569857211626,2425.30982470126
0.591890649069696,2425.31982470126
0.574191974295468,2425.32982470126
0.555554368628261,2425.33982470126
0.53518518072846,2425.34982470126
0.514841088014612,2425.35982470126
0.496383360915296,2425.36982470126
0.482760824240235,2425.37982470126
0.473672909157852,2425.38982470126
0.470917902201884,2425.39982470126
0.475038428590729,2425.40982470126
0.483418828265313,2425.41982470126
0.494609570528322,2425.42982470126
0.507055939759413,2425.43982470126
0.520646250398589,2425.44982470126
0.532897779579237,2425.45982470126
0.544241944374337,2425.46982470126
0.554376810326383,2425.47982470126
0.561053595202296,2425.48982470126
0.56364440574362,2425.49982470126
0.561773014896094,2425.50982470126
0.556298033402141,2425.51982470126
0.546274148936369,2425.52982470126
0.533248967497129,2425.53982470126
0.519033402845631,2425.54982470126
0.501765728716515,2425.55982470126
0.483159951317405,2425.56982470126
0.462872584716368,2425.57982470126
0.442703213918849,2425.58982470126
0.42143544518578,2425.59982470126
0.400259333483952,2425.60982470126
0.380168273034099,2425.61982470126
0.3597793020833,2425.62982470126
0.339290347099242,2425.63982470126
0.318603520553905,2425.64982470126
0.299096351405795,2425.65982470126
0.278916404552313,2425.66982470126
0.259207064803044,2425.67982470126
0.241406883446556,2425.68982470126
0.223124827303207,2425.69982470126
0.205351092128604,2425.70982470126
0.187777720865938,2425.71982470126
0.171155465720033,2425.72982470126
0.154265015764855,2425.73982470126
0.138305285850149,2425.74982470126
0.124855664439191,2425.75982470126
0.111486981684872,2425.76982470126
0.0980924958837366,2425.77982470126
0.0845896203860157,2425.78982470126
0.0716880146018236,2425.79982470126
0.057388837381952,2425.80982470126
0.0442131802131649,2425.81982470126
0.0317520315916786,2425.82982470126
0.0189378053820877,2425.83982470126
0.00561968115598738,2425.84982470126
-0.0080674505427622,2425.85982470126
-0.0215241473837107,2425.86982470126
-0.0348901161589755,2425.87982470126
-0.0471084568140135,2425.88982470126
-0.0576659625985097,2425.89982470126
-0.0681579865574264,2425.90982470126
-0.079392243750653,2425.91982470126
-0.091702489149967,2425.92982470126
-0.104354211000521,2425.93982470126
-0.118213462303566,2425.94982470126
-0.13201980143981,2425.95982470126
-0.144547234233254,2425.96982470126
-0.157004980079423,2425.97982470126
-0.169468614090552,2425.98982470126
-0.182003152311181,2425.99982470126
-0.193104277702747,2426.00982470126
-0.20386013261924,2426.01982470126
-0.214009128180172,2426.02982470126
-0.222209090269298,2426.03982470126
-0.231098167756821,2426.04982470126
-0.240357679270302,2426.05982470126
-0.250704432818328,2426.06982470126
-0.261661839940523,2426.07982470126
-0.274400171111962,2426.08982470126
-0.287434204180866,2426.09982470126
-0.299126866043643,2426.10982470126
-0.308378494520859,2426.11982470126
-0.310487203573975,2426.12982470126
-0.297878883491457,2426.13982470126
-0.260129347758403,2426.14982470126
-0.193269577834073,2426.15982470126
-0.098089314341261,2426.16982470126
0.0197740451707603,2426.17982470126
0.148333793512585,2426.18982470126
0.277605189318828,2426.19982470126
0.399392614159768,2426.20982470126
0.509015774075453,2426.21982470126
0.601141763674804,2426.22982470126
0.675627640281706,2426.23982470126
0.732583471917976,2426.24982470126
0.771219394205489,2426.25982470126
0.793421625530693,2426.26982470126
0.800658265203783,2426.27982470126
0.796789845369855,2426.28982470126
0.782650238340731,2426.29982470126
0.762860536899146,2426.30982470126
0.741299135058882,2426.31982470126
0.71787710383599,2426.32982470126
0.69457898486612,2426.33982470126
0.671046543764385,2426.34982470126
0.64960084250858,2426.35982470126
0.628311566319544,2426.36982470126
0.608655616280334,2426.37982470126
0.59276152273687,2426.38982470126
0.578666710097823,2426.39982470126
0.565956545400961,2426.40982470126
0.552423874569631,2426.41982470126
0.537530864765486,2426.42982470126
0.519471586620227,2426.43982470126
0.499470500788096,2426.44982470126
0.479816987885269,2426.45982470126
0.459898516695444,2426.46982470126
0.441866799168169,2426.47982470126
0.42666503598078,2426.48982470126
0.41632010930086,2426.49982470126
0.409969420819553,2426.50982470126
0.408513643646912,2426.51982470126
0.412494643912227,2426.52982470126
0.418897197321232,2426.53982470126
0.426668472942029,2426.54982470126
0.435007595136406,2426.55982470126
0.443671023849343,2426.56982470126
0.450793148074592,2426.57982470126
0.45623648840717,2426.58982470126
0.45974273853696,2426.59982470126
0.459909995887512,2426.60982470126
0.455965197133408,2426.61982470126
0.448261418347056,2426.62982470126
0.437118324006532,2426.63982470126
0.421584319860823,2426.64982470126
0.403420581736883,2426.65982470126
0.38417908305802,2426.66982470126
0.363797535308762,2426.67982470126
0.342169571634138,2426.68982470126
0.320170594447066,2426.69982470126
0.298174869692636,2426.70982470126
0.275340222829456,2426.71982470126
0.252505649608872,2426.72982470126
0.230358849741359,2426.73982470126
0.208094458874002,2426.74982470126
0.185133159613481,2426.75982470126
0.161941279396841,2426.76982470126
0.139389010886588,2426.77982470126
0.116785421365034,2426.78982470126
0.0952028318029837,2426.79982470126
0.0755073747771223,2426.80982470126
0.0559744310410635,2426.81982470126
0.0372544311406096,2426.82982470126
0.0186171647576074,2426.83982470126
0.00126455796099573,2426.84982470126
-0.0162456878269629,2426.85982470126
-0.03344219916818,2426.86982470126
-0.0495942033376248,2426.87982470126
-0.0665062704729059,2426.88982470126
-0.0836839172806532,2426.89982470126
-0.100873543361107,2426.90982470126
-0.117392188904572,2426.91982470126
-0.135084868893672,2426.92982470126
-0.152073920145153,2426.93982470126
-0.16775413479118,2426.94982470126
-0.182849170476528,2426.95982470126
-0.197903046792094,2426.96982470126
-0.212572188928821,2426.97982470126
-0.225850125692476,2426.98982470126
-0.240036845868326,2426.99982470126
-0.254001246520091,2427.00982470126
-0.266302860845475,2427.01982470126
-0.27895389552479,2427.02982470126
-0.293132119439652,2427.03982470126
-0.309143467533853,2427.04982470126
-0.326768850544471,2427.05982470126
-0.346728256371804,2427.06982470126
-0.366904647494311,2427.07982470126
-0.384867343220622,2427.08982470126
-0.40079196517629,2427.09982470126
-0.413472876441651,2427.10982470126
-0.422613728617107,2427.11982470126
-0.428593396078451,2427.12982470126
-0.433721957338724,2427.13982470126
-0.437922756440469,2427.14982470126
-0.44225164694938,2427.15982470126
-0.447425446820953,2427.16982470126
-0.453667304249329,2427.17982470126
-0.457014992596095,2427.18982470126
-0.45010364587433,2427.19982470126
-0.426477265831141,2427.20982470126
-0.378612981368479,2427.21982470126
-0.304738234564947,2427.22982470126
-0.209647450385203,2427.23982470126
-0.100361246558868,2427.24982470126
0.0152049158249847,2427.25982470126
0.130411738500951,2427.26982470126
0.238525988183247,2427.27982470126
0.336604581757888,2427.28982470126
0.421398658460542,2427.29982470126
0.490487478667171,2427.30982470126
0.542802915949193,2427.31982470126
0.577684540257464,2427.32982470126
0.59749767534259,2427.33982470126
0.601941614060595,2427.34982470126
0.594027010257244,2427.35982470126
0.577860544433994,2427.36982470126
0.554337153172,2427.37982470126
0.526220437829916,2427.38982470126
0.495831416787236,2427.39982470126
0.465798126694388,2427.40982470126
0.438030464053498,2427.41982470126
0.413185328275376,2427.42982470126
0.391382480189813,2427.43982470126
0.372557899130979,2427.44982470126
0.355454783117904,2427.45982470126
0.340502247650174,2427.46982470126
0.323851211090937,2427.47982470126
0.304015020355491,2427.48982470126
0.284474041076796,2427.49982470126
0.260303466769487,2427.50982470126
0.232960600718715,2427.51982470126
0.202499264045834,2427.52982470126
0.174951664128533,2427.53982470126
0.14958618074645,2427.54982470126
0.128270199188391,2427.55982470126
0.118137039878947,2427.56982470126
0.112429749782698,2427.57982470126
0.112689367792063,2427.58982470126
0.114634764487588,2427.59982470126
0.121069377066008,2427.60982470126
0.126572962643928,2427.61982470126
0.129364874335601,2427.62982470126
0.134974119710684,2427.63982470126
0.136049267870835,2427.64982470126
0.133869184946523,2427.65982470126
0.126463188263732,2427.66982470126
0.118563554743528,2427.67982470126
0.107705619301364,2427.68982470126
0.0936382417371358,2427.69982470126
0.0833781610757586,2427.70982470126
0.0696178295946569,2427.71982470126
0.0528247024913043,2427.72982470126
0.0318577611841509,2427.73982470126
0.0125050821760664,2427.74982470126
-0.00631711242833134,2427.75982470126
-0.0228097629956673,2427.76982470126
-0.0303659598358218,2427.77982470126
-0.0357381261568217,2427.78982470126
-0.0402954397815982,2427.79982470126
-0.047910164003967,2427.80982470126
-0.0571099301272808,2427.81982470126
-0.0726387419207255,2427.82982470126
-0.093064540423622,2427.83982470126
-0.11075612437399,2427.84982470126
-0.127933051168158,2427.85982470126
-0.141606770672623,2427.86982470126
-0.152566787828988,2427.87982470126
-0.155793203056922,2427.88982470126
-0.157418843941956,2427.89982470126
-0.158688346883229,2427.90982470126
-0.15590902972275,2427.91982470126
-0.157381183537795,2427.92982470126
-0.162619689405632,2427.93982470126
-0.175418243741658,2427.94982470126
-0.190205809538311,2427.95982470126
-0.209949733018536,2427.96982470126
-0.233424515267531,2427.97982470126
-0.252991059488744,2427.98982470126
-0.273713565525858,2427.99982470126
-0.292452257315184,2428.00982470126
-0.310843175475592,2428.01982470126
-0.324488369882258,2428.02982470126
-0.338509993240104,2428.03982470126
-0.353541853277698,2428.04982470126
-0.363401193842437,2428.05982470126
-0.37643258110253,2428.06982470126
-0.389578958958802,2428.07982470126
-0.405621803181414,2428.08982470126
-0.418871612919239,2428.09982470126
-0.434141181084453,2428.10982470126
-0.451546246054286,2428.11982470126
-0.464757121458573,2428.12982470126
-0.480717512696178,2428.13982470126
-0.496652015574987,2428.14982470126
-0.509657800023485,2428.15982470126
-0.510709161318713,2428.16982470126
-0.494955658711214,2428.17982470126
-0.456563773131612,2428.18982470126
-0.388693802528049,2428.19982470126
-0.301828492446531,2428.20982470126
-0.204828465411165,2428.21982470126
-0.108585230301167,2428.22982470126
-0.0168731529405456,2428.23982470126
0.0614030477470727,2428.24982470126
0.124169464500109,2428.25982470126
0.178111436398619,2428.26982470126
0.216167053771738,2428.27982470126
0.240940044748863,2428.28982470126
0.252077307731265,2428.29982470126
0.255208869520584,2428.30982470126
0.248951409848715,2428.31982470126
0.234533270587957,2428.32982470126
0.220178624408377,2428.33982470126
0.200812733038349,2428.34982470126
0.179310269841384,2428.35982470126
0.153080572287333,2428.36982470126
0.129220364901198,2428.37982470126
0.103844224787926,2428.38982470126
0.0780038958080425,2428.39982470126
0.0588670872528035,2428.40982470126
0.039836428992658,2428.41982470126
0.0222290986849376,2428.42982470126
0.00323259353633297,2428.43982470126
-0.0159767099676097,2428.44982470126
-0.0370135329484435,2428.45982470126
-0.0567654254992747,2428.46982470126
-0.0780572541948365,2428.47982470126
-0.100324342084153,2428.48982470126
-0.116579816863566,2428.49982470126
-0.131424694440943,2428.50982470126
-0.142594545775191,2428.51982470126
-0.152119456184711,2428.52982470126
-0.155260816504424,2428.53982470126
-0.15630844166119,2428.54982470126
-0.156004061117575,2428.55982470126
-0.148800235068328,2428.56982470126
-0.141491725249488,2428.57982470126
-0.134228976857916,2428.58982470126
-0.129737658906554,2428.59982470126
-0.124928499774987,2428.60982470126
-0.123581620017191,2428.61982470126
-0.125887237702191,2428.62982470126
-0.125847099349297,2428.63982470126
-0.12940785385014,2428.64982470126
-0.135367390632564,2428.65982470126
-0.146422011228536,2428.66982470126
-0.15738842250865,2428.67982470126
-0.171210347123945,2428.68982470126
-0.18741063594275,2428.69982470126
-0.199864713939109,2428.70982470126
-0.213706048393254,2428.71982470126
-0.228297527441912,2428.72982470126
-0.245996452262324,2428.73982470126
-0.262660325380278,2428.74982470126
-0.281743774432734,2428.75982470126
-0.301528170473237,2428.76982470126
-0.31704942509356,2428.77982470126
-0.334070597751411,2428.78982470126
-0.351130059502126,2428.79982470126
-0.369468431980778,2428.80982470126
-0.385913931438806,2428.81982470126
-0.402581475003047,2428.82982470126
-0.419404600515549,2428.83982470126
-0.43078173950733,2428.84982470126
-0.443201207401999,2428.85982470126
-0.455314399723847,2428.86982470126
-0.469390181026653,2428.87982470126
-0.481162282187454,2428.88982470126
-0.494367784904512,2428.89982470126
-0.509363980235853,2428.90982470126
-0.519217487049143,2428.91982470126
-0.530299291501304,2428.92982470126
-0.541148862722736,2428.93982470126
-0.55358127945243,2428.94982470126
-0.563650969093614,2428.95982470126
-0.575487983966088,2428.96982470126
-0.589240445907216,2428.97982470126
-0.597809622075603,2428.98982470126
-0.60805676336779,2428.99982470126
-0.61779086915436,2429.00982470126
-0.629021123974032,2429.01982470126
-0.637993108489536,2429.02982470126
-0.647741733636923,2429.03982470126
-0.658763903282358,2429.04982470126
-0.664796647906762,2429.05982470126
-0.672595048333121,2429.06982470126
-0.680831623178387,2429.07982470126
-0.691177159143694,2429.08982470126
-0.700837312659908,2429.09982470126
-0.713156468332462,2429.10982470126
-0.727464286499233,2429.11982470126
-0.737225939339065,2429.12982470126
-0.746251973163153,2429.13982470126
-0.749792876593081,2429.14982470126
-0.743200758943355,2429.15982470126
-0.717726506935049,2429.16982470126
-0.67274784216818,2429.17982470126
-0.609537102297335,2429.18982470126
-0.52795359934959,2429.19982470126
-0.441041745946898,2429.20982470126
-0.354762295193462,2429.21982470126
-0.277066062449046,2429.22982470126
-0.20692087913703,2429.23982470126
-0.151027946464614,2429.24982470126
-0.109718191403857,2429.25982470126
-0.0755713633973227,2429.26982470126
-0.0555327723642991,2429.27982470126
-0.0449293674137085,2429.28982470126
-0.0448694904115808,2429.29982470126
-0.0481756512923004,2429.30982470126
-0.0579419109123329,2429.31982470126
-0.0722113707844708,2429.32982470126
-0.0832428905690756,2429.33982470126
-0.0957686493453394,2429.34982470126
-0.107810163805168,2429.35982470126
-0.122079521886733,2429.36982470126
-0.132868983383144,2429.37982470126
-0.143723433551537,2429.38982470126
-0.154301974263725,2429.39982470126
-0.158512131672271,2429.40982470126
-0.163055445574511,2429.41982470126
-0.167836808503432,2429.42982470126
-0.175851850140819,2429.43982470126
-0.184570794239139,2429.44982470126
-0.195671210795791,2429.45982470126
-0.204096494922411,2429.46982470126
-0.212242785970552,2429.47982470126
-0.219501301341867,2429.48982470126
-0.218984659106359,2429.49982470126
-0.215389647892906,2429.50982470126
-0.206920529722049,2429.51982470126
-0.194904591034604,2429.52982470126
-0.175279125388978,2429.53982470126
-0.15311220679449,2429.54982470126
-0.130806897184692,2429.55982470126
-0.103317501864896,2429.56982470126
-0.0801438309748705,2429.57982470126
-0.060252915837646,2429.58982470126
-0.0470930406977801,2429.59982470126
-0.035408419640485,2429.60982470126
-0.0284330382682591,2429.61982470126
-0.0253406693963007,2429.62982470126
-0.0200891536455325,2429.63982470126
-0.0183065187433901,2429.64982470126
-0.0193162213365776,2429.65982470126
-0.0252200959694549,2429.66982470126
-0.0299436868881415,2429.67982470126
-0.0368002074298064,2429.68982470126
-0.0458750047989167,2429.69982470126
-0.0519695418821474,2429.70982470126
-0.0621826222957565,2429.71982470126
-0.0749250972213235,2429.72982470126
-0.0906511350377212,2429.73982470126
-0.104349321594445,2429.74982470126
-0.118599982019022,2429.75982470126
-0.133542583009688,2429.76982470126
-0.144994481137614,2429.77982470126
-0.159477981935034,2429.78982470126
-0.175948419035358,2429.79982470126
-0.195515033861897,2429.80982470126
-0.212732258782386,2429.81982470126
-0.23133313522059,2429.82982470126
-0.251441331787116,2429.83982470126
-0.266443868582301,2429.84982470126
-0.282874878548514,2429.85982470126
-0.298464150063699,2429.86982470126
-0.31594070088851,2429.87982470126
-0.330278146367565,2429.88982470126
-0.345855231182226,2429.89982470126
-0.363720875368489,2429.90982470126
-0.376022494634594,2429.91982470126
-0.390211133541735,2429.92982470126
-0.404507079719508,2429.93982470126
-0.420657119294331,2429.94982470126
-0.434496164627532,2429.95982470126
-0.449789872992183,2429.96982470126
-0.466182071511883,2429.97982470126
-0.476869737207405,2429.98982470126
-0.488088185212263,2429.99982470126
-0.498374935763282,2430.00982470126
-0.510294320517662,2430.01982470126
-0.520101935965154,2430.02982470126
-0.531056301836993,2430.03982470126
-0.543362979215764,2430.04982470126
-0.551070457971802,2430.05982470126
-0.559305843227575,2430.06982470126
-0.566844185158078,2430.07982470126
-0.575917614432704,2430.08982470126
-0.58266967808382,2430.09982470126
-0.591927891187923,2430.10982470126
-0.602464614667529,2430.11982470126
-0.609548173234977,2430.12982470126
-0.61740384672819,2430.13982470126
-0.624906243532345,2430.14982470126
-0.633839963205569,2430.15982470126
-0.638904788357869,2430.16982470126
-0.644628338924828,2430.17982470126
-0.647664938140374,2430.18982470126
-0.638088618023901,2430.19982470126
-0.617246805477188,2430.20982470126
-0.578294142266276,2430.21982470126
-0.52277110994419,2430.22982470126
-0.449234300556488,2430.23982470126
-0.369317506677393,2430.24982470126
-0.291736028707074,2430.25982470126
-0.215402712457044,2430.26982470126
-0.151891661803918,2430.27982470126
-0.100490148681677,2430.28982470126
-0.0629509360063101,2430.29982470126
-0.034641730541285,2430.30982470126
-0.0171394705778811,2430.31982470126
-0.0103212770134627,2430.32982470126
-0.00482738271818238,2430.33982470126
-0.00641157085568583,2430.34982470126
-0.0113985964205319,2430.35982470126
-0.019945025206842,2430.36982470126
-0.0259614933602855,2430.37982470126
-0.0322782195276413,2430.38982470126
-0.0388843335882829,2430.39982470126
-0.0389318342922002,2430.40982470126
-0.0393305664090343,2430.41982470126
-0.0385795137887777,2430.42982470126
-0.0395291023391867,2430.43982470126
-0.0406643552964563,2430.44982470126
-0.0435539337038586,2430.45982470126
-0.0440647275240825,2430.46982470126
-0.0470222479948127,2430.47982470126
-0.0534573997605125,2430.48982470126
-0.0567348099660568,2430.49982470126
-0.0625231352769064,2430.50982470126
-0.0682264252554116,2430.51982470126
-0.074791511861424,2430.52982470126
-0.0781340902551759,2430.53982470126
-0.0817716520699479,2430.54982470126
-0.0858802617373175,2430.55982470126
-0.0835664786219913,2430.56982470126
-0.0817749566619429,2430.57982470126
-0.0783404957545834,2430.58982470126
-0.075183285938663,2430.59982470126
-0.0685489830333362,2430.60982470126
-0.0615475413180681,2430.61982470126
-0.054607845834369,2430.62982470126
-0.0427289883750615,2430.63982470126
-0.0325518158734992,2430.64982470126
-0.0231095470163324,2430.65982470126
-0.017754832240251,2430.66982470126
-0.0128227760854166,2430.67982470126
-0.01261234317216,2430.68982470126
-0.0166746510375709,2430.69982470126
-0.0183253996859538,2430.70982470126
-0.0229289621105994,2430.71982470126
-0.0285945552983173,2430.72982470126
-0.0364313169124542,2430.73982470126
-0.0423926362255441,2430.74982470126
-0.0497376566619138,2430.75982470126
-0.0589265421971429,2430.76982470126
-0.0644545318320141,2430.77982470126
-0.0732920500527856,2430.78982470126
-0.0843076447884783,2430.79982470126
-0.0991665894355213,2430.80982470126
-0.112959428592866,2430.81982470126
-0.127957833924541,2430.82982470126
-0.144829274288371,2430.83982470126
-0.155296600339224,2430.84982470126
-0.166653898524204,2430.85982470126
-0.1774598229989,2430.86982470126
-0.190368563887429,2430.87982470126
-0.201195592965715,2430.88982470126
-0.214407114331718,2430.89982470126
-0.229599387476599,2430.90982470126
-0.239175802216921,2430.91982470126
-0.249518644638821,2430.92982470126
-0.25834739009635,2430.93982470126
-0.26800213965895,2430.94982470126
-0.274487044052343,2430.95982470126
-0.28144158080449,2430.96982470126
-0.28912967475632,2430.97982470126
-0.291797329857526,2430.98982470126
-0.296280549458993,2430.99982470126
-0.301001001260842,2431.00982470126
-0.308731638768818,2431.01982470126
-0.31544269781282,2431.02982470126
-0.324061679675979,2431.03982470126
-0.333996738132735,2431.04982470126
-0.338436716851798,2431.05982470126
-0.342917228145019,2431.06982470126
-0.344772728163564,2431.07982470126
-0.345179566704859,2431.08982470126
-0.341181241078293,2431.09982470126
-0.338311760994203,2431.10982470126
-0.338622420876923,2431.11982470126
-0.338576919873814,2431.12982470126
-0.34461350779722,2431.13982470126
-0.354590899245703,2431.14982470126
-0.369798236579403,2431.15982470126
-0.38371887668905,2431.16982470126
-0.399904982805877,2431.17982470126
-0.416277285517863,2431.18982470126
-0.424372074847128,2431.19982470126
-0.428336751334626,2431.20982470126
-0.421893889015575,2431.21982470126
-0.402927897038072,2431.22982470126
-0.36445085680683,2431.23982470126
-0.312383110079488,2431.24982470126
-0.25202811583806,2431.25982470126
-0.183338944279863,2431.26982470126
-0.118856022555703,2431.27982470126
-0.0613305665923126,2431.28982470126
-0.0152085337942265,2431.29982470126
0.0241245695556587,2431.30982470126
0.0519981621267586,2431.31982470126
0.0693105263728163,2431.32982470126
0.0822820146587422,2431.33982470126
0.087010333905776,2431.34982470126
0.087421248716066,2431.35982470126
0.0831937217328268,2431.36982470126
0.0801939037927996,2431.37982470126
0.0748651013570414,2431.38982470126
0.0676917750267228,2431.39982470126
0.0644384263390811,2431.40982470126
0.0595409357283926,2431.41982470126
0.0534115658079931,2431.42982470126
0.0444670169500842,2431.43982470126
0.0350982464712717,2431.44982470126
0.0244995663406712,2431.45982470126
0.0167798817512357,2431.46982470126
0.00793595668534625,2431.47982470126
-0.00397316940991332,2431.48982470126
-0.0125994949174273,2431.49982470126
-0.0249376614507919,2431.50982470126
-0.0392290482013803,2431.51982470126
-0.0562240868073465,2431.52982470126
-0.0698284395208716,2431.53982470126
-0.0834737426519588,2431.54982470126
-0.0960972387288696,2431.55982470126
-0.101266380274471,2431.56982470126
-0.104593545780301,2431.57982470126
-0.104144475204921,2431.58982470126
-0.102315408199706,2431.59982470126
-0.0961643999500252,2431.60982470126
-0.0901824872128478,2431.61982470126
-0.0850694411444055,2431.62982470126
-0.0765256242538159,2431.63982470126
-0.0707580241508841,2431.64982470126
-0.0664578982091743,2431.65982470126
-0.0659319884409811,2431.66982470126
-0.0652287947758395,2431.67982470126
-0.0678571514832929,2431.68982470126
-0.0729458238630232,2431.69982470126
-0.0758593746645147,2431.70982470126
-0.0816773413297465,2431.71982470126
-0.0888456118378801,2431.72982470126
-0.0992940371413882,2431.73982470126
-0.108166430763131,2431.74982470126
-0.119837820086926,2431.75982470126
-0.133623035324485,2431.76982470126
-0.144099128216546,2431.77982470126
-0.156873143350619,2431.78982470126
-0.169855366015193,2431.79982470126
-0.185184444227441,2431.80982470126
-0.196573552668575,2431.81982470126
-0.209066123418341,2431.82982470126
-0.223198220802422,2431.83982470126
-0.23149992284754,2431.84982470126
-0.241330542348575,2431.85982470126
-0.250459932857499,2431.86982470126
-0.261206720268455,2431.87982470126
-0.269116522183718,2431.88982470126
-0.279006743208969,2431.89982470126
-0.290443436357909,2431.90982470126
-0.297366984898631,2431.91982470126
-0.305949466499521,2431.92982470126
-0.314801612079627,2431.93982470126
-0.324944431456011,2431.94982470126
-0.333534736089515,2431.95982470126
-0.343453380537493,2431.96982470126
-0.35451581814959,2431.97982470126
-0.362226470815955,2431.98982470126
-0.371018878503873,2431.99982470126
-0.380024501639349,2432.00982470126
-0.390744990863136,2432.01982470126
-0.398102314984147,2432.02982470126
-0.404773837597678,2432.03982470126
-0.410891070851613,2432.04982470126
-0.410291779650894,2432.05982470126
-0.408443059273857,2432.06982470126
-0.404158977993332,2432.07982470126
-0.400937252599923,2432.08982470126
-0.397605413145668,2432.09982470126
-0.399049807925561,2432.10982470126
-0.4066496143925,2432.11982470126
-0.41286985555364,2432.12982470126
-0.422804659481766,2432.13982470126
-0.433781819025009,2432.14982470126
-0.447971055961788,2432.15982470126
-0.460256377440186,2432.16982470126
-0.474067235161254,2432.17982470126
-0.490420244449513,2432.18982470126
-0.501363198136622,2432.19982470126
-0.514276625502804,2432.20982470126
-0.527966568651079,2432.21982470126
-0.544188893786131,2432.22982470126
-0.557258704638199,2432.23982470126
-0.570214050666024,2432.24982470126
-0.57966421276241,2432.25982470126
-0.57328107165921,2432.26982470126
-0.553437846772424,2432.27982470126
-0.515439108694296,2432.28982470126
-0.462732793545087,2432.29982470126
-0.396166044616255,2432.30982470126
-0.325988778457991,2432.31982470126
-0.257872219932038,2432.32982470126
-0.189665535361076,2432.33982470126
-0.129857585412001,2432.34982470126
-0.0775228921300329,2432.35982470126
-0.0356193239335607,2432.36982470126
6.36571160202985e-05,2432.37982470126
0.0259445086320566,2432.38982470126
0.0429575308995421,2432.39982470126
0.0576745857274098,2432.40982470126
0.0654161044489082,2432.41982470126
0.0683588267441273,2432.42982470126
0.0658458041669103,2432.43982470126
0.0613052998104223,2432.44982470126
0.0540436875185669,2432.45982470126
0.0491311269651423,2432.46982470126
0.0438385290641057,2432.47982470126
0.0380706326447375,2432.48982470126
0.0376183762346357,2432.49982470126
0.0366237913736117,2432.50982470126
0.0361638463482928,2432.51982470126
0.0336458846259964,2432.52982470126
0.0321939040060625,2432.53982470126
0.0276576082851049,2432.54982470126
0.0198544204812213,2432.55982470126
0.0147142501975868,2432.56982470126
0.00660494064048418,2432.57982470126
-0.00209843808153338,2432.58982470126
-0.0119658138340964,2432.59982470126
-0.0191466609073308,2432.60982470126
-0.0264503518741846,2432.61982470126
-0.0323453879628736,2432.62982470126
-0.0316502666288839,2432.63982470126
-0.0296311639403757,2432.64982470126
-0.0258363238086589,2432.65982470126
-0.0225152896573063,2432.66982470126
-0.0164160443667496,2432.67982470126
-0.0109802658692885,2432.68982470126
-0.00734664469028712,2432.69982470126
-6.46590814357716e-05,2432.70982470126
0.00418548636992067,2432.71982470126
0.00709925961107693,2432.72982470126
0.00500239087342744,2432.73982470126
0.00351568894506613,2432.74982470126
-0.00151999410996646,2432.75982470126
-0.010074356361699,2432.76982470126
-0.0146526600772097,2432.77982470126
-0.0223547917475216,2432.78982470126
-0.0311482533851711,2432.79982470126
-0.0434369226854293,2432.80982470126
-0.0544716095918355,2432.81982470126
-0.0668427327933412,2432.82982470126
-0.0810970762615261,2432.83982470126
-0.0904860343640093,2432.84982470126
-0.101434167048269,2432.85982470126
-0.113108877244122,2432.86982470126
-0.127117391693771,2432.87982470126
-0.140097245851903,2432.88982470126
-0.154496770539622,2432.89982470126
-0.170014044486841,2432.90982470126
-0.180027126961887,2432.91982470126
-0.190919279433619,2432.92982470126
-0.202111191235543,2432.93982470126
-0.215243254840462,2432.94982470126
-0.226188954780867,2432.95982470126
-0.238395911074466,2432.96982470126
-0.25053511480409,2432.97982470126
-0.258744368101576,2432.98982470126
-0.267247268279826,2432.99982470126
-0.276117071196846,2433.00982470126
-0.286964985676827,2433.01982470126
-0.296034925184913,2433.02982470126
-0.306268751969768,2433.03982470126
-0.317997375321077,2433.04982470126
-0.324569646395598,2433.05982470126
-0.332661471492295,2433.06982470126
-0.340608245959549,2433.07982470126
-0.351679966206786,2433.08982470126
-0.360383478050245,2433.09982470126
-0.370916920738543,2433.10982470126
-0.384025421127848,2433.11982470126
-0.391470005790301,2433.12982470126
-0.399972559966358,2433.13982470126
-0.407692600148745,2433.14982470126
-0.418276443496937,2433.15982470126
-0.426809704370609,2433.16982470126
-0.437608633576369,2433.17982470126
-0.450200115669841,2433.18982470126
-0.456915871869283,2433.19982470126
-0.465163675651676,2433.20982470126
-0.472680758968858,2433.21982470126
-0.481780937183752,2433.22982470126
-0.488213612394245,2433.23982470126
-0.495578894835207,2433.24982470126
-0.504666860843406,2433.25982470126
-0.508634901478564,2433.26982470126
-0.514527174351119,2433.27982470126
-0.521221721486799,2433.28982470126
-0.531224972635691,2433.29982470126
-0.539922206054898,2433.30982470126
-0.550706082399859,2433.31982470126
-0.561873687532589,2433.32982470126
-0.566719880944651,2433.33982470126
-0.566624054005565,2433.34982470126
-0.554154682625026,2433.35982470126
-0.525986829258339,2433.36982470126
-0.47502239425403,2433.37982470126
-0.407806913790182,2433.38982470126
-0.330225787890759,2433.39982470126
-0.24332334742802,2433.40982470126
-0.160216238863147,2433.41982470126
-0.0831828797355114,2433.42982470126
-0.0152827566732198,2433.43982470126
0.0433792891803547,2433.44982470126
0.091931250778832,2433.45982470126
0.132871344355807,2433.46982470126
0.162748248795948,2433.47982470126
0.182150181810928,2433.48982470126
0.196680787558779,2433.49982470126
0.203002165710635,2433.50982470126
0.203451349049871,2433.51982470126
0.197649974781845,2433.52982470126
0.19038775403544,2433.53982470126
0.180979899776536,2433.54982470126
0.169696139179093,2433.55982470126
0.163517921586494,2433.56982470126
0.157020110134476,2433.57982470126
0.150882289307557,2433.58982470126
0.144337405024394,2433.59982470126
0.139808589770442,2433.60982470126
0.133833704443756,2433.61982470126
0.125655275047519,2433.62982470126
0.120338429115065,2433.63982470126
0.111773677726908,2433.64982470126
0.101733225289455,2433.65982470126
0.0879563620289545,2433.66982470126
0.0763087615054781,2433.67982470126
0.0640885733596336,2433.68982470126
0.0522089949780911,2433.69982470126
0.0492838954175431,2433.70982470126
0.0489912318727995,2433.71982470126
0.0531466407650847,2433.72982470126
0.0586197687278492,2433.73982470126
0.0689577081792805,2433.74982470126
0.0790145048645443,2433.75982470126
0.0868202682176127,2433.76982470126
0.0998874286898783,2433.77982470126
0.109928770756959,2433.78982470126
0.118445193693825,2433.79982470126
0.12243001902009,2433.80982470126
0.125925556350763,2433.81982470126
0.125725334036367,2433.82982470126
0.121481335466493,2433.83982470126
0.119604890516705,2433.84982470126
0.113764673672959,2433.85982470126
0.106515463167583,2433.86982470126
0.0952420182257394,2433.87982470126
0.0849057237813859,2433.88982470126
0.072662121293669,2433.89982470126
0.0581081631562553,2433.90982470126
0.047270575303234,2433.91982470126
0.0347761036858397,2433.92982470126
0.0217881656528012,2433.93982470126
0.0064613525839418,2433.94982470126
-0.00702529987033867,2433.95982470126
-0.0222644062943286,2433.96982470126
-0.0385112260579187,2433.97982470126
-0.0502489989515485,2433.98982470126
-0.0629264336250881,2433.99982470126
-0.0751788719851626,2434.00982470126
-0.0896529039898808,2434.01982470126
-0.102124402339405,2434.02982470126
-0.115967043999305,2434.03982470126
-0.131453752761043,2434.04982470126
-0.141549605916523,2434.05982470126
-0.152263304733262,2434.06982470126
-0.162341857644005,2434.07982470126
-0.174597260683803,2434.08982470126
-0.184418750784843,2434.09982470126
-0.19584112464002,2434.10982470126
-0.209019189916597,2434.11982470126
-0.216383070801797,2434.12982470126
-0.224513399901178,2434.13982470126
-0.232785032936741,2434.14982470126
-0.242892592479928,2434.15982470126
-0.250834796036376,2434.16982470126
-0.260597396114524,2434.17982470126
-0.271666091744188,2434.18982470126
-0.278605673536552,2434.19982470126
-0.28639803109119,2434.20982470126
-0.294120709609757,2434.21982470126
-0.303612080557645,2434.22982470126
-0.309944859373526,2434.23982470126
-0.318076873575884,2434.24982470126
-0.328037048615838,2434.25982470126
-0.333447641504884,2434.26982470126
-0.34055933895176,2434.27982470126
-0.348400069836275,2434.28982470126
-0.358630305966507,2434.29982470126
-0.367305619841198,2434.30982470126
-0.377932616255003,2434.31982470126
-0.389998084422858,2434.32982470126
-0.397595302282748,2434.33982470126
-0.403832882685281,2434.34982470126
-0.404440377553288,2434.35982470126
-0.395622927996536,2434.36982470126
-0.367191289039243,2434.37982470126
-0.318958851714598,2434.38982470126
-0.252038030723978,2434.39982470126
-0.165177374956871,2434.40982470126
-0.072575056634641,2434.41982470126
0.0199395359339619,2434.42982470126
0.10546393487014,2434.43982470126
0.182776795671325,2434.44982470126
0.249953090665053,2434.45982470126
0.30803104109601,2434.46982470126
0.354748512813079,2434.47982470126
0.388872104211267,2434.48982470126
0.416313174546502,2434.49982470126
0.432673800654155,2434.50982470126
0.440527398898448,2434.51982470126
0.440139420938632,2434.52982470126
0.435629581235174,2434.53982470126
0.426277858786246,2434.54982470126
0.413633618167112,2434.55982470126
0.404563955527153,2434.56982470126
0.395400101667976,2434.57982470126
0.386983608762681,2434.58982470126
0.378498342902938,2434.59982470126
0.373751013506628,2434.60982470126
0.367768964612228,2434.61982470126
0.360435605430342,2434.62982470126
0.356479121980995,2434.63982470126
0.348249938649101,2434.64982470126
0.337679173620004,2434.65982470126
0.323043908161519,2434.66982470126
0.309002657516362,2434.67982470126
0.29360608980831,2434.68982470126
0.277897156572445,2434.69982470126
0.269649833826971,2434.70982470126
0.263535177676453,2434.71982470126
0.261102633886589,2434.72982470126
0.260307789739221,2434.73982470126
0.264610000535916,2434.74982470126
0.270398724018168,2434.75982470126
0.276854181659696,2434.76982470126
0.288624269459159,2434.77982470126
0.298275700708955,2434.78982470126
0.306885181624709,2434.79982470126
0.311701197769881,2434.80982470126
0.316363979472662,2434.81982470126
0.316962203798948,2434.82982470126
0.31409921277893,2434.83982470126
0.312448222253795,2434.84982470126
0.307396363239391,2434.85982470126
0.300456000404705,2434.86982470126
0.289592744444395,2434.87982470126
0.278309417372246,2434.88982470126
0.264032195941705,2434.89982470126
0.247770807467721,2434.90982470126
0.23486862851939,2434.91982470126
0.220436736723585,2434.92982470126
0.205668279965664,2434.93982470126
0.188648010438823,2434.94982470126
0.172910631606102,2434.95982470126
0.155175714258757,2434.96982470126
0.136253040991798,2434.97982470126
0.12217969217728,2434.98982470126
0.107260346857765,2434.99982470126
0.092822702204485,2435.00982470126
0.0767511153797273,2435.01982470126
0.0634474075829404,2435.02982470126
0.0482445778911477,2435.03982470126
0.0316978855283812,2435.04982470126
0.0205480127479962,2435.05982470126
0.00852769679321115,2435.06982470126
-0.00281971845103708,2435.07982470126
-0.0162807042878338,2435.08982470126
-0.0280028105500608,2435.09982470126
-0.0406476198753977,2435.10982470126
-0.0551078643543528,2435.11982470126
-0.0641291075733817,2435.12982470126
-0.0743571147023914,2435.13982470126
-0.0847456599466874,2435.14982470126
-0.0970528020810567,2435.15982470126
-0.106879301852532,2435.16982470126
-0.118364981274718,2435.17982470126
-0.13112211328171,2435.18982470126
-0.139338854366402,2435.19982470126
-0.148810244464678,2435.20982470126
-0.157709252014143,2435.21982470126
-0.168434491412536,2435.22982470126
-0.177943239316921,2435.23982470126
-0.188695397213244,2435.24982470126
-0.201176061279266,2435.25982470126
-0.209677330976861,2435.26982470126
-0.219612447608882,2435.27982470126
-0.229433551361262,2435.28982470126
-0.241684137745115,2435.29982470126
-0.252612096459753,2435.30982470126
-0.2645720330845,2435.31982470126
-0.277001523629809,2435.32982470126
-0.284148105671018,2435.33982470126
-0.29166767257323,2435.34982470126
-0.297915423229919,2435.35982470126
-0.306171567372115,2435.36982470126
-0.313164421954016,2435.37982470126
-0.322645329934886,2435.38982470126
-0.334633127809491,2435.39982470126
-0.342554435413483,2435.40982470126
-0.35227589458372,2435.41982470126
-0.362550907775156,2435.42982470126
-0.373465252355089,2435.43982470126
-0.382525213303643,2435.44982470126
-0.386436782189442,2435.45982470126
-0.3772300750703,2435.46982470126
-0.34995162643157,2435.47982470126
-0.298706080328226,2435.48982470126
-0.21889988915123,2435.49982470126
-0.120723463859953,2435.50982470126
-0.0122090782790832,2435.51982470126
0.0962791759362178,2435.52982470126
0.202295041323683,2435.53982470126
0.298179893696004,2435.54982470126
0.381805924448839,2435.55982470126
0.457300691343469,2435.56982470126
0.518281604153862,2435.57982470126
0.566030454280768,2435.58982470126
0.598829999766285,2435.59982470126
0.621996324345355,2435.60982470126
0.633202430190354,2435.61982470126
0.633420349408028,2435.62982470126
0.631397594756487,2435.63982470126
0.622217113521551,2435.64982470126
0.610285748149301,2435.65982470126
0.594574506582138,2435.66982470126
0.580756085142197,2435.67982470126
0.566696960282731,2435.68982470126
0.553215249954742,2435.69982470126
0.54638529078075,2435.70982470126
0.539709085391519,2435.71982470126
0.53441665560372,2435.72982470126
0.526430292792784,2435.73982470126
0.518699008438917,2435.74982470126
0.507590034892119,2435.75982470126
0.492768416055153,2435.76982470126
0.480351932331776,2435.77982470126
0.465811311722378,2435.78982470126
0.451616042855323,2435.79982470126
0.43730920304374,2435.80982470126
0.427039665729927,2435.81982470126
0.419997721846289,2435.82982470126
0.415889106621204,2435.83982470126
0.420301944831756,2435.84982470126
0.427235449656283,2435.85982470126
0.436803836019715,2435.86982470126
0.446045451146242,2435.87982470126
0.456994845497068,2435.88982470126
0.466084394690118,2435.89982470126
0.47227681848566,2435.90982470126
0.481535300725694,2435.91982470126
0.486513930663479,2435.92982470126
0.489055230743101,2435.93982470126
0.486535032390127,2435.94982470126
0.483533786684982,2435.95982470126
0.476817347360102,2435.96982470126
0.465454188856879,2435.97982470126
0.457020224452196,2435.98982470126
0.444984224053507,2435.99982470126
0.431469258626043,2436.00982470126
0.414861221545769,2436.01982470126
0.399781793811586,2436.02982470126
0.383013200153116,2436.03982470126
0.363974941819976,2436.04982470126
0.34935245141565,2436.05982470126
0.333201456177009,2436.06982470126
0.317524197781767,2436.07982470126
0.299317764474518,2436.08982470126
0.283348474953226,2436.09982470126
0.265708013821734,2436.10982470126
0.246538545676422,2436.11982470126
0.232047910567705,2436.12982470126
0.216504582852441,2436.13982470126
0.201345180262475,2436.14982470126
0.185387360155801,2436.15982470126
0.171931204925586,2436.16982470126
0.157379492921437,2436.17982470126
0.142054106455867,2436.18982470126
0.131477963640838,2436.19982470126
0.120107213640156,2436.20982470126
0.108575458253422,2436.21982470126
0.0954786987002454,2436.22982470126
0.0838896852202906,2436.23982470126
0.071454576808919,2436.24982470126
0.0576299656694662,2436.25982470126
0.0483959969243834,2436.26982470126
0.0387445376616169,2436.27982470126
0.029294069108308,2436.28982470126
0.017525154568737,2436.29982470126
0.00793185622577381,2436.30982470126
-0.00367645897510102,2436.31982470126
-0.0176005459128317,2436.32982470126
-0.0262675193590276,2436.33982470126
-0.0363157211385696,2436.34982470126
-0.0463771529291125,2436.35982470126
-0.0591418391290397,2436.36982470126
-0.0704210939473726,2436.37982470126
-0.0830656959453643,2436.38982470126
-0.0973570317177345,2436.39982470126
-0.106104634039865,2436.40982470126
-0.115899480945709,2436.41982470126
-0.125998549305207,2436.42982470126
-0.138662839659184,2436.43982470126
-0.15163466562508,2436.44982470126
-0.164784891020546,2436.45982470126
-0.175548067224369,2436.46982470126
-0.186311597719069,2436.47982470126
-0.197717606285119,2436.48982470126
-0.204624462901721,2436.49982470126
-0.212420703959435,2436.50982470126
-0.220609363401613,2436.51982470126
-0.23077443623225,2436.52982470126
-0.23901094696944,2436.53982470126
-0.249302977639617,2436.54982470126
-0.261590855720499,2436.55982470126
-0.269573060892008,2436.56982470126
-0.278795528300311,2436.57982470126
-0.288087291330801,2436.58982470126
-0.300223928984769,2436.59982470126
-0.309128380201385,2436.60982470126
-0.316312628442577,2436.61982470126
-0.315988952955437,2436.62982470126
-0.294427347876546,2436.63982470126
-0.248863922955007,2436.64982470126
-0.174839110296305,2436.65982470126
-0.0778394869483626,2436.66982470126
0.0368316142681737,2436.67982470126
0.155722825104054,2436.68982470126
0.271088377051893,2436.69982470126
0.382601506192034,2436.70982470126
