PPG,time
0.302612311648882,2643.09534901605
0.577519329826579,2643.10534901605
0.476333607245347,2643.11534901605
0.484444637628482,2643.12534901605
0.42791560710655,2643.13534901605
0.411288020629466,2643.14534901605
0.370078462550288,2643.15534901605
0.346920880550628,2643.16534901605
0.317177455213704,2643.17534901605
0.295370864416396,2643.18534901605
0.274120456695656,2643.19534901605
0.256077449074365,2643.20534901605
0.238459301742336,2643.21534901605
0.2200583941317,2643.22534901605
0.200352202431045,2643.23534901605
0.177570849199083,2643.24534901605
0.153474423147596,2643.25534901605
0.129273683318493,2643.26534901605
0.107639583696424,2643.27534901605
0.0903430170513938,2643.28534901605
0.0797706175355751,2643.29534901605
0.076323371356636,2643.30534901605
0.0800741619578055,2643.31534901605
0.0908369946017841,2643.32534901605
0.107306038258581,2643.33534901605
0.127793403839975,2643.34534901605
0.149892448736057,2643.35534901605
0.170296824680191,2643.36534901605
0.187580151446969,2643.37534901605
0.19953104625134,2643.38534901605
0.205511146391827,2643.39534901605
0.205231820144632,2643.40534901605
0.199009216451375,2643.41534901605
0.187997805790423,2643.42534901605
0.173903083190098,2643.43534901605
0.157424612445719,2643.44534901605
0.138999934667368,2643.45534901605
0.119549204976926,2643.46534901605
0.099194209396296,2643.47534901605
0.0789661710322937,2643.48534901605
0.0587948006536827,2643.49534901605
0.038977794719049,2643.50534901605
0.0203292052258087,2643.51534901605
0.00250658735375723,2643.52534901605
-0.0147397246995698,2643.53534901605
-0.0314018519689123,2643.54534901605
-0.0468678969397901,2643.55534901605
-0.0616789309540064,2643.56534901605
-0.0759958595617822,2643.57534901605
-0.0906709206807838,2643.58534901605
-0.105172205522114,2643.59534901605
-0.119784725362502,2643.60534901605
-0.134035278800761,2643.61534901605
-0.14791209003996,2643.62534901605
-0.160611132493672,2643.63534901605
-0.171026615832662,2643.64534901605
-0.175064432538972,2643.65534901605
-0.163681323816528,2643.66534901605
-0.124921790984959,2643.67534901605
-0.0477906161573975,2643.68534901605
0.0659647764428267,2643.69534901605
0.202552980367633,2643.70534901605
0.341136555729249,2643.71534901605
0.463071387926559,2643.72534901605
0.558014368212345,2643.73534901605
0.622530316356428,2643.74534901605
0.659748188974982,2643.75534901605
0.674665455965295,2643.76534901605
0.673788346188765,2643.77534901605
0.661476534252778,2643.78534901605
0.641162193729962,2643.79534901605
0.614995893965799,2643.80534901605
0.583960287377005,2643.81534901605
0.549391981211546,2643.82534901605
0.512601834463976,2643.83534901605
0.475377789668955,2643.84534901605
0.439102945211704,2643.85534901605
0.406046582465784,2643.86534901605
0.376795993679743,2643.87534901605
0.352244790812375,2643.88534901605
0.332645952226537,2643.89534901605
0.317099340132859,2643.90534901605
0.304596525587818,2643.91534901605
0.293859284585709,2643.92534901605
0.282984480079064,2643.93534901605
0.269975776093389,2643.94534901605
0.253542128720889,2643.95534901605
0.233525820424889,2643.96534901605
0.210615809199734,2643.97534901605
0.187454619068015,2643.98534901605
0.166573788688462,2643.99534901605
0.150850704248592,2644.00534901605
0.141592590994079,2644.01534901605
0.139818165533715,2644.02534901605
0.145200599192197,2644.03534901605
0.157285487618428,2644.04534901605
0.174224691583588,2644.05534901605
0.194074645657757,2644.06534901605
0.214981208484582,2644.07534901605
0.234224406087599,2644.08534901605
0.250054635832659,2644.09534901605
0.261191303933633,2644.10534901605
0.266361303793019,2644.11534901605
0.266326217236845,2644.12534901605
0.260989032327191,2644.13534901605
0.251368035740576,2644.14534901605
0.238042759850987,2644.15534901605
0.222245093331863,2644.16534901605
0.204751222260205,2644.17534901605
0.186070177825791,2644.18534901605
0.166243792760727,2644.19534901605
0.146047304268422,2644.20534901605
0.125874947449621,2644.21534901605
0.106127232878774,2644.22534901605
0.0875097994817929,2644.23534901605
0.070126934592628,2644.24534901605
0.0535838756623068,2644.25534901605
0.0380243844015452,2644.26534901605
0.0234487126612598,2644.27534901605
0.00881461017803716,2644.28534901605
-0.0053193220799757,2644.29534901605
-0.0191172929087546,2644.30534901605
-0.032902630766032,2644.31534901605
-0.0469869673547945,2644.32534901605
-0.0606831245601894,2644.33534901605
-0.073825631587315,2644.34534901605
-0.0856681726444301,2644.35534901605
-0.0922285782869593,2644.36534901605
-0.0852255519191477,2644.37534901605
-0.0531551380761208,2644.38534901605
0.0147004860126856,2644.39534901605
0.117408608311762,2644.40534901605
0.242795133460817,2644.41534901605
0.372185955362426,2644.42534901605
0.488486409071262,2644.43534901605
0.580719007484234,2644.44534901605
0.645462236658565,2644.45534901605
0.684285181573029,2644.46534901605
0.701132195648098,2644.47534901605
0.702108396099356,2644.48534901605
0.692005226254857,2644.49534901605
0.674027395699666,2644.50534901605
0.650238028567579,2644.51534901605
0.621722480731776,2644.52534901605
0.589655788366995,2644.53534901605
0.554580753088786,2644.54534901605
0.518297309652486,2644.55534901605
0.482054384944831,2644.56534901605
0.447719769796041,2644.57534901605
0.41693027250949,2644.58534901605
0.391916286065277,2644.59534901605
0.372237693985532,2644.60534901605
0.357287713528283,2644.61534901605
0.344933419771879,2644.62534901605
0.333292426502943,2644.63534901605
0.320073049154042,2644.64534901605
0.303609868999841,2644.65534901605
0.283649837218859,2644.66534901605
0.259820182243949,2644.67534901605
0.234709737801248,2644.68534901605
0.210445712433273,2644.69534901605
0.190100907729188,2644.70534901605
0.176024509935664,2644.71534901605
0.168869822062846,2644.72534901605
0.16968677784457,2644.73534901605
0.177197307049972,2644.74534901605
0.190847613881337,2644.75534901605
0.208593411007093,2644.76534901605
0.22846452774242,2644.77534901605
0.248292746211083,2644.78534901605
0.265771339448209,2644.79534901605
0.279755751114598,2644.80534901605
0.288661818428093,2644.81534901605
0.291939371516747,2644.82534901605
0.289757925864889,2644.83534901605
0.282661200246859,2644.84534901605
0.271192049627411,2644.85534901605
0.256415019806059,2644.86534901605
0.239242548517451,2644.87534901605
0.219939811674821,2644.88534901605
0.199444278150388,2644.89534901605
0.177716840464885,2644.90534901605
0.154997784146694,2644.91534901605
0.132004268390506,2644.92534901605
0.109326662148351,2644.93534901605
0.087588339463341,2644.94534901605
0.067549049834057,2644.95534901605
0.0488551112548432,2644.96534901605
0.0319181749150655,2644.97534901605
0.0154205889799467,2644.98534901605
-0.000186829141165556,2644.99534901605
-0.0153821101255755,2645.00534901605
-0.0308496230257456,2645.01534901605
-0.0461521496623366,2645.02534901605
-0.0614470870197575,2645.03534901605
-0.0763461247156896,2645.04534901605
-0.0909314089104615,2645.05534901605
-0.103958815910486,2645.06534901605
-0.113432257514718,2645.07534901605
-0.114090849173875,2645.08534901605
-0.095108235045267,2645.09534901605
-0.0429651543780264,2645.10534901605
0.0504584202460233,2645.11534901605
0.179765270956741,2645.12534901605
0.326244631977559,2645.13534901605
0.467338789933596,2645.14534901605
0.584879250210228,2645.15534901605
0.670386427911056,2645.16534901605
0.723247499984719,2645.17534901605
0.747922111980079,2645.18534901605
0.751758543617315,2645.19534901605
0.740410135789988,2645.20534901605
0.719654431279057,2645.21534901605
0.69176185403415,2645.22534901605
0.659517822770111,2645.23534901605
0.623345371325272,2645.24534901605
0.585062239670655,2645.25534901605
0.546166182451967,2645.26534901605
0.507918602872592,2645.27534901605
0.472129314975046,2645.28534901605
0.439770062986694,2645.29534901605
0.411414267684354,2645.30534901605
0.387549554419858,2645.31534901605
0.36760153792062,2645.32534901605
0.350140920727051,2645.33534901605
0.334410980543541,2645.34534901605
0.318741854247235,2645.35534901605
0.300890525189386,2645.36534901605
0.280146274280418,2645.37534901605
0.256302491605907,2645.38534901605
0.230555138517117,2645.39534901605
0.204701993272698,2645.40534901605
0.181652521211565,2645.41534901605
0.163116389509047,2645.42534901605
0.151348886882235,2645.43534901605
0.147223894640087,2645.44534901605
0.150344351078447,2645.45534901605
0.160235307558601,2645.46534901605
0.175580523239257,2645.47534901605
0.194878157533884,2645.48534901605
0.215084298794522,2645.49534901605
0.234456440314778,2645.50534901605
0.251146300385022,2645.51534901605
0.262996845051458,2645.52534901605
0.269349135217644,2645.53534901605
0.269493152922362,2645.54534901605
0.264701820156133,2645.55534901605
0.255797025949085,2645.56534901605
0.24275155852658,2645.57534901605
0.227148653153454,2645.58534901605
0.210032020484165,2645.59534901605
0.191214141560892,2645.60534901605
0.172155257052523,2645.61534901605
0.152328030742906,2645.62534901605
0.132093156073079,2645.63534901605
0.112262646316635,2645.64534901605
0.0930303059068626,2645.65534901605
0.0747845905253939,2645.66534901605
0.0579605912527286,2645.67534901605
0.042532741777584,2645.68534901605
0.0279364680022253,2645.69534901605
0.0138767567863498,2645.70534901605
0.0013703176740555,2645.71534901605
-0.010342714111199,2645.72534901605
-0.0219119786878027,2645.73534901605
-0.0335464689406324,2645.74534901605
-0.0454564001907914,2645.75534901605
-0.0583436217283477,2645.76534901605
-0.0719601810829207,2645.77534901605
-0.0863511944402844,2645.78534901605
-0.101443556702031,2645.79534901605
-0.114532420246825,2645.80534901605
-0.12179113925067,2645.81534901605
-0.114774287371165,2645.82534901605
-0.0809481486628262,2645.83534901605
-0.00862136285954891,2645.84534901605
0.102996452851827,2645.85534901605
0.239562605678489,2645.86534901605
0.380716321209298,2645.87534901605
0.50582354762308,2645.88534901605
0.602430033845634,2645.89534901605
0.666933275588923,2645.90534901605
0.702419200128902,2645.91534901605
0.714918281520534,2645.92534901605
0.710652691646626,2645.93534901605
0.694658961594632,2645.94534901605
0.670850333108005,2645.95534901605
0.64130417668919,2645.96534901605
0.607240697767276,2645.97534901605
0.570438073952291,2645.98534901605
0.530666397195324,2645.99534901605
0.48991608904392,2646.00534901605
0.449887949501342,2646.01534901605
0.411856041944691,2646.02534901605
0.377561214782682,2646.03534901605
0.347629659618902,2646.04534901605
0.322238687255968,2646.05534901605
0.30040521510303,2646.06534901605
0.280597155009822,2646.07534901605
0.261467895776198,2646.08534901605
0.240539717642466,2646.09534901605
0.21661418438824,2646.10534901605
0.190399452313181,2646.11534901605
0.162636828346439,2646.12534901605
0.136717423154261,2646.13534901605
0.114797305087398,2646.14534901605
0.0988799098746057,2646.15534901605
0.0908166633180469,2646.16534901605
0.0909264514746113,2646.17534901605
0.0994262235751468,2646.18534901605
0.114852794576646,2646.19534901605
0.136659131909727,2646.20534901605
0.161721903092365,2646.21534901605
0.187457730915353,2646.22534901605
0.211655248158491,2646.23534901605
0.231814227192553,2646.24534901605
0.245791971699501,2646.25534901605
0.253335195248995,2646.26534901605
0.25403987120097,2646.27534901605
0.249149323198171,2646.28534901605
0.23976254797495,2646.29534901605
0.22660029981885,2646.30534901605
0.211124497216322,2646.31534901605
0.193328442922684,2646.32534901605
0.174531661706716,2646.33534901605
0.154012567153913,2646.34534901605
0.133404322601933,2646.35534901605
0.112606569153906,2646.36534901605
0.0910844184822135,2646.37534901605
0.0701529440633385,2646.38534901605
0.0499698598856727,2646.39534901605
0.0304023498569788,2646.40534901605
0.0118191919606169,2646.41534901605
-0.00487434312866399,2646.42534901605
-0.0201852328574379,2646.43534901605
-0.0342919965532563,2646.44534901605
-0.0474086388414689,2646.45534901605
-0.0592888699429621,2646.46534901605
-0.0712521762225211,2646.47534901605
-0.0828621019145408,2646.48534901605
-0.0946278244237923,2646.49534901605
-0.107217042823656,2646.50534901605
-0.120205665555856,2646.51534901605
-0.134190272427722,2646.52534901605
-0.148113770471141,2646.53534901605
-0.162408758764695,2646.54534901605
-0.175594183808052,2646.55534901605
-0.185035692858705,2646.56534901605
-0.185317946745071,2646.57534901605
-0.166008810470032,2646.58534901605
-0.11454618886673,2646.59534901605
-0.0221894692383453,2646.60534901605
0.105182628963461,2646.61534901605
0.249152581798966,2646.62534901605
0.386547233957876,2646.63534901605
0.499175676743492,2646.64534901605
0.579191111734423,2646.65534901605
0.626694045384538,2646.66534901605
0.646904814642036,2646.67534901605
0.64694943326068,2646.68534901605
0.633191936602941,2646.69534901605
0.610261236209103,2646.70534901605
0.580758620685707,2646.71534901605
0.546419673415831,2646.72534901605
0.507953174517913,2646.73534901605
0.466711428920554,2646.74534901605
0.423664286912295,2646.75534901605
0.379834088564601,2646.76534901605
0.336540010098737,2646.77534901605
0.295186483850398,2646.78534901605
0.257793112972238,2646.79534901605
0.224448336403022,2646.80534901605
0.195542339243417,2646.81534901605
0.170531093227325,2646.82534901605
0.146592171404032,2646.83534901605
0.122954903144203,2646.84534901605
0.0981745383375025,2646.85534901605
0.0721010535374184,2646.86534901605
0.0462067851817077,2646.87534901605
0.0224862234146301,2646.88534901605
0.00375983569310275,2646.89534901605
-0.00723697536878865,2646.90534901605
-0.00891541705564609,2646.91534901605
-0.00044376953304314,2646.92534901605
0.0174884906669195,2646.93534901605
0.0432615926309679,2646.94534901605
0.0747745545382813,2646.95534901605
0.108447178116997,2646.96534901605
0.141310887435107,2646.97534901605
0.170532774824737,2646.98534901605
0.193010785323248,2646.99534901605
0.207585296017321,2647.00534901605
0.213785015973281,2647.01534901605
0.212154972970124,2647.02534901605
0.204096392715869,2647.03534901605
0.190833514435645,2647.04534901605
0.173854887998099,2647.05534901605
0.154175251535304,2647.06534901605
0.132622579605208,2647.07534901605
0.110042236343414,2647.08534901605
0.0871393490912367,2647.09534901605
0.0638907722072208,2647.10534901605
0.0409913816166118,2647.11534901605
0.0192793549790733,2647.12534901605
-0.00127334674448317,2647.13534901605
-0.0200220262487384,2647.14534901605
-0.037228586199249,2647.15534901605
-0.0528514970128557,2647.16534901605
-0.066724630363074,2647.17534901605
-0.0788224892115076,2647.18534901605
-0.0893338576538208,2647.19534901605
-0.0986205977632665,2647.20534901605
-0.107207148244086,2647.21534901605
-0.115350055119917,2647.22534901605
-0.123538071502389,2647.23534901605
-0.132392565697716,2647.24534901605
-0.141637722646484,2647.25534901605
-0.151306220372337,2647.26534901605
-0.161193605869294,2647.27534901605
-0.170455877311793,2647.28534901605
-0.178310285966132,2647.29534901605
-0.181725055271087,2647.30534901605
-0.174784264912565,2647.31534901605
-0.146051398503188,2647.32534901605
-0.0843712589801843,2647.33534901605
0.0130701363566985,2647.34534901605
0.135605641184865,2647.35534901605
0.264876193933713,2647.36534901605
0.382343136856201,2647.37534901605
0.475452878944506,2647.38534901605
0.539603192045354,2647.39534901605
0.577034056790852,2647.40534901605
0.59278201323341,2647.41534901605
0.592068092900418,2647.42534901605
0.580057956666197,2647.43534901605
0.559477340978363,2647.44534901605
0.533006731024531,2647.45534901605
0.501782224706064,2647.46534901605
0.46655960529879,2647.47534901605
0.428966201963175,2647.48534901605
0.390015554975893,2647.49534901605
0.350854258685337,2647.50534901605
0.313755684752329,2647.51534901605
0.279593635932528,2647.52534901605
0.249094410354354,2647.53534901605
0.222375698177789,2647.54534901605
0.198937037274642,2647.55534901605
0.178180739317663,2647.56534901605
0.158533399680298,2647.57534901605
0.138383955969574,2647.58534901605
0.116602874409718,2647.59534901605
0.09314033722405,2647.60534901605
0.0687226927155291,2647.61534901605
0.0454970185080141,2647.62534901605
0.0265157168561593,2647.63534901605
0.0138782423229871,2647.64534901605
0.00891824925921541,2647.65534901605
0.0131146254285069,2647.66534901605
0.0256990906609193,2647.67534901605
0.0459611472911855,2647.68534901605
0.0712276719936691,2647.69534901605
0.0981061994647885,2647.70534901605
0.124820998522952,2647.71534901605
0.148523067834884,2647.72534901605
0.167399034964488,2647.73534901605
0.180174341619216,2647.74534901605
0.186395284052529,2647.75534901605
0.186212155184554,2647.76534901605
0.180271212535405,2647.77534901605
0.169705762180171,2647.78534901605
0.155121697051412,2647.79534901605
0.137290336009243,2647.80534901605
0.117469485599903,2647.81534901605
0.0961147388992549,2647.82534901605
0.0732245398468438,2647.83534901605
0.049617564598712,2647.84534901605
0.0256737548233265,2647.85534901605
0.00233618587402392,2647.86534901605
-0.0193508790552526,2647.87534901605
-0.0398244567232384,2647.88534901605
-0.0584066569729565,2647.89534901605
-0.0753142731933298,2647.90534901605
-0.0912758758054236,2647.91534901605
-0.105641953533466,2647.92534901605
-0.118514317036526,2647.93534901605
-0.130400418220235,2647.94534901605
-0.141634313470381,2647.95534901605
-0.151923417894115,2647.96534901605
-0.162119988197018,2647.97534901605
-0.171828843019065,2647.98534901605
-0.181625776467918,2647.99534901605
-0.191863611416974,2648.00534901605
-0.202723487904434,2648.01534901605
-0.214090689927319,2648.02534901605
-0.225644497859201,2648.03534901605
-0.237950636780463,2648.04534901605
-0.24914400150327,2648.05534901605
-0.257611751648255,2648.06534901605
-0.259514723357762,2648.07534901605
-0.244276216453873,2648.08534901605
-0.199072908357102,2648.09534901605
-0.114121368826428,2648.10534901605
0.00626111230522197,2648.11534901605
0.145092111837874,2648.12534901605
0.280121915081927,2648.13534901605
0.394146013823442,2648.14534901605
0.478484971402316,2648.15534901605
0.531910284790324,2648.16534901605
0.559089543273771,2648.17534901605
0.566166446264871,2648.18534901605
0.559518894873018,2648.19534901605
0.543264300526068,2648.20534901605
0.520592921361883,2648.21534901605
0.492892494020918,2648.22534901605
0.460757457501751,2648.23534901605
0.425426434549773,2648.24534901605
0.388302958249491,2648.25534901605
0.350411965031547,2648.26534901605
0.313434934460233,2648.27534901605
0.278725758099107,2648.28534901605
0.247725089016454,2648.29534901605
0.220342159440275,2648.30534901605
0.197108461310627,2648.31534901605
0.177506855958598,2648.32534901605
0.159888156869903,2648.33534901605
0.143181184863058,2648.34534901605
0.124306597160311,2648.35534901605
0.103119467167943,2648.36534901605
0.0794939866697277,2648.37534901605
0.0548311610192184,2648.38534901605
0.0309073787786226,2648.39534901605
0.0104848694219199,2648.40534901605
-0.00376991280082268,2648.41534901605
-0.0108198042867993,2648.42534901605
-0.0100037229495957,2648.43534901605
-0.000985533213050977,2648.44534901605
0.0145268310875923,2648.45534901605
0.0355426858478669,2648.46534901605
0.0592054444639835,2648.47534901605
0.0829309407593603,2648.48534901605
0.104480817578268,2648.49534901605
0.121965334626718,2648.50534901605
0.133309489741429,2648.51534901605
0.139115920095195,2648.52534901605
0.139031003035609,2648.53534901605
0.133443125785229,2648.54534901605
0.123405414392346,2648.55534901605
0.109756718520872,2648.56534901605
0.0930510121125099,2648.57534901605
0.0738298042841547,2648.58534901605
0.0529930800291878,2648.59534901605
0.0306759610253152,2648.60534901605
0.00786045186562115,2648.61534901605
-0.0152392086197035,2648.62534901605
-0.0380686959756021,2648.63534901605
-0.0603232791465388,2648.64534901605
-0.0814105919150764,2648.65534901605
-0.101239844058102,2648.66534901605
-0.119750915473584,2648.67534901605
-0.136600637570456,2648.68534901605
-0.1512603457775,2648.69534901605
-0.164146851982118,2648.70534901605
-0.175565555424163,2648.71534901605
-0.185928846097695,2648.72534901605
-0.195008557633251,2648.73534901605
-0.203440942914271,2648.74534901605
-0.212548168123194,2648.75534901605
-0.221222833712903,2648.76534901605
-0.230173010611043,2648.77534901605
-0.239442309954444,2648.78534901605
-0.249083616640272,2648.79534901605
-0.259716940773783,2648.80534901605
-0.270502139868838,2648.81534901605
-0.281884083316442,2648.82534901605
-0.292964825368328,2648.83534901605
-0.302773743687109,2648.84534901605
-0.307631893922756,2648.85534901605
-0.299709976392711,2648.86534901605
-0.265955542351337,2648.87534901605
-0.194777408267492,2648.88534901605
-0.0842484896115572,2648.89534901605
0.0520741837948661,2648.90534901605
0.192053831822152,2648.91534901605
0.315205584122201,2648.92534901605
0.40974851162216,2648.93534901605
0.472399871255101,2648.94534901605
0.50625215138949,2648.95534901605
0.518312527018429,2648.96534901605
0.514584394700627,2648.97534901605
0.499960872063527,2648.98534901605
0.478211483054893,2648.99534901605
0.450819383918905,2649.00534901605
0.419088780101172,2649.01534901605
0.383634178787704,2649.02534901605
0.34507212724987,2649.03534901605
0.303996385680885,2649.04534901605
0.262872185867993,2649.05534901605
0.222492689080888,2649.06534901605
0.184529830419974,2649.07534901605
0.150917098554011,2649.08534901605
0.121847728749396,2649.09534901605
0.0967720684009148,2649.10534901605
0.0752448848235601,2649.11534901605
0.0548892259007227,2649.12534901605
0.0336055664745823,2649.13534901605
0.011362513437897,2649.14534901605
-0.0129169720261343,2649.15534901605
-0.038349091386555,2649.16534901605
-0.0635911501951747,2649.17534901605
-0.0859743630444208,2649.18534901605
-0.102772688143239,2649.19534901605
-0.112156817124421,2649.20534901605
-0.112956805635346,2649.21534901605
-0.104989757351766,2649.22534901605
-0.0890738454931043,2649.23534901605
-0.0662357717586984,2649.24534901605
-0.0395633236447046,2649.25534901605
-0.0116844549075681,2649.26534901605
0.0148594442981406,2649.27534901605
0.037367005682411,2649.28534901605
0.0541902603854541,2649.29534901605
0.0647889422806259,2649.30534901605
0.069322209570737,2649.31534901605
0.0680445532818613,2649.32534901605
0.0618264512819358,2649.33534901605
0.0516910004209642,2649.34534901605
0.0382466073848102,2649.35534901605
0.0217365002125431,2649.36534901605
0.00394609989399982,2649.37534901605
-0.0148529026471628,2649.38534901605
-0.0345448312401736,2649.39534901605
-0.054753013850119,2649.40534901605
-0.0752805587602073,2649.41534901605
-0.0959807497582091,2649.42534901605
-0.115762140139606,2649.43534901605
-0.134900292105862,2649.44534901605
-0.152355090435199,2649.45534901605
-0.168455860453704,2649.46534901605
-0.183274020298343,2649.47534901605
-0.196908288308599,2649.48534901605
-0.208402605839737,2649.49534901605
-0.218875093822355,2649.50534901605
-0.228563821170469,2649.51534901605
-0.237745437917604,2649.52534901605
-0.245826819282645,2649.53534901605
-0.254258869227028,2649.54534901605
-0.263030050943943,2649.55534901605
-0.272415085970341,2649.56534901605
-0.282638371101844,2649.57534901605
-0.293635147625972,2649.58534901605
-0.304775354044147,2649.59534901605
-0.31637963094551,2649.60534901605
-0.328170366296018,2649.61534901605
-0.338771489542337,2649.62534901605
-0.348323479205882,2649.63534901605
-0.352601823718613,2649.64534901605
-0.345128031410154,2649.65534901605
-0.31460857930497,2649.66534901605
-0.248438116788631,2649.67534901605
-0.145036274101102,2649.68534901605
-0.0164658178660874,2649.69534901605
0.116206176435853,2649.70534901605
0.234914257117596,2649.71534901605
0.327383252673215,2649.72534901605
0.390446151820626,2649.73534901605
0.426250535392975,2649.74534901605
0.44070752994517,2649.75534901605
0.440517287191117,2649.76534901605
0.42914264040992,2649.77534901605
0.410209358399182,2649.78534901605
0.385295643082458,2649.79534901605
0.35490163583467,2649.80534901605
0.319604027635328,2649.81534901605
0.28056603504376,2649.82534901605
0.238732333640316,2649.83534901605
0.195537162023776,2649.84534901605
0.152905602077171,2649.85534901605
0.111493504773845,2649.86534901605
0.0731978656053919,2649.87534901605
0.0382853251144227,2649.88534901605
0.00676301751583517,2649.89534901605
-0.0218946867585149,2649.90534901605
-0.0487630061843724,2649.91534901605
-0.0752410282770428,2649.92534901605
-0.102432193422111,2649.93534901605
-0.129099756724925,2649.94534901605
-0.155246771003357,2649.95534901605
-0.178096266281206,2649.96534901605
-0.195475126616416,2649.97534901605
-0.205120386243106,2649.98534901605
-0.205369407480459,2649.99534901605
-0.195822755059554,2650.00534901605
-0.176722331826737,2650.01534901605
-0.149081074716518,2650.02534901605
-0.115002405294817,2650.03534901605
-0.0774639383197514,2650.04534901605
-0.0409409647910959,2650.05534901605
-0.00822875594931935,2650.06534901605
0.0177119431989472,2650.07534901605
0.0357243844361779,2650.08534901605
0.0459673184120953,2650.09534901605
0.0480941620009805,2650.10534901605
0.044031435177555,2650.11534901605
0.0342087559345085,2650.12534901605
0.0205369628104367,2650.13534901605
0.00389315551995801,2650.14534901605
-0.0149185162749247,2650.15534901605
-0.0358075491891589,2650.16534901605
-0.0577359150645661,2650.17534901605
-0.0805129958818909,2650.18534901605
-0.103429944498676,2650.19534901605
-0.125900925388065,2650.20534901605
-0.147777293646157,2650.21534901605
-0.1685385836274,2650.22534901605
-0.187898103225569,2650.23534901605
-0.205808798901785,2650.24534901605
-0.221546728877675,2650.25534901605
-0.236174468283984,2650.26534901605
-0.248924142152769,2650.27534901605
-0.260245739461728,2650.28534901605
-0.270643621128609,2650.29534901605
-0.279819851393103,2650.30534901605
-0.288742634866203,2650.31534901605
-0.2981405380778,2650.32534901605
-0.307623439720883,2650.33534901605
-0.317632750312097,2650.34534901605
-0.327862680600583,2650.35534901605
-0.338681787197806,2650.36534901605
-0.348860755524069,2650.37534901605
-0.358507524978579,2650.38534901605
-0.366480627365693,2650.39534901605
-0.36847493082138,2650.40534901605
-0.356464361661285,2650.41534901605
-0.318550265757604,2650.42534901605
-0.244246388645912,2650.43534901605
-0.134374188179854,2650.44534901605
-0.0037383873566107,2650.45534901605
0.127059405468266,2650.46534901605
0.240981840678993,2650.47534901605
0.327612705836792,2650.48534901605
0.385727775718229,2650.49534901605
0.418398675617133,2650.50534901605
0.431160949853956,2650.51534901605
0.430926559547139,2650.52534901605
0.421072160402475,2650.53534901605
0.404384175441272,2650.54534901605
0.382349162422091,2650.55534901605
0.355019076784766,2650.56534901605
0.323021469546034,2650.57534901605
0.287024190237379,2650.58534901605
0.248183409603527,2650.59534901605
0.207441938152274,2650.60534901605
0.166668025798325,2650.61534901605
0.12734248596728,2650.62534901605
0.0908672491048833,2650.63534901605
0.058220213812467,2650.64534901605
0.0289424038969323,2650.65534901605
0.00270773822854732,2650.66534901605
-0.0216156358845222,2650.67534901605
-0.0453605487096362,2650.68534901605
-0.0697598817410916,2650.69534901605
-0.0949290001281162,2650.70534901605
-0.120724100427374,2650.71534901605
-0.144725382647251,2650.72534901605
-0.16459991485491,2650.73534901605
-0.178234265492452,2650.74534901605
-0.183185085801189,2650.75534901605
-0.179667582420989,2650.76534901605
-0.167234495298356,2650.77534901605
-0.146368810600003,2650.78534901605
-0.11901016263736,2650.79534901605
-0.0875237451515465,2650.80534901605
-0.0554817515034702,2650.81534901605
-0.026404634875363,2650.82534901605
-0.00222187473815889,2650.83534901605
0.0153891456408449,2650.84534901605
0.0257363834543754,2650.85534901605
0.0287467626460664,2650.86534901605
0.0262698432370992,2650.87534901605
0.0183365622740964,2650.88534901605
0.00660761368166415,2650.89534901605
-0.00803705353198186,2650.90534901605
-0.0249667453089889,2650.91534901605
-0.0435408162171215,2650.92534901605
-0.0639852971244775,2650.93534901605
-0.0851389002542666,2650.94534901605
-0.106663882420759,2650.95534901605
-0.128244326963752,2650.96534901605
-0.149588666710851,2650.97534901605
-0.169466178490364,2650.98534901605
-0.18775549248638,2650.99534901605
-0.204513063076763,2651.00534901605
-0.219528019044569,2651.01534901605
-0.233308154581353,2651.02534901605
-0.246163537550022,2651.03534901605
-0.257779372502222,2651.04534901605
-0.268956231147178,2651.05534901605
-0.27957588447849,2651.06534901605
-0.290322963328717,2651.07534901605
-0.301139895950513,2651.08534901605
-0.31235659191901,2651.09534901605
-0.323868941233427,2651.10534901605
-0.335185354083936,2651.11534901605
-0.347332500088104,2651.12534901605
-0.35948237679307,2651.13534901605
-0.371351831906979,2651.14534901605
-0.3803666268807,2651.15534901605
-0.382588966448086,2651.16534901605
-0.368086194748744,2651.17534901605
-0.323943771076707,2651.18534901605
-0.241201448784977,2651.19534901605
-0.122744648221701,2651.20534901605
0.0138093329871456,2651.21534901605
0.14739187551407,2651.22534901605
0.262384689949845,2651.23534901605
0.349454861108147,2651.24534901605
0.40779291159208,2651.25534901605
0.441522027323353,2651.26534901605
0.456486437994409,2651.27534901605
0.457101318376807,2651.28534901605
0.448772760693698,2651.29534901605
0.432601205916338,2651.30534901605
0.410902652740069,2651.31534901605
0.384148654111907,2651.32534901605
0.352693111339882,2651.33534901605
0.317657581628927,2651.34534901605
0.279890296348239,2651.35534901605
0.241016135281123,2651.36534901605
0.202268662769105,2651.37534901605
0.165012360219648,2651.38534901605
0.129622597293544,2651.39534901605
0.097539074901981,2651.40534901605
0.0685857238702063,2651.41534901605
0.0428580765275479,2651.42534901605
0.0193377898379567,2651.43534901605
-0.00344346136389681,2651.44534901605
-0.026484946036781,2651.45534901605
-0.0508375715252085,2651.46534901605
-0.0766662404314033,2651.47534901605
-0.101618188011065,2651.48534901605
-0.124004444422955,2651.49534901605
-0.141610085956137,2651.50534901605
-0.152037971531152,2651.51534901605
-0.15470028090697,2651.52534901605
-0.148217230607036,2651.53534901605
-0.132991141572824,2651.54534901605
-0.110118418443078,2651.55534901605
-0.0822820521108685,2651.56534901605
-0.0520358493122527,2651.57534901605
-0.0228644046874576,2651.58534901605
0.00278886445711095,2651.59534901605
0.0228619228558487,2651.60534901605
0.0369452972213543,2651.61534901605
0.0444605440150385,2651.62534901605
0.0458559832674268,2651.63534901605
0.0415110113612236,2651.64534901605
0.0325664871957724,2651.65534901605
0.0198999290728103,2651.66534901605
0.00415804738846398,2651.67534901605
-0.0137922747853118,2651.68534901605
-0.033386334686511,2651.69534901605
-0.0539768710180863,2651.70534901605
-0.0748141605077789,2651.71534901605
-0.0965619892724231,2651.72534901605
-0.118014725242266,2651.73534901605
-0.138569756880745,2651.74534901605
-0.158175478353936,2651.75534901605
-0.176788283212281,2651.76534901605
-0.194359855596433,2651.77534901605
-0.210501720693998,2651.78534901605
-0.225641616586551,2651.79534901605
-0.239599328340517,2651.80534901605
-0.25325224723384,2651.81534901605
-0.265777114880603,2651.82534901605
-0.277383935404958,2651.83534901605
-0.288793094050633,2651.84534901605
-0.299972406766296,2651.85534901605
-0.311111120454838,2651.86534901605
-0.322785610239839,2651.87534901605
-0.3344135750654,2651.88534901605
-0.346679691009664,2651.89534901605
-0.359380333187489,2651.90534901605
-0.3711370719534,2651.91534901605
-0.380420035970267,2651.92534901605
-0.382430462517075,2651.93534901605
-0.368429697434346,2651.94534901605
-0.324983636363924,2651.95534901605
-0.241124173003323,2651.96534901605
-0.120515697388249,2651.97534901605
0.0210354127182303,2651.98534901605
0.16052635359117,2651.99534901605
0.280383153408573,2652.00534901605
0.371279539037968,2652.01534901605
0.431951309488901,2652.02534901605
0.466637457299264,2652.03534901605
0.481594072595091,2652.04534901605
0.482223150532328,2652.05534901605
0.472641446595251,2652.06534901605
0.455364422841721,2652.07534901605
0.431900520547984,2652.08534901605
0.403685493503937,2652.09534901605
0.370989757684885,2652.10534901605
0.334425538179376,2652.11534901605
0.294771234429663,2652.12534901605
0.253527477421511,2652.13534901605
0.211870659171987,2652.14534901605
0.171306769222567,2652.15534901605
0.133128830103328,2652.16534901605
0.0977940905743462,2652.17534901605
0.0660425739837352,2652.18534901605
0.0373474212943756,2652.19534901605
0.0102676258984405,2652.20534901605
-0.0160294283187772,2652.21534901605
-0.0424163527174378,2652.22534901605
-0.0705359483356466,2652.23534901605
-0.100017882575899,2652.24534901605
-0.128844476756336,2652.25534901605
-0.154023968756037,2652.26534901605
-0.174213755240946,2652.27534901605
-0.187134088106976,2652.28534901605
-0.191818341442979,2652.29534901605
-0.187278810076393,2652.30534901605
-0.17312702294688,2652.31534901605
-0.150993957354469,2652.32534901605
-0.122607066030316,2652.33534901605
-0.0903343186610222,2652.34534901605
-0.0581495308327102,2652.35534901605
-0.0287905849386342,2652.36534901605
-0.00511920577986797,2652.37534901605
0.0120579207698008,2652.38534901605
0.0219313506447337,2652.39534901605
0.0252027748639722,2652.40534901605
0.0229084633112905,2652.41534901605
0.0154237055374027,2652.42534901605
0.00375624123939223,2652.43534901605
-0.0108110339402953,2652.44534901605
-0.0275819217431667,2652.45534901605
-0.0466005569769256,2652.46534901605
-0.0670411771166103,2652.47534901605
-0.0887837966088499,2652.48534901605
-0.110612265812216,2652.49534901605
-0.132488251632618,2652.50534901605
-0.154446901578395,2652.51534901605
-0.175403355548494,2652.52534901605
-0.195651410149327,2652.53534901605
-0.214429801835265,2652.54534901605
-0.232262676731746,2652.55534901605
-0.249146070478312,2652.56534901605
-0.264733478183946,2652.57534901605
-0.279119375122953,2652.58534901605
-0.292270844033908,2652.59534901605
-0.304900772056884,2652.60534901605
-0.316470108014261,2652.61534901605
-0.327200782425844,2652.62534901605
-0.337851938456347,2652.63534901605
-0.34825587179798,2652.64534901605
-0.359140195851598,2652.65534901605
-0.370319851178755,2652.66534901605
-0.381339647739937,2652.67534901605
-0.393238174863546,2652.68534901605
-0.404405160632972,2652.69534901605
-0.414467157209735,2652.70534901605
-0.421311302544452,2652.71534901605
-0.418812042839443,2652.72534901605
-0.397019871943277,2652.73534901605
-0.343014306111064,2652.74534901605
-0.247327000510834,2652.75534901605
-0.114914924433414,2652.76534901605
0.0346154915404768,2652.77534901605
0.177236251527113,2652.78534901605
0.294907039518886,2652.79534901605
0.379434555023474,2652.80534901605
0.430665169913982,2652.81534901605
0.455756153406727,2652.82534901605
0.461347457527072,2652.83534901605
0.454141087709354,2652.84534901605
0.438422465782289,2652.85534901605
0.416360474549069,2652.86534901605
0.389133742341635,2652.87534901605
0.356869121282051,2652.88534901605
0.320062562038677,2652.89534901605
0.279058942838352,2652.90534901605
0.235440134683831,2652.91534901605
0.189959602642332,2652.92534901605
0.144244180831161,2652.93534901605
0.100011366747085,2652.94534901605
0.0585551068257776,2652.95534901605
0.0201917016527545,2652.96534901605
-0.0147216754221645,2652.97534901605
-0.0470880277705824,2652.98534901605
-0.0778765508623619,2652.99534901605
-0.108042131380322,2653.00534901605
-0.13825274476534,2653.01534901605
-0.168566061811561,2653.02534901605
-0.198125098364453,2653.03534901605
-0.224341485984472,2653.04534901605
-0.245914330437363,2653.05534901605
-0.260375395256687,2653.06534901605
-0.265898089422816,2653.07534901605
-0.261911179382128,2653.08534901605
-0.247700568865279,2653.09534901605
-0.224322945441006,2653.10534901605
-0.19358872151227,2653.11534901605
-0.15682815510396,2653.12534901605
-0.118359285005556,2653.13534901605
-0.0802940971796222,2653.14534901605
-0.0466505010367193,2653.15534901605
-0.0202167606135578,2653.16534901605
-0.00175208969438316,2653.17534901605
0.00800365605949619,2653.18534901605
0.0100301065578828,2653.19534901605
0.00500071590028443,2653.20534901605
-0.00510956964194832,2653.21534901605
-0.0196745315083095,2653.22534901605
-0.036895341957014,2653.23534901605
-0.0561274833665765,2653.24534901605
-0.0764095962287594,2653.25534901605
-0.0980346430016755,2653.26534901605
-0.120248927362624,2653.27534901605
-0.142193468879158,2653.28534901605
-0.164403851770716,2653.29534901605
-0.185915587383187,2653.30534901605
-0.206733118388857,2653.31534901605
-0.225753970324003,2653.32534901605
-0.243157328342655,2653.33534901605
-0.258783187289323,2653.34534901605
-0.273335034013608,2653.35534901605
-0.286745599127562,2653.36534901605
-0.299031961901746,2653.37534901605
-0.310203191198816,2653.38534901605
-0.321261403332,2653.39534901605
-0.3317104200475,2653.40534901605
-0.341709850854445,2653.41534901605
-0.351502086720213,2653.42534901605
-0.361406004883829,2653.43534901605
-0.371551126451596,2653.44534901605
-0.38183668811048,2653.45534901605
-0.391864291879458,2653.46534901605
-0.401986653664093,2653.47534901605
-0.410501927824221,2653.48534901605
-0.414422707166874,2653.49534901605
-0.407106837755101,2653.50534901605
-0.377274662984298,2653.51534901605
-0.312052931320267,2653.52534901605
-0.206461346473583,2653.53534901605
-0.0700543056213645,2653.54534901605
0.0766193466033398,2653.55534901605
0.210858034203604,2653.56534901605
0.318308122611475,2653.57534901605
0.393328216159626,2653.58534901605
0.437790681439559,2653.59534901605
0.458268609488491,2653.60534901605
0.461792219403889,2653.61534901605
0.453959222418133,2653.62534901605
0.438566769720991,2653.63534901605
0.417245373129636,2653.64534901605
0.391506275298546,2653.65534901605
0.360526485301632,2653.66534901605
0.32484985070273,2653.67534901605
0.284767676272119,2653.68534901605
0.241662038975276,2653.69534901605
0.197077556047064,2653.70534901605
0.15277593374424,2653.71534901605
0.110032753423165,2653.72534901605
0.0702176469536557,2653.73534901605
0.0330480896224636,2653.74534901605
-0.00133788678163911,2653.75534901605
-0.033994417195715,2653.76534901605
-0.065517925615685,2653.77534901605
-0.0969508083618423,2653.78534901605
-0.128254136512721,2653.79534901605
-0.158215758581976,2653.80534901605
-0.186071826978722,2653.81534901605
-0.210067041496599,2653.82534901605
-0.228380711496217,2653.83534901605
-0.238819903997455,2653.84534901605
-0.240861047111548,2653.85534901605
-0.233241169526345,2653.86534901605
-0.216337534524732,2653.87534901605
-0.191070551653036,2653.88534901605
-0.158907049877589,2653.89534901605
-0.122859566381858,2653.90534901605
-0.0855927350516479,2653.91534901605
-0.050649150353373,2653.92534901605
-0.0208258284605735,2653.93534901605
0.00197531560244608,2653.94534901605
0.0167662477107703,2653.95534901605
0.0231590959272115,2653.96534901605
0.0222206435038981,2653.97534901605
0.0152730038353301,2653.98534901605
0.00322834817775838,2653.99534901605
-0.0123931181656713,2654.00534901605
-0.0303378830352742,2654.01534901605
-0.0506012593287533,2654.02534901605
-0.0717657665697858,2654.03534901605
-0.0940422991539459,2654.04534901605
-0.116709138958773,2654.05534901605
-0.13927611123241,2654.06534901605
-0.161812215138259,2654.07534901605
-0.183838281571949,2654.08534901605
-0.204433144924234,2654.09534901605
-0.223922827831775,2654.10534901605
-0.241973041407285,2654.11534901605
-0.258183663963562,2654.12534901605
-0.272272968053142,2654.13534901605
-0.284627188070637,2654.14534901605
-0.295863553998146,2654.15534901605
-0.306191379793824,2654.16534901605
-0.316107179576493,2654.17534901605
-0.325924800005905,2654.18534901605
-0.335837509307603,2654.19534901605
-0.345432030593954,2654.20534901605
-0.356169913396469,2654.21534901605
-0.367305412687735,2654.22534901605
-0.37869361334908,2654.23534901605
-0.389948550765817,2654.24534901605
-0.400698986863196,2654.25534901605
-0.409248749159615,2654.26534901605
-0.411218921861188,2654.27534901605
-0.398106305987147,2654.28534901605
-0.357433388720891,2654.29534901605
-0.277165359019061,2654.30534901605
-0.155722451846173,2654.31534901605
-0.00796267138666218,2654.32534901605
0.142038661958959,2654.33534901605
0.274461288476797,2654.34534901605
0.375441161780871,2654.35534901605
0.443039823962743,2654.36534901605
0.481993117076934,2654.37534901605
0.498950399648544,2654.38534901605
0.500779891076764,2654.39534901605
0.493137907447005,2654.40534901605
0.47883859936038,2654.41534901605
0.458359015043026,2654.42534901605
0.433230940809849,2654.43534901605
0.403237948698599,2654.44534901605
0.369120753379257,2654.45534901605
0.331130811620727,2654.46534901605
0.290832167311692,2654.47534901605
0.24950157868582,2654.48534901605
0.208198201666671,2654.49534901605
0.168784043197125,2654.50534901605
0.132098924088677,2654.51534901605
0.0980025873851984,2654.52534901605
0.0677809097109427,2654.53534901605
0.0398233466916093,2654.54534901605
0.0129725838282542,2654.55534901605
-0.0130493109123126,2654.56534901605
-0.0393081269743981,2654.57534901605
-0.0659399041491691,2654.58534901605
-0.0918753354907321,2654.59534901605
-0.115432616718146,2654.60534901605
-0.134588667442615,2654.61534901605
-0.147996825794889,2654.62534901605
-0.153445991562845,2654.63534901605
-0.150884915295384,2654.64534901605
-0.140065246082057,2654.65534901605
-0.121325984010733,2654.66534901605
-0.0968581907407054,2654.67534901605
-0.0670554937502492,2654.68534901605
-0.0360613345734886,2654.69534901605
-0.00592509915914239,2654.70534901605
0.0202881101628779,2654.71534901605
0.0403910033678652,2654.72534901605
0.0540038928525139,2654.73534901605
0.0603258193820519,2654.74534901605
0.0606879494092446,2654.75534901605
0.0548938668145199,2654.76534901605
0.0443717482248888,2654.77534901605
0.0304202533080506,2654.78534901605
0.0129822384900844,2654.79534901605
-0.00630431624299643,2654.80534901605
-0.0274224104564578,2654.81534901605
-0.0490705960788082,2654.82534901605
-0.0716960347381162,2654.83534901605
-0.0940271618320052,2654.84534901605
-0.115969616279957,2654.85534901605
-0.137503739584662,2654.86534901605
-0.158156678566938,2654.87534901605
-0.17778412996725,2654.88534901605
-0.196860212068549,2654.89534901605
-0.213926153073046,2654.90534901605
-0.229156701802146,2654.91534901605
-0.243003558344251,2654.92534901605
-0.255204152531313,2654.93534901605
-0.266164359153481,2654.94534901605
-0.276209038533131,2654.95534901605
-0.285573237584613,2654.96534901605
-0.295125594176585,2654.97534901605
-0.304214641716558,2654.98534901605
-0.313582254387555,2654.99534901605
-0.323391464268383,2655.00534901605
-0.332681079047398,2655.01534901605
-0.342077785650246,2655.02534901605
-0.351547446856918,2655.03534901605
-0.361194244351486,2655.04534901605
-0.371799270022206,2655.05534901605
-0.381964657919935,2655.06534901605
-0.391127113845885,2655.07534901605
-0.394203650961554,2655.08534901605
-0.381982073015514,2655.09534901605
-0.342382494676345,2655.10534901605
-0.26143780429227,2655.11534901605
-0.138019674806986,2655.12534901605
0.012364251895617,2655.13534901605
0.165123157111107,2655.14534901605
0.298704489259948,2655.15534901605
0.400386920541489,2655.16534901605
0.468481807197359,2655.17534901605
0.507431099402953,2655.18534901605
0.524136630792671,2655.19534901605
0.52644454278041,2655.20534901605
0.518238457363831,2655.21534901605
0.502164991780075,2655.22534901605
0.48081344755664,2655.23534901605
0.453981575725084,2655.24534901605
0.422763848233089,2655.25534901605
0.387779719092504,2655.26534901605
0.348903326925108,2655.27534901605
0.308296272638473,2655.28534901605
0.267353486849238,2655.29534901605
0.227067407718576,2655.30534901605
0.189454964034757,2655.31534901605
0.154550643390259,2655.32534901605
0.12336004449325,2655.33534901605
0.0946922152963377,2655.34534901605
0.0680111465120395,2655.35534901605
0.0421697664279581,2655.36534901605
0.0156115103670629,2655.37534901605
-0.0107529111406611,2655.38534901605
-0.0379849108935914,2655.39534901605
-0.0644902472396563,2655.40534901605
-0.0887361137803479,2655.41534901605
-0.10817394248768,2655.42534901605
-0.121245921389517,2655.43534901605
-0.126815245739925,2655.44534901605
-0.124649640892196,2655.45534901605
-0.114407573455396,2655.46534901605
-0.0964331686825646,2655.47534901605
-0.0722425094300688,2655.48534901605
-0.0440385182230438,2655.49534901605
-0.0148370528414858,2655.50534901605
0.0126275252726392,2655.51534901605
0.0364514207647353,2655.52534901605
0.0545370211158796,2655.53534901605
0.0659969767187745,2655.54534901605
0.0707077687600098,2655.55534901605
0.0693963276765601,2655.56534901605
0.0621516086964521,2655.57534901605
0.0511367830990413,2655.58534901605
0.0360522064512946,2655.59534901605
0.0187465746890688,2655.60534901605
-0.000629828911196961,2655.61534901605
-0.0211176476686994,2655.62534901605
-0.0424502372172974,2655.63534901605
-0.0647214769125272,2655.64534901605
-0.0872246997978454,2655.65534901605
-0.110103142930552,2655.66534901605
-0.132578632222027,2655.67534901605
-0.155231481571665,2655.68534901605
-0.176942092817475,2655.69534901605
-0.197398655530489,2655.70534901605
-0.216138152710458,2655.71534901605
-0.233251682472974,2655.72534901605
-0.248829175057919,2655.73534901605
-0.262781031643818,2655.74534901605
-0.275674339449883,2655.75534901605
-0.2875057913238,2655.76534901605
-0.298820597664304,2655.77534901605
-0.309269670490514,2655.78534901605
-0.3187435336799,2655.79534901605
-0.327387910365093,2655.80534901605
-0.335816755661812,2655.81534901605
-0.343644007403352,2655.82534901605
-0.351734873248514,2655.83534901605
-0.359603746646909,2655.84534901605
-0.36776897814473,2655.85534901605
-0.37644514106995,2655.86534901605
-0.385021778190665,2655.87534901605
-0.394242778606848,2655.88534901605
-0.403657690741272,2655.89534901605
-0.413456111272325,2655.90534901605
-0.423361941797224,2655.91534901605
-0.432145915062525,2655.92534901605
-0.436449775079865,2655.93534901605
-0.429768257047186,2655.94534901605
-0.400007655134823,2655.95534901605
-0.333823573893893,2655.96534901605
-0.223981936447533,2655.97534901605
-0.0778394967683476,2655.98534901605
0.0819566589493824,2655.99534901605
0.230290295099869,2656.00534901605
0.349158538929832,2656.01534901605
0.431538040316076,2656.02534901605
0.479407497625223,2656.03534901605
0.500355128652398,2656.04534901605
0.502420891324662,2656.05534901605
0.493495234060973,2656.06534901605
0.476686707922871,2656.07534901605
0.453399836634276,2656.08534901605
0.424417004641285,2656.09534901605
0.39017892491616,2656.10534901605
0.350757946883358,2656.11534901605
0.306994494357184,2656.12534901605
0.261741688016281,2656.13534901605
0.214572279780385,2656.14534901605
0.16774872772278,2656.15534901605
0.122945138653083,2656.16534901605
0.0812715135493272,2656.17534901605
0.0428642915565475,2656.18534901605
0.00814179281265077,2656.19534901605
-0.0224795260441764,2656.20534901605
-0.0514117741449411,2656.21534901605
-0.0799052557478607,2656.22534901605
-0.108629514417057,2656.23534901605
-0.136931932708199,2656.24534901605
-0.164765477534391,2656.25534901605
-0.189652362019687,2656.26534901605
-0.208847342630336,2656.27534901605
-0.221433972777976,2656.28534901605
-0.226479706137265,2656.29534901605
-0.223551835668279,2656.30534901605
-0.212403638855896,2656.31534901605
-0.193271005116654,2656.32534901605
-0.167031599814934,2656.33534901605
-0.135209041858692,2656.34534901605
-0.100880670464973,2656.35534901605
-0.0675927283888722,2656.36534901605
-0.0383383422261946,2656.37534901605
-0.0142146417122596,2656.38534901605
0.00278859922950236,2656.39534901605
0.0122038739918594,2656.40534901605
0.0153515982300991,2656.41534901605
0.0122798754294141,2656.42534901605
0.00325004723202217,2656.43534901605
-0.0102485943597046,2656.44534901605
-0.0267914637321536,2656.45534901605
-0.0451078511502337,2656.46534901605
-0.0643344336604324,2656.47534901605
-0.0826982494196193,2656.48534901605
-0.101500909950065,2656.49534901605
-0.121311306059475,2656.50534901605
-0.141798764280414,2656.51534901605
-0.162646368392945,2656.52534901605
-0.183634754149601,2656.53534901605
-0.203402708632976,2656.54534901605
-0.220821973350409,2656.55534901605
-0.236818357458672,2656.56534901605
-0.252063308265603,2656.57534901605
-0.266162355911755,2656.58534901605
-0.279335268163856,2656.59534901605
-0.291287514901563,2656.60534901605
-0.302218065158994,2656.61534901605
-0.311353385780978,2656.62534901605
-0.319405602993704,2656.63534901605
-0.327403831117734,2656.64534901605
-0.335328253987907,2656.65534901605
-0.343381246244139,2656.66534901605
-0.35149316449349,2656.67534901605
-0.359625009408763,2656.68534901605
-0.367422035574279,2656.69534901605
-0.375653429022236,2656.70534901605
-0.385069084533648,2656.71534901605
-0.395214436438898,2656.72534901605
-0.405671164914574,2656.73534901605
-0.41487856272072,2656.74534901605
-0.419410326806779,2656.75534901605
-0.412701676025499,2656.76534901605
-0.384463946766903,2656.77534901605
-0.323762534260498,2656.78534901605
-0.223092173543674,2656.79534901605
-0.086950187638677,2656.80534901605
0.0646432539000334,2656.81534901605
0.208771020166128,2656.82534901605
0.327075734101807,2656.83534901605
0.41047508215372,2656.84534901605
0.459821376599439,2656.85534901605
0.480755583605418,2656.86534901605
0.482699828101556,2656.87534901605
0.472316374419,2656.88534901605
0.454157860123159,2656.89534901605
0.430891437340426,2656.90534901605
0.402974740014164,2656.91534901605
0.369607338497884,2656.92534901605
0.331205873513205,2656.93534901605
0.288835181978974,2656.94534901605
0.243916971830946,2656.95534901605
0.197217772138519,2656.96534901605
0.151881611938028,2656.97534901605
0.108245557844362,2656.98534901605
0.0674739669181756,2656.99534901605
0.0293346719353804,2657.00534901605
-0.00542112301097362,2657.01534901605
-0.0372579269786454,2657.02534901605
-0.0676217853917798,2657.03534901605
-0.0971470757418573,2657.04534901605
-0.126311648168029,2657.05534901605
-0.154942002051067,2657.06534901605
-0.182050283938596,2657.07534901605
-0.205026344934254,2657.08534901605
-0.22341799308797,2657.09534901605
-0.234714318634548,2657.10534901605
-0.23694252932593,2657.11534901605
-0.230332051604606,2657.12534901605
-0.215717613835352,2657.13534901605
-0.193980437790691,2657.14534901605
-0.166379906398813,2657.15534901605
-0.134991557665333,2657.16534901605
-0.102289396559828,2657.17534901605
-0.0703159661121646,2657.18534901605
-0.042446500507106,2657.19534901605
-0.0208282813831558,2657.20534901605
-0.00652154622039711,2657.21534901605
0.00041287356714796,2657.22534901605
0.000242380814626704,2657.23534901605
-0.00551896037072753,2657.24534901605
-0.0159215304899323,2657.25534901605
-0.0300408680169263,2657.26534901605
-0.0468317315557276,2657.27534901605
-0.0658193110489955,2657.28534901605
-0.0858988632237713,2657.29534901605
-0.107019193209964,2657.30534901605
-0.128239343647515,2657.31534901605
-0.149261627056992,2657.32534901605
-0.169959892852174,2657.33534901605
-0.190495730750805,2657.34534901605
-0.210729258260488,2657.35534901605
-0.229354550727451,2657.36534901605
-0.246886149006962,2657.37534901605
-0.262625570726432,2657.38534901605
-0.276199841869492,2657.39534901605
-0.288391830111359,2657.40534901605
-0.299931317092479,2657.41534901605
-0.31119569702503,2657.42534901605
-0.321455751333976,2657.43534901605
-0.331274251001535,2657.44534901605
-0.339737623454889,2657.45534901605
-0.346849703758561,2657.46534901605
-0.353848638409707,2657.47534901605
-0.36057937512914,2657.48534901605
-0.367815373558733,2657.49534901605
-0.375688309510548,2657.50534901605
-0.383967807533543,2657.51534901605
-0.393043793208633,2657.52534901605
-0.402217289549478,2657.53534901605
-0.412225876093302,2657.54534901605
-0.422392230214012,2657.55534901605
-0.432127593612636,2657.56534901605
-0.437741853596502,2657.57534901605
-0.43269087694113,2657.58534901605
-0.405697602003002,2657.59534901605
-0.343918670100635,2657.60534901605
-0.239690435269199,2657.61534901605
-0.0988678964081166,2657.62534901605
0.0586021324625108,2657.63534901605
0.20832255918189,2657.64534901605
0.331331010520825,2657.65534901605
0.418661774900117,2657.66534901605
0.471766406013842,2657.67534901605
0.497450966584022,2657.68534901605
0.502313551792893,2657.69534901605
0.494515829632998,2657.70534901605
0.47841606068674,2657.71534901605
0.456480487285777,2657.72534901605
0.430188787895801,2657.73534901605
0.400035730278251,2657.74534901605
0.36617120284145,2657.75534901605
0.328037843408919,2657.76534901605
0.286617334683331,2657.77534901605
0.243979297825688,2657.78534901605
0.20101428008024,2657.79534901605
0.159978191815901,2657.80534901605
0.122770187597928,2657.81534901605
0.0891044657048244,2657.82534901605
0.058343266349803,2657.83534901605
0.0300274657585074,2657.84534901605
0.00412664980666135,2657.85534901605
-0.0214410872712169,2657.86534901605
-0.0469222373198543,2657.87534901605
-0.0724099487942207,2657.88534901605
-0.0974420640074799,2657.89534901605
-0.121515834255791,2657.90534901605
-0.142688273371927,2657.91534901605
-0.158752986371604,2657.92534901605
-0.169116816026058,2657.93534901605
-0.17291167299954,2657.94534901605
-0.168381276056325,2657.95534901605
-0.157118894450691,2657.96534901605
-0.140036100443768,2657.97534901605
-0.118445602482648,2657.98534901605
-0.0938519541340987,2657.99534901605
-0.0691318866115773,2658.00534901605
-0.0458227629711528,2658.01534901605
-0.025788396757524,2658.02534901605
-0.0110280848328811,2658.03534901605
-0.0018191004234351,2658.04534901605
0.00101214925661598,2658.05534901605
-0.00206104072963849,2658.06534901605
-0.00953142448592044,2658.07534901605
-0.0207629397616492,2658.08534901605
-0.0343641661414074,2658.09534901605
-0.0502723728458811,2658.10534901605
-0.0677316213464851,2658.11534901605
-0.0868149277992368,2658.12534901605
-0.106325642795333,2658.13534901605
-0.125911208114802,2658.14534901605
-0.14560089236013,2658.15534901605
-0.164162535478212,2658.16534901605
-0.18218865679627,2658.17534901605
-0.199612648118373,2658.18534901605
-0.216831878186293,2658.19534901605
-0.232935189452087,2658.20534901605
-0.248102087988476,2658.21534901605
-0.261367600344492,2658.22534901605
-0.272692504366086,2658.23534901605
-0.283169682207306,2658.24534901605
-0.293067584971902,2658.25534901605
-0.303496815692045,2658.26534901605
-0.313695518452916,2658.27534901605
-0.323974885983838,2658.28534901605
-0.333807405778184,2658.29534901605
-0.343030536959385,2658.30534901605
-0.351846398675235,2658.31534901605
-0.361137631144968,2658.32534901605
-0.37083006520529,2658.33534901605
-0.380307566942413,2658.34534901605
-0.390166648626296,2658.35534901605
-0.400242075368188,2658.36534901605
-0.408609926408938,2658.37534901605
-0.415379099422772,2658.38534901605
-0.417741395959797,2658.39534901605
-0.408515404617826,2658.40534901605
-0.377783356115146,2658.41534901605
-0.313966056340705,2658.42534901605
-0.210200853542879,2658.43534901605
-0.0720756341830919,2658.44534901605
0.0802001012370411,2658.45534901605
0.222508550474323,2658.46534901605
0.337612904654648,2658.47534901605
0.417002412931751,2658.48534901605
0.462807803438833,2658.49534901605
0.481256295551544,2658.50534901605
0.481615153939538,2658.51534901605
0.470806836638913,2658.52534901605
0.4518925237129,2658.53534901605
0.427520966149897,2658.54534901605
0.398358288034591,2658.55534901605
0.36375390311843,2658.56534901605
0.324811041625689,2658.57534901605
0.28340665608369,2658.58534901605
0.239365695836586,2658.59534901605
0.194041395165054,2658.60534901605
0.14973415396084,2658.61534901605
0.108173163693213,2658.62534901605
0.069759892991679,2658.63534901605
0.0349398360100307,2658.64534901605
0.0036933304528162,2658.65534901605
-0.0247770121191624,2658.66534901605
-0.0528036491674688,2658.67534901605
-0.0807263214704325,2658.68534901605
-0.109120516444364,2658.69534901605
-0.136609326478515,2658.70534901605
-0.161971418162568,2658.71534901605
-0.183206827167049,2658.72534901605
-0.199397677164927,2658.73534901605
-0.209578238852836,2658.74534901605
-0.212562140128012,2658.75534901605
-0.207543226558612,2658.76534901605
-0.195084924699986,2658.77534901605
-0.17581216367074,2658.78534901605
-0.15044140947267,2658.79534901605
-0.121965925552058,2658.80534901605
-0.0926408132957428,2658.81534901605
-0.0647174924362425,2658.82534901605
-0.0402528012758186,2658.83534901605
-0.0215831414089954,2658.84534901605
-0.00838247377575905,2658.85534901605
-0.00139708938349783,2658.86534901605
-0.000566495781869689,2658.87534901605
-0.00513921425414571,2658.88534901605
-0.0146422154954452,2658.89534901605
-0.0274646560367264,2658.90534901605
-0.0434415098913244,2658.91534901605
-0.0607398063739339,2658.92534901605
-0.0785541674437519,2658.93534901605
-0.0972965160046043,2658.94534901605
-0.116188661022425,2658.95534901605
-0.135850043017226,2658.96534901605
-0.155589012877393,2658.97534901605
-0.174731599595597,2658.98534901605
-0.192959033359089,2658.99534901605
-0.210066613344889,2659.00534901605
-0.225691802272713,2659.01534901605
-0.23980379590394,2659.02534901605
-0.251883000349723,2659.03534901605
-0.262946126889124,2659.04534901605
-0.274509567264748,2659.05534901605
-0.283270256669071,2659.06534901605
-0.29196783590621,2659.07534901605
-0.300926295738329,2659.08534901605
-0.310412923773098,2659.09534901605
-0.319676785268795,2659.10534901605
-0.328499349695881,2659.11534901605
-0.337221706780482,2659.12534901605
-0.343669156325987,2659.13534901605
-0.349502181664516,2659.14534901605
-0.356873794679608,2659.15534901605
-0.365874689489526,2659.16534901605
-0.375329000682249,2659.17534901605
-0.384415037182128,2659.18534901605
-0.391901136729197,2659.19534901605
-0.389060146677656,2659.20534901605
-0.370573520876733,2659.21534901605
-0.32514121471594,2659.22534901605
-0.244043649028571,2659.23534901605
-0.124659762039768,2659.24534901605
0.0195878707654078,2659.25534901605
0.166148817534553,2659.26534901605
0.297074152420829,2659.27534901605
0.3969054000735,2659.28534901605
0.462020479182765,2659.29534901605
0.49478034765493,2659.30534901605
0.504586548196734,2659.31534901605
0.499185738972178,2659.32534901605
0.483324447727491,2659.33534901605
0.464001659192617,2659.34534901605
0.439741973117162,2659.35534901605
0.410902697646569,2659.36534901605
0.377080282460024,2659.37534901605
0.338787322342072,2659.38534901605
0.297336829084243,2659.39534901605
0.253950311898253,2659.40534901605
0.212704042666715,2659.41534901605
0.173283581466083,2659.42534901605
0.135034417777516,2659.43534901605
0.098682708399787,2659.44534901605
0.0655024876214563,2659.45534901605
0.034208568032066,2659.46534901605
0.00430425472447068,2659.47534901605
-0.0223188099546635,2659.48534901605
-0.0485337404483852,2659.49534901605
-0.0745015229183261,2659.50534901605
-0.100460885399099,2659.51534901605
-0.123598857082669,2659.52534901605
-0.142249512109938,2659.53534901605
-0.154489328197467,2659.54534901605
-0.156421613809702,2659.55534901605
-0.150194762323348,2659.56534901605
-0.13627507690905,2659.57534901605
-0.115569396602454,2659.58534901605
-0.0888268549013794,2659.59534901605
-0.0578730550879148,2659.60534901605
-0.0265150294355612,2659.61534901605
0.00637221846156264,2659.62534901605
0.0358265939620596,2659.63534901605
0.0592361699117676,2659.64534901605
0.0739813098133279,2659.65534901605
0.0807689351915785,2659.66534901605
0.0811134404174425,2659.67534901605
0.0742973511661141,2659.68534901605
0.0652810361130133,2659.69534901605
0.0522766149539476,2659.70534901605
0.0358281134860728,2659.71534901605
0.0156370102868025,2659.72534901605
-0.00578841014397489,2659.73534901605
-0.0281438908956591,2659.74534901605
-0.0512237023751399,2659.75534901605
-0.0711215770132049,2659.76534901605
-0.0903664070944092,2659.77534901605
-0.109375119098384,2659.78534901605
-0.127779381384067,2659.79534901605
-0.145021848332412,2659.80534901605
-0.160787379894992,2659.81534901605
-0.175480504070567,2659.82534901605
-0.186891828658905,2659.83534901605
-0.196906751789328,2659.84534901605
-0.20599762300379,2659.85534901605
-0.215716612203313,2659.86534901605
-0.224537161529783,2659.87534901605
-0.232906308862464,2659.88534901605
-0.241627870718652,2659.89534901605
-0.247853622317676,2659.90534901605
-0.254788622645075,2659.91534901605
-0.262686922096456,2659.92534901605
-0.2722556846422,2659.93534901605
-0.282067977872537,2659.94534901605
-0.292538620979083,2659.95534901605
-0.303253273550349,2659.96534901605
-0.311225493675235,2659.97534901605
-0.317513303104512,2659.98534901605
-0.319281278984728,2659.99534901605
-0.309013800380779,2660.00534901605
-0.276089782795894,2660.01534901605
-0.207141354532109,2660.02534901605
-0.0975868566801376,2660.03534901605
0.0421376447177711,2660.04534901605
0.190788079841795,2660.05534901605
0.329052440807861,2660.06534901605
0.439305180523067,2660.07534901605
0.515917838059424,2660.08534901605
0.560061548374452,2660.09534901605
0.579904546689259,2660.10534901605
0.582544679924626,2660.11534901605
0.573485797425962,2660.12534901605
0.55933995225777,2660.13534901605
0.540250336154755,2660.14534901605
0.516500759088358,2660.15534901605
0.487422610012954,2660.16534901605
0.454627349278846,2660.17534901605
0.419593072651487,2660.18534901605
0.382479412863802,2660.19534901605
0.347407531245865,2660.20534901605
0.314141329238178,2660.21534901605
0.282379924855733,2660.22534901605
0.252544274945431,2660.23534901605
0.225740103660541,2660.24534901605
0.201999222902252,2660.25534901605
0.17926836916538,2660.26534901605
0.159677049887138,2660.27534901605
0.139917721556214,2660.28534901605
0.118041716318028,2660.29534901605
0.0938753756492309,2660.30534901605
0.0690591952830316,2660.31534901605
0.0458927207166623,2660.32534901605
0.0259070250501479,2660.33534901605
0.0141468571082607,2660.34534901605
0.0101100115085713,2660.35534901605
0.012915671247252,2660.36534901605
0.0220353309211586,2660.37534901605
0.0377725764978886,2660.38534901605
0.0581503150924444,2660.39534901605
0.0807876913216655,2660.40534901605
0.106807994162266,2660.41534901605
0.131723599330331,2660.42534901605
0.152641231671061,2660.43534901605
0.167299186907051,2660.44534901605
0.176612175542826,2660.45534901605
0.179625818251525,2660.46534901605
0.17683858551759,2660.47534901605
0.172051901656416,2660.48534901605
0.163702670507623,2660.49534901605
0.151344523168938,2660.50534901605
0.135288838568087,2660.51534901605
0.117574628758554,2660.52534901605
0.0984661410741646,2660.53534901605
0.0781254112945833,2660.54534901605
0.0598266173646556,2660.55534901605
0.0410071325802895,2660.56534901605
0.0222211595802902,2660.57534901605
0.00262200202506285,2660.58534901605
-0.0166284842150774,2660.59534901605
-0.0351417352682819,2660.60534901605
-0.053369447317913,2660.61534901605
-0.0679151052156278,2660.62534901605
-0.0808669515573022,2660.63534901605
-0.0928349902240605,2660.64534901605
-0.104619208986557,2660.65534901605
-0.115235416143371,2660.66534901605
-0.125278206024229,2660.67534901605
-0.135160785008455,2660.68534901605
-0.141876065509905,2660.69534901605
-0.149021222335898,2660.70534901605
-0.156863113532572,2660.71534901605
-0.16657890019918,2660.72534901605
-0.176783446819959,2660.73534901605
-0.187791607956083,2660.74534901605
-0.199847573583118,2660.75534901605
-0.209716426300577,2660.76534901605
-0.219063802232055,2660.77534901605
-0.228170477226628,2660.78534901605
-0.235143177893282,2660.79534901605
-0.233459312067511,2660.80534901605
-0.213255626462039,2660.81534901605
-0.162755538214889,2660.82534901605
-0.0710705227173465,2660.83534901605
0.05550296912317,2660.84534901605
0.199808943269473,2660.85534901605
0.339180096055984,2660.86534901605
0.457025132585144,2660.87534901605
0.544484968439119,2660.88534901605
0.601429929911714,2660.89534901605
0.634867899612004,2660.90534901605
0.649003849367048,2660.91534901605
0.648960015097611,2660.92534901605
0.638389476020529,2660.93534901605
0.620788229417336,2660.94534901605
0.597996862360702,2660.95534901605
0.570098084330439,2660.96534901605
0.541691268994295,2660.97534901605
0.51062001760306,2660.98534901605
0.476735371293937,2660.99534901605
0.441013255051323,2661.00534901605
0.405518342772204,2661.01534901605
0.371695772451738,2661.02534901605
0.341008265691324,2661.03534901605
0.313562296590729,2661.04534901605
0.288293877427947,2661.05534901605
0.267661307406428,2661.06534901605
0.248490246865282,2661.07534901605
0.228239356651245,2661.08534901605
0.20537689314026,2661.09534901605
0.180628352677163,2661.10534901605
0.154409746401034,2661.11534901605
0.12816895816555,2661.12534901605
0.107494382626858,2661.13534901605
0.0916444719433871,2661.14534901605
0.0815274939461302,2661.15534901605
0.0773195657031853,2661.16534901605
0.0802338694611839,2661.17534901605
0.0898312177582165,2661.18534901605
0.105420338122821,2661.19534901605
0.12795998315595,2661.20534901605
0.15332989626999,2661.21534901605
0.178414922271462,2661.22534901605
0.200113288816394,2661.23534901605
0.217011098844757,2661.24534901605
0.22863213951358,2661.25534901605
0.233895733373588,2661.26534901605
0.23574404434372,2661.27534901605
0.232581853654945,2661.28534901605
0.224687039279773,2661.29534901605
0.212128567169042,2661.30534901605
0.196882180554701,2661.31534901605
0.179747454438087,2661.32534901605
0.160634268051966,2661.33534901605
0.142147575889027,2661.34534901605
0.123852585813121,2661.35534901605
0.10381801523271,2661.36534901605
0.0826821047181397,2661.37534901605
0.0617307602500625,2661.38534901605
0.0413031938486398,2661.39534901605
0.0217601464393912,2661.40534901605
0.00512392089179948,2661.41534901605
-0.00986756631192906,2661.42534901605
-0.0247120845007498,2661.43534901605
-0.0399262639532665,2661.44534901605
-0.0542804829471139,2661.45534901605
-0.0680121037473677,2661.46534901605
-0.0814590938356263,2661.47534901605
-0.0916367466755242,2661.48534901605
-0.100680894100699,2661.49534901605
-0.10917070760226,2661.50534901605
-0.117976638475818,2661.51534901605
-0.126586046534452,2661.52534901605
-0.13505024351873,2661.53534901605
-0.14410157397715,2661.54534901605
-0.151286838804855,2661.55534901605
-0.158476833713385,2661.56534901605
-0.166217971217541,2661.57534901605
-0.176062664596071,2661.58534901605
-0.186063010361387,2661.59534901605
-0.196542010034913,2661.60534901605
-0.207926789540015,2661.61534901605
-0.216575424840881,2661.62534901605
-0.22499939203788,2661.63534901605
-0.232045616731678,2661.64534901605
-0.234891774717018,2661.65534901605
-0.22431897239867,2661.66534901605
-0.188629552958797,2661.67534901605
-0.116333413966318,2661.68534901605
-0.00151244238122139,2661.69534901605
0.140935939827716,2661.70534901605
0.289923250380775,2661.71534901605
0.421827784989173,2661.72534901605
0.525288931199226,2661.73534901605
0.595055762137033,2661.74534901605
0.634758470048038,2661.75534901605
0.653188268791241,2661.76534901605
0.655345399750573,2661.77534901605
0.645927662004172,2661.78534901605
0.627272491019597,2661.79534901605
0.602017157208602,2661.80534901605
0.571263317233575,2661.81534901605
0.535510173608748,2661.82534901605
0.497847673777318,2661.83534901605
0.457713894292404,2661.84534901605
0.415827478298494,2661.85534901605
0.373419506532973,2661.86534901605
0.333109623978791,2661.87534901605
0.296213476746582,2661.88534901605
0.263463234561023,2661.89534901605
0.236178106092765,2661.90534901605
0.21207088488087,2661.91534901605
0.189250823483514,2661.92534901605
0.164917087472949,2661.93534901605
0.140296849400204,2661.94534901605
0.114630290665191,2661.95534901605
0.0885692241202102,2661.96534901605
0.0671408056907462,2661.97534901605
0.0498303889143794,2661.98534901605
0.0378795671016664,2661.99534901605
0.0323274621749363,2662.00534901605
0.0343163408443326,2662.01534901605
0.0445246575507369,2662.02534901605
0.0631062442082689,2662.03534901605
0.0883968081639253,2662.04534901605
0.11765325185502,2662.05534901605
0.151723433552645,2662.06534901605
0.184843298933379,2662.07534901605
0.213253885056391,2662.08534901605
0.234354170273127,2662.09534901605
0.247992111087567,2662.10534901605
0.253933444194948,2662.11534901605
0.252293329038157,2662.12534901605
0.246965647417061,2662.13534901605
0.237734424731965,2662.14534901605
0.224104477079451,2662.15534901605
0.206990995193347,2662.16534901605
0.188473126354751,2662.17534901605
0.168255466503758,2662.18534901605
0.14688681110319,2662.19534901605
0.127660590861393,2662.20534901605
0.107836885439493,2662.21534901605
0.0880949832784578,2662.22534901605
0.0676794224326375,2662.23534901605
0.0481328237579911,2662.24534901605
0.0298815624582045,2662.25534901605
0.0124988085699262,2662.26534901605
-0.0015484560510419,2662.27534901605
-0.014330402490765,2662.28534901605
-0.0264802072824913,2662.29534901605
-0.039219477564191,2662.30534901605
-0.0504683570516102,2662.31534901605
-0.0614731456865042,2662.32534901605
-0.0711899084931964,2662.33534901605
-0.0783108217243782,2662.34534901605
-0.0845887814595992,2662.35534901605
-0.0906224073630182,2662.36534901605
-0.0979123025482655,2662.37534901605
-0.105784935596957,2662.38534901605
-0.114037957889431,2662.39534901605
-0.123296247588895,2662.40534901605
-0.130721013390065,2662.41534901605
-0.138261593503042,2662.42534901605
-0.147234177449155,2662.43534901605
-0.157513404898716,2662.44534901605
-0.167711961406731,2662.45534901605
-0.177196557354222,2662.46534901605
-0.183272160646366,2662.47534901605
-0.176946289768423,2662.48534901605
-0.150347071701844,2662.49534901605
-0.091939619422702,2662.50534901605
0.00320277104585952,2662.51534901605
0.128973779519744,2662.52534901605
0.267908391037531,2662.53534901605
0.398555765757276,2662.54534901605
0.509059061343257,2662.55534901605
0.589795204388009,2662.56534901605
0.641089966164523,2662.57534901605
0.667020675760274,2662.58534901605
0.674536012057397,2662.59534901605
0.669464365143632,2662.60534901605
0.654963213855207,2662.61534901605
0.636274216539894,2662.62534901605
0.612335905431117,2662.63534901605
0.583105496634536,2662.64534901605
0.548752693407289,2662.65534901605
0.510732816846951,2662.66534901605
0.47098612439789,2662.67534901605
0.430696092975018,2662.68534901605
0.394035987412198,2662.69534901605
0.360277737126945,2662.70534901605
0.329423331796593,2662.71534901605
0.300840518976853,2662.72534901605
0.275336233538813,2662.73534901605
0.251675605264794,2662.74534901605
0.227793063715406,2662.75534901605
0.20608567025682,2662.76534901605
0.183265543812289,2662.77534901605
0.159117340331213,2662.78534901605
0.134641325986704,2662.79534901605
0.113738352482922,2662.80534901605
0.0977355799521178,2662.81534901605
0.0891155429284179,2662.82534901605
0.0911673242263183,2662.83534901605
0.101960671347498,2662.84534901605
0.120250603671844,2662.85534901605
0.143696408107414,2662.86534901605
0.171688320545178,2662.87534901605
0.201356416743127,2662.88534901605
0.229886299473063,2662.89534901605
0.257767188965544,2662.90534901605
0.280032478380345,2662.91534901605
0.2949287243879,2662.92534901605
0.300812504498534,2662.93534901605
0.299963993834109,2662.94534901605
0.29263199687852,2662.95534901605
0.28017823081159,2662.96534901605
0.266822312743202,2662.97534901605
0.250646205117676,2662.98534901605
0.23204275022342,2662.99534901605
0.210574623199581,2663.00534901605
0.187754026264256,2663.01534901605
0.164599525838693,2663.02534901605
0.141905844346669,2663.03534901605
0.120124469345749,2663.04534901605
0.0979909770824283,2663.05534901605
0.079848608958192,2663.06534901605
0.0630214922570493,2663.07534901605
0.0461698979126301,2663.08534901605
0.0295083504165686,2663.09534901605
0.0137017608178983,2663.10534901605
-0.000726460020750863,2663.11534901605
-0.0143487357151937,2663.12534901605
-0.0243034572521994,2663.13534901605
-0.0329947175452905,2663.14534901605
-0.0415682094393021,2663.15534901605
-0.0506970834719083,2663.16534901605
-0.0597167131350246,2663.17534901605
-0.0683910651269194,2663.18534901605
-0.0776217615695676,2663.19534901605
-0.0844276361571968,2663.20534901605
-0.0904767677148261,2663.21534901605
-0.097314358579933,2663.22534901605
-0.10529513166014,2663.23534901605
-0.114092962252272,2663.24534901605
-0.124286079493229,2663.25534901605
-0.136113576810755,2663.26534901605
-0.146638456916028,2663.27534901605
-0.157615091161137,2663.28534901605
-0.169344406341705,2663.29534901605
-0.181842673189674,2663.30534901605
-0.19232196278297,2663.31534901605
-0.197733545020316,2663.32534901605
-0.190329231761571,2663.33534901605
-0.156525307335645,2663.34534901605
-0.0858365898199779,2663.35534901605
0.0246915076349324,2663.36534901605
0.1632990186834,2663.37534901605
0.311297053472565,2663.38534901605
0.446620970439414,2663.39534901605
0.554824255753996,2663.40534901605
0.634032817895743,2663.41534901605
0.684178815887881,2663.42534901605
0.710215054840304,2663.43534901605
0.717813297955742,2663.44534901605
0.713500919965558,2663.45534901605
0.700138848758603,2663.46534901605
0.680302875108681,2663.47534901605
0.657600746529159,2663.48534901605
0.630423462082625,2663.49534901605
0.59955981211286,2663.50534901605
0.565283779198375,2663.51534901605
0.529239390375573,2663.52534901605
0.493139564946872,2663.53534901605
0.457876323271646,2663.54534901605
0.427013671337538,2663.55534901605
0.400422289584913,2663.56534901605
0.37726053836084,2663.57534901605
0.356760318860148,2663.58534901605
0.338477271354229,2663.59534901605
0.321117730545162,2663.60534901605
0.302601363087329,2663.61534901605
0.284598208230793,2663.62534901605
0.264520677653306,2663.63534901605
0.242218584537022,2663.64534901605
0.219422132115706,2663.65534901605
0.19876463400106,2663.66534901605
0.182709126475476,2663.67534901605
0.173087473739718,2663.68534901605
0.172557237539443,2663.69534901605
0.179899465315328,2663.70534901605
0.193314033841435,2663.71534901605
0.211009891513115,2663.72534901605
0.232535034724251,2663.73534901605
0.254436263107661,2663.74534901605
0.274674563766049,2663.75534901605
0.294170943124058,2663.76534901605
0.309353631920054,2663.77534901605
0.319121841665875,2663.78534901605
0.32236006195868,2663.79534901605
0.319661659932548,2663.80534901605
0.312288896679384,2663.81534901605
0.299611690809832,2663.82534901605
0.286681516755772,2663.83534901605
0.271571706987998,2663.84534901605
0.254440748239902,2663.85534901605
0.234724098745296,2663.86534901605
0.213758214710749,2663.87534901605
0.191543119682452,2663.88534901605
0.1687706861325,2663.89534901605
0.147445429772539,2663.90534901605
0.127464111718125,2663.91534901605
0.108080758763919,2663.92534901605
0.0888226497671655,2663.93534901605
0.0703988563492183,2663.94534901605
0.0525989044159222,2663.95534901605
0.0357719215716459,2663.96534901605
0.0222596040475286,2663.97534901605
0.00970035516433777,2663.98534901605
-0.00224997408581465,2663.99534901605
-0.0142803412573836,2664.00534901605
-0.0261850351164113,2664.01534901605
-0.0376271005035186,2664.02534901605
-0.0474794260226533,2664.03534901605
-0.0568073530248335,2664.04534901605
-0.0669577839950588,2664.05534901605
-0.0743628409500042,2664.06534901605
-0.0822849822437162,2664.07534901605
-0.0906467427515954,2664.08534901605
-0.100690255414627,2664.09534901605
-0.111216300298309,2664.10534901605
-0.122021876724573,2664.11534901605
-0.133670277008828,2664.12534901605
-0.143809061506952,2664.13534901605
-0.154306377089064,2664.14534901605
-0.165307370674332,2664.15534901605
-0.176460740025017,2664.16534901605
-0.184365966918357,2664.17534901605
-0.184039871551231,2664.18534901605
-0.166822400965709,2664.19534901605
-0.117070463469344,2664.20534901605
-0.0274399044535104,2664.21534901605
0.0979812675097296,2664.22534901605
0.24308323611376,2664.23534901605
0.386213511067074,2664.24534901605
0.508916499362581,2664.25534901605
0.601311380696279,2664.26534901605
0.665262429428839,2664.27534901605
0.70204010322062,2664.28534901605
0.717657640664648,2664.29534901605
0.717182691738532,2664.30534901605
0.706088654273095,2664.31534901605
0.686444028011131,2664.32534901605
0.660223390006527,2664.33534901605
0.63132361511732,2664.34534901605
0.598571850337348,2664.35534901605
0.562411766740658,2664.36534901605
0.523584529567145,2664.37534901605
0.483919956821431,2664.38534901605
0.444575239095322,2664.39534901605
0.406688753900891,2664.40534901605
0.373765189972538,2664.41534901605
0.344730348927585,2664.42534901605
0.318548452765426,2664.43534901605
0.294176596468527,2664.44534901605
0.271101998126662,2664.45534901605
0.24817459418137,2664.46534901605
0.223611181249385,2664.47534901605
0.200293239944686,2664.48534901605
0.175848595469308,2664.49534901605
0.151798688072081,2664.50534901605
0.129154762893241,2664.51534901605
0.111582231952245,2664.52534901605
0.100357164257612,2664.53534901605
0.0964689225563874,2664.54534901605
0.103489879706583,2664.55534901605
0.117661949055413,2664.56534901605
0.138270959582569,2664.57534901605
0.161545389270478,2664.58534901605
0.18642401123733,2664.59534901605
0.210954919695099,2664.60534901605
0.232536916758031,2664.61534901605
0.25226408059345,2664.62534901605
0.266397327216475,2664.63534901605
0.273980408594547,2664.64534901605
0.274404850351686,2664.65534901605
0.268556995446733,2664.66534901605
0.258411316497273,2664.67534901605
0.243949902488102,2664.68534901605
0.22849172242042,2664.69534901605
0.211205530286352,2664.70534901605
0.192438996077105,2664.71534901605
0.171593593878464,2664.72534901605
0.149724977915145,2664.73534901605
0.127737707626483,2664.74534901605
0.1050876349916,2664.75534901605
0.0850029490877306,2664.76534901605
0.0653250402526152,2664.77534901605
0.0453656529448585,2664.78534901605
0.0254844881168566,2664.79534901605
0.00612866595706629,2664.80534901605
-0.0124327133988369,2664.81534901605
-0.0304993786530141,2664.82534901605
-0.0448489505464409,2664.83534901605
-0.0577644646477995,2664.84534901605
-0.0699612856994982,2664.85534901605
-0.0826494204383158,2664.86534901605
-0.0945566994738156,2664.87534901605
-0.106239468773002,2664.88534901605
-0.117566983927725,2664.89534901605
-0.126881690213842,2664.90534901605
-0.135310906721558,2664.91534901605
-0.143780939812426,2664.92534901605
-0.153033603576328,2664.93534901605
-0.16189514836717,2664.94534901605
-0.170751490910031,2664.95534901605
-0.179678047869829,2664.96534901605
-0.187474014923815,2664.97534901605
-0.19589172202935,2664.98534901605
-0.205752411255328,2664.99534901605
-0.217121434126761,2665.00534901605
-0.229376322332366,2665.01534901605
-0.241519862925821,2665.02534901605
-0.252439007426372,2665.03534901605
-0.262047140174696,2665.04534901605
-0.268976253583322,2665.05534901605
-0.265542345174458,2665.06534901605
-0.244398857988829,2665.07534901605
-0.193361073219658,2665.08534901605
-0.1031625555133,2665.09534901605
0.0260326987954682,2665.10534901605
0.177383970024857,2665.11534901605
0.326783751167448,2665.12534901605
0.455805833926669,2665.13534901605
0.551903198644499,2665.14534901605
0.612459348205498,2665.15534901605
0.642414447843495,2665.16534901605
0.650243162075936,2665.17534901605
0.642672597528198,2665.18534901605
0.62443979713896,2665.19534901605
0.601710577958291,2665.20534901605
0.573449622602355,2665.21534901605
0.539444638014948,2665.22534901605
0.499337854302729,2665.23534901605
0.454839540124417,2665.24534901605
0.407102027809084,2665.25534901605
0.357937495834598,2665.26534901605
0.311929978874877,2665.27534901605
0.269309547468199,2665.28534901605
0.229846258448977,2665.29534901605
0.193449309135451,2665.30534901605
0.160898738623053,2665.31534901605
0.130361644751481,2665.32534901605
0.100463660133447,2665.33534901605
0.0738690447848436,2665.34534901605
0.0468998846553086,2665.35534901605
0.0200176165218712,2665.36534901605
-0.0063685709646961,2665.37534901605
-0.0297244183541999,2665.38534901605
-0.0477630044751696,2665.39534901605
-0.0600700606569204,2665.40534901605
-0.0621440391323718,2665.41534901605
-0.0550427012340057,2665.42534901605
-0.0396782369190649,2665.43534901605
-0.0169619319833857,2665.44534901605
0.0123147362522608,2665.45534901605
0.0460005574916611,2665.46534901605
0.0807498494817072,2665.47534901605
0.116183810677285,2665.48534901605
0.147272010194177,2665.49534901605
0.171494698358174,2665.50534901605
0.185976363995302,2665.51534901605
0.192987022041294,2665.52534901605
0.191794885442538,2665.53534901605
0.183523910600925,2665.54534901605
0.172675538481817,2665.55534901605
0.157723149707748,2665.56534901605
0.13985618187167,2665.57534901605
0.119333133158377,2665.58534901605
0.0971788488096957,2665.59534901605
0.0742234557214964,2665.60534901605
0.0504002153084447,2665.61534901605
0.0279932405980801,2665.62534901605
0.00649319650551619,2665.63534901605
-0.0151361696480732,2665.64534901605
-0.036504647108908,2665.65534901605
-0.0571587926899627,2665.66534901605
-0.0767968276978769,2665.67534901605
-0.0946592426500467,2665.68534901605
-0.108685347302501,2665.69534901605
-0.121092970808691,2665.70534901605
-0.133181503145192,2665.71534901605
-0.144509387344501,2665.72534901605
-0.155193412604925,2665.73534901605
-0.164721513489956,2665.74534901605
-0.173898949797116,2665.75534901605
-0.180323444181602,2665.76534901605
-0.185993623062057,2665.77534901605
-0.192561366145696,2665.78534901605
-0.200301017469154,2665.79534901605
-0.209153494988148,2665.80534901605
-0.218620624142061,2665.81534901605
-0.228947446955999,2665.82534901605
-0.237543504251764,2665.83534901605
-0.246259954856164,2665.84534901605
-0.256468284530385,2665.85534901605
-0.267858064910442,2665.86534901605
-0.278463444050225,2665.87534901605
-0.287696594325644,2665.88534901605
-0.291642908753843,2665.89534901605
-0.281244099905652,2665.90534901605
-0.247302299230905,2665.91534901605
-0.177729465994288,2665.92534901605
-0.0684156548694154,2665.93534901605
0.0715693430988174,2665.94534901605
0.222080121544427,2665.95534901605
0.359983454428075,2665.96534901605
0.472373726914068,2665.97534901605
0.55191171113753,2665.98534901605
0.599480441823418,2665.99534901605
0.620989733203951,2666.00534901605
0.623725182749986,2666.01534901605
0.614395506257789,2666.02534901605
0.597583269118165,2666.03534901605
0.574739966932765,2666.04534901605
0.545517512916702,2666.05534901605
0.513110754820193,2666.06534901605
0.476116794976398,2666.07534901605
0.434637290641753,2666.08534901605
0.389367407829981,2666.09534901605
0.343668871077245,2666.10534901605
0.299197995744981,2666.11534901605
0.257546471104837,2666.12534901605
0.222490956676301,2666.13534901605
0.191563167460642,2666.14534901605
0.163534919421834,2666.15534901605
0.136542798244024,2666.16534901605
0.111135248055528,2666.17534901605
0.0852332083027543,2666.18534901605
0.0586358399177986,2666.19534901605
0.033903578102571,2666.20534901605
0.010543705627082,2666.21534901605
-0.010439884835574,2666.22534901605
-0.0273026626434788,2666.23534901605
-0.0374901564630781,2666.24534901605
-0.0403176550854844,2666.25534901605
-0.034498618593105,2666.26534901605
-0.0186296297379962,2666.27534901605
0.00414975725791941,2666.28534901605
0.03205396245206,2666.29534901605
0.0616780676080597,2666.30534901605
0.0916041191635241,2666.31534901605
0.119292098841461,2666.32534901605
0.142553602816586,2666.33534901605
0.161685942988114,2666.34534901605
0.173768338136815,2666.35534901605
0.177774943690146,2666.36534901605
0.17354107060835,2666.37534901605
0.163687739425377,2666.38534901605
0.148775361325834,2666.39534901605
0.130346744110919,2666.40534901605
0.112395765011528,2666.41534901605
0.0929276354386527,2666.42534901605
0.0717999944577747,2666.43534901605
0.0481681319236106,2666.44534901605
0.0241490556773904,2666.45534901605
-0.000300465527089008,2666.46534901605
-0.0247076779268506,2666.47534901605
-0.0460429885099785,2666.48534901605
-0.065790491875025,2666.49534901605
-0.0845153872083084,2666.50534901605
-0.102271836026133,2666.51534901605
-0.118818543594313,2666.52534901605
-0.134672843370394,2666.53534901605
-0.149091150542668,2666.54534901605
-0.160636969962667,2666.55534901605
-0.17115796536567,2666.56534901605
-0.180951488136805,2666.57534901605
-0.190864740768754,2666.58534901605
-0.200565004815818,2666.59534901605
-0.209839485428936,2666.60534901605
-0.219301281116637,2666.61534901605
-0.226208419172209,2666.62534901605
-0.233728797896992,2666.63534901605
-0.241626732956116,2666.64534901605
-0.250787641576027,2666.65534901605
-0.260583079999358,2666.66534901605
-0.271041528029585,2666.67534901605
-0.282355281982092,2666.68534901605
-0.291862670852629,2666.69534901605
-0.301412426234148,2666.70534901605
-0.311698159893872,2666.71534901605
-0.322022106869862,2666.72534901605
-0.328427528792415,2666.73534901605
-0.324406114332369,2666.74534901605
-0.29942470048357,2666.75534901605
-0.237288162973314,2666.76534901605
-0.131984409742001,2666.77534901605
0.0103082524244231,2666.78534901605
0.168577109581337,2666.79534901605
0.320208113098993,2666.80534901605
0.445437244527239,2666.81534901605
0.535291953632565,2666.82534901605
0.59321713684658,2666.83534901605
0.62323641251618,2666.84534901605
0.631983750499838,2666.85534901605
0.625123387147121,2666.86534901605
0.609091753084392,2666.87534901605
0.585957997203735,2666.88534901605
0.557333920605132,2666.89534901605
0.526057867593521,2666.90534901605
0.490465903005855,2666.91534901605
0.45103721389657,2666.92534901605
0.408000423080348,2666.93534901605
0.364066608921878,2666.94534901605
0.321321603728605,2666.95534901605
0.280581629073533,2666.96534901605
0.245614072438615,2666.97534901605
0.21401245530361,2666.98534901605
0.185356870495884,2666.99534901605
0.159187448418753,2667.00534901605
0.134984605645017,2667.01534901605
0.112006015317528,2667.02534901605
0.0898895407104002,2667.03534901605
0.0670675123424365,2667.04534901605
0.0427028620993272,2667.05534901605
0.0211378537421021,2667.06534901605
0.00188222013447642,2667.07534901605
-0.0136981675710981,2667.08534901605
-0.0245648687666405,2667.09534901605
-0.0280797987622981,2667.10534901605
-0.024615563221602,2667.11534901605
-0.0147270092570269,2667.12534901605
0.00349090467564589,2667.13534901605
0.0260156928759671,2667.14534901605
0.0509991296571739,2667.15534901605
0.0749291262396857,2667.16534901605
0.0962151179816903,2667.17534901605
0.113795329509674,2667.18534901605
0.125521083748607,2667.19534901605
0.133706595561245,2667.20534901605
0.135787052637612,2667.21534901605
0.131645576788836,2667.22534901605
0.121273847568491,2667.23534901605
0.107080502558466,2667.24534901605
0.089865448120347,2667.25534901605
0.0703239751597214,2667.26534901605
0.0518055281140196,2667.27534901605
0.0325485244234796,2667.28534901605
0.0114099135525138,2667.29534901605
-0.011149314122311,2667.30534901605
-0.0341919130372042,2667.31534901605
-0.0568312861676774,2667.32534901605
-0.0787615596744225,2667.33534901605
-0.0973754247719577,2667.34534901605
-0.114662796851425,2667.35534901605
-0.13137662375237,2667.36534901605
-0.147642427259239,2667.37534901605
-0.163280136498765,2667.38534901605
-0.177929927842686,2667.39534901605
-0.192507857342697,2667.40534901605
-0.203054461989041,2667.41534901605
-0.213419590320038,2667.42534901605
-0.222950669982011,2667.43534901605
-0.232987738354593,2667.44534901605
-0.242377577019097,2667.45534901605
-0.251495791605961,2667.46534901605
-0.260994275641503,2667.47534901605
-0.268569288452664,2667.48534901605
-0.276491696618011,2667.49534901605
-0.285103542652206,2667.50534901605
-0.295403336569135,2667.51534901605
-0.306143861868516,2667.52534901605
-0.317853942044191,2667.53534901605
-0.330196370085866,2667.54534901605
-0.340619409599979,2667.55534901605
-0.349964706860819,2667.56534901605
-0.357955927484652,2667.57534901605
-0.360911785237484,2667.58534901605
-0.351586179579953,2667.59534901605
-0.318828419295007,2667.60534901605
-0.250889523513995,2667.61534901605
-0.137584307406267,2667.62534901605
0.0106967444160555,2667.63534901605
0.17132360977394,2667.64534901605
0.319515817263229,2667.65534901605
0.437856216873381,2667.66534901605
0.519221683421819,2667.67534901605
0.564888736487244,2667.68534901605
0.585264939249659,2667.69534901605
0.586294918638173,2667.70534901605
0.573807850276298,2667.71534901605
0.552560518057868,2667.72534901605
0.524161403975671,2667.73534901605
0.48998052337552,2667.74534901605
0.44969855269052,2667.75534901605
0.406755447741286,2667.76534901605
0.360432880172478,2667.77534901605
0.311832843218142,2667.78534901605
0.262853340834588,2667.79534901605
0.214811069069637,2667.80534901605
0.170170081993655,2667.81534901605
0.128317288635876,2667.82534901605
0.093262610797478,2667.83534901605
0.0621366501171538,2667.84534901605
0.0330091678356388,2667.85534901605
0.00488365227804062,2667.86534901605
-0.0219505347391958,2667.87534901605
-0.0490138399121372,2667.88534901605
-0.076134404251712,2667.89534901605
-0.0993444626327267,2667.90534901605
-0.120449641993524,2667.91534901605
-0.137627728160005,2667.92534901605
-0.150516092360713,2667.93534901605
-0.157296366997996,2667.94534901605
-0.156463768110224,2667.95534901605
-0.148041800295312,2667.96534901605
-0.129416111894345,2667.97534901605
-0.104159403237492,2667.98534901605
-0.074967447389046,2667.99534901605
-0.0448296175742781,2668.00534901605
-0.0153275968761136,2668.01534901605
0.0102715467748581,2668.02534901605
0.0312936661127561,2668.03534901605
0.0463885633000711,2668.04534901605
0.0541441377853546,2668.05534901605
0.0571210807789835,2668.06534901605
0.0538494535729748,2668.07534901605
0.0446598562444151,2668.08534901605
0.0300372005050621,2668.09534901605
0.0122605136795185,2668.10534901605
-0.00788841476632114,2668.11534901605
-0.0296659615615942,2668.12534901605
-0.049984179797962,2668.13534901605
-0.0704857100327907,2668.14534901605
-0.0919623760200622,2668.15534901605
-0.114548367301991,2668.16534901605
-0.136418016854381,2668.17534901605
-0.1576049660547,2668.18534901605
-0.178071084611865,2668.19534901605
-0.194499278854703,2668.20534901605
-0.20962014951514,2668.21534901605
-0.223577078087719,2668.22534901605
-0.237686517634318,2668.23534901605
-0.25068324226121,2668.24534901605
-0.263198752918493,2668.25534901605
-0.275174013635516,2668.26534901605
-0.283936887150707,2668.27534901605
-0.292406385151709,2668.28534901605
-0.300743780556249,2668.29534901605
-0.309450644044438,2668.30534901605
-0.318404435645006,2668.31534901605
-0.327327602512078,2668.32534901605
-0.336760426325565,2668.33534901605
-0.343707339446587,2668.34534901605
-0.350832318294919,2668.35534901605
-0.358570784425132,2668.36534901605
-0.367488364604061,2668.37534901605
-0.375799441189695,2668.38534901605
-0.382164641291923,2668.39534901605
-0.382051535623935,2668.40534901605
-0.365266047101486,2668.41534901605
-0.322455072313104,2668.42534901605
-0.241896300411296,2668.43534901605
-0.121617339577609,2668.44534901605
0.0288794131873388,2668.45534901605
0.185676412229774,2668.46534901605
0.325768184936353,2668.47534901605
0.43584406940871,2668.48534901605
0.508472309255625,2668.49534901605
0.547029713565841,2668.50534901605
0.558024862488224,2668.51534901605
0.551471089546265,2668.52534901605
0.533385112437289,2668.53534901605
0.507381934084113,2668.54534901605
0.478068978376804,2668.55534901605
0.443917524540975,2668.56534901605
0.404325659996057,2668.57534901605
0.359098187675239,2668.58534901605
0.31062947146806,2668.59534901605
0.260592814587362,2668.60534901605
0.21033372780793,2668.61534901605
0.164683322965939,2668.62534901605
0.122978936218358,2668.63534901605
0.0852316027328195,2668.64534901605
0.0508870340698918,2668.65534901605
0.0197328664557282,2668.66534901605
-0.00921737333425527,2668.67534901605
-0.0376310913380428,2668.68534901605
-0.0631505506521295,2668.69534901605
-0.0880789448773883,2668.70534901605
-0.11236063021767,2668.71534901605
-0.135321926382789,2668.72534901605
-0.154660111596383,2668.73534901605
-0.168845876183496,2668.74534901605
-0.175456476614635,2668.75534901605
-0.172422843983067,2668.76534901605
-0.160942753677275,2668.77534901605
-0.141687978890352,2668.78534901605
-0.117243558428857,2668.79534901605
-0.0879002603721276,2668.80534901605
-0.0556095708271215,2668.81534901605
-0.024328002550079,2668.82534901605
0.00663435014658386,2668.83534901605
0.0336114353692165,2668.84534901605
0.0529861732651221,2668.85534901605
0.0637411969908961,2668.86534901605
0.0674395837498159,2668.87534901605
0.0634649041723145,2668.88534901605
0.0534087232428118,2668.89534901605
0.0402410722217579,2668.90534901605
0.0234794283940145,2668.91534901605
0.00331351685033844,2668.92534901605
-0.0196340002727467,2668.93534901605
-0.0433466876000818,2668.94534901605
-0.0680297609144094,2668.95534901605
-0.0926480757895698,2668.96534901605
-0.113593738947665,2668.97534901605
-0.133593037162266,2668.98534901605
-0.152449712278228,2668.99534901605
-0.171057218821142,2669.00534901605
-0.188578774545372,2669.01534901605
-0.205486164944884,2669.02534901605
-0.220214376980368,2669.03534901605
-0.233394012201883,2669.04534901605
-0.245378057440505,2669.05534901605
-0.253984393548158,2669.06534901605
-0.261355952620155,2669.07534901605
-0.268337730003231,2669.08534901605
-0.276791081992539,2669.09534901605
-0.285338952262037,2669.10534901605
-0.29408383804813,2669.11534901605
-0.304013408837769,2669.12534901605
-0.312484515308179,2669.13534901605
-0.320939938226299,2669.14534901605
-0.330590937745259,2669.15534901605
-0.341535402835668,2669.16534901605
-0.351663880240958,2669.17534901605
-0.35864043166671,2669.18534901605
-0.357934070135622,2669.19534901605
-0.336065604305533,2669.20534901605
-0.282789742072126,2669.21534901605
-0.188451451752903,2669.22534901605
-0.0546219424665585,2669.23534901605
0.102545745934051,2669.24534901605
0.25869625465788,2669.25534901605
0.3917044092847,2669.26534901605
0.492359881724548,2669.27534901605
0.558035295982594,2669.28534901605
0.592252880911911,2669.29534901605
0.60252352318292,2669.30534901605
0.596602959002816,2669.31534901605
0.580166882841314,2669.32534901605
0.555854134504372,2669.33534901605
0.528154516386647,2669.34534901605
0.495579727715996,2669.35534901605
0.457802062006736,2669.36534901605
0.415686227808987,2669.37534901605
0.370480068288473,2669.38534901605
0.324330659062205,2669.39534901605
0.278884098756511,2669.40534901605
0.238317586461701,2669.41534901605
0.201469080062506,2669.42534901605
0.168619429813896,2669.43534901605
0.138579920022762,2669.44534901605
0.1123281901478,2669.45534901605
0.0876597346676201,2669.46534901605
0.0639610835625075,2669.47534901605
0.0419518747919102,2669.48534901605
0.0198333570712382,2669.49534901605
-0.0025080097550028,2669.50534901605
-0.0259337996956419,2669.51534901605
-0.0467863554785895,2669.52534901605
-0.0638260593713238,2669.53534901605
-0.0750244777607981,2669.54534901605
-0.0769237206956826,2669.55534901605
-0.0710501495045624,2669.56534901605
-0.0580774032062071,2669.57534901605
-0.0394569358120643,2669.58534901605
-0.0163667406511805,2669.59534901605
0.0092381737667004,2669.60534901605
0.0342028606974667,2669.61534901605
0.0597392152422434,2669.62534901605
0.0809230017343668,2669.63534901605
0.0959175616815714,2669.64534901605
0.103897979428141,2669.65534901605
0.105666393366511,2669.66534901605
0.101586383199708,2669.67534901605
0.0920303871424029,2669.68534901605
0.0811250136406472,2669.69534901605
0.0666994743699593,2669.70534901605
0.049350897681448,2669.71534901605
0.0295983552083903,2669.72534901605
0.00825331156573553,2669.73534901605
-0.014516784221386,2669.74534901605
-0.0377932876411209,2669.75534901605
-0.0589833673731654,2669.76534901605
-0.0790356547349231,2669.77534901605
-0.0984064484954288,2669.78534901605
-0.117517210905522,2669.79534901605
-0.135433858501551,2669.80534901605
-0.152266088011272,2669.81534901605
-0.169091958104741,2669.82534901605
-0.182240852078115,2669.83534901605
-0.194206021397261,2669.84534901605
-0.205770629858126,2669.85534901605
-0.218074039465953,2669.86534901605
-0.229204075974827,2669.87534901605
-0.240231024246761,2669.88534901605
-0.251568728875472,2669.89534901605
-0.260468822960714,2669.90534901605
-0.268981685205185,2669.91534901605
-0.278992125874945,2669.92534901605
-0.290519896367632,2669.93534901605
-0.302466019920088,2669.94534901605
-0.314962426170667,2669.95534901605
-0.327645789677396,2669.96534901605
-0.337752185379094,2669.97534901605
-0.346777604282012,2669.98534901605
-0.353586434793062,2669.99534901605
-0.354438703541312,2670.00534901605
-0.340258658618051,2670.01534901605
-0.297903287939843,2670.02534901605
-0.214434611315005,2670.03534901605
-0.0871956943030913,2670.04534901605
0.069444747733481,2670.05534901605
0.234535481619527,2670.06534901605
0.38200409531225,2670.07534901605
0.495060700548515,2670.08534901605
0.568811556214241,2670.09534901605
0.608377586441481,2670.10534901605
0.621011373612411,2670.11534901605
0.614950956879495,2670.12534901605
0.59944649204776,2670.13534901605
0.576553631196693,2670.14534901605
0.547638902153595,2670.15534901605
0.512250508441189,2670.16534901605
0.472459187763988,2670.17534901605
0.428577753481807,2670.18534901605
0.38168711192882,2670.19534901605
0.336372516180641,2670.20534901605
0.291459119167869,2670.21534901605
0.248607586362953,2670.22534901605
0.208820483509109,2670.23534901605
0.173281986662632,2670.24534901605
0.142326343063318,2670.25534901605
0.115161132218038,2670.26534901605
0.0930528659224399,2670.27534901605
0.071658538699691,2670.28534901605
0.0500673335259564,2670.29534901605
0.0262681742766396,2670.30534901605
0.00198116715156008,2670.31534901605
-0.0225690868319845,2670.32534901605
-0.0452405848282725,2670.33534901605
-0.0613508008657425,2670.34534901605
-0.0714604920210271,2670.35534901605
-0.0746603303110862,2670.36534901605
-0.0720108254509799,2670.37534901605
-0.0617668347739451,2670.38534901605
-0.0449113018463841,2670.39534901605
-0.0223805667486121,2670.40534901605
0.00590362704408239,2670.41534901605
0.0354902425353363,2670.42534901605
0.0637610179636687,2670.43534901605
0.0865199532483998,2670.44534901605
0.103724018571944,2670.45534901605
0.113842653260123,2670.46534901605
0.116126096606999,2670.47534901605
0.114570399870138,2670.48534901605
0.107558039915723,2670.49534901605
0.0959310299729806,2670.50534901605
0.0801296839201865,2670.51534901605
0.0620600866693044,2670.52534901605
0.0422113118373306,2670.53534901605
0.0210318605127571,2670.54534901605
0.00155536992331939,2670.55534901605
-0.0179678685950893,2670.56534901605
-0.0380669386864659,2670.57534901605
-0.0590475616505359,2670.58534901605
-0.0794503026942843,2670.59534901605
-0.0990466287833312,2670.60534901605
-0.118078980455887,2670.61534901605
-0.133886423263028,2670.62534901605
-0.148107335943741,2670.63534901605
-0.161517923753356,2670.64534901605
-0.174367660815095,2670.65534901605
-0.186113082308299,2670.66534901605
-0.197332689340011,2670.67534901605
-0.208274122675345,2670.68534901605
-0.217071078449224,2670.69534901605
-0.22518213163738,2670.70534901605
-0.233740763653841,2670.71534901605
-0.243232464401667,2670.72534901605
-0.25314709094219,2670.73534901605
-0.263753059038948,2670.74534901605
-0.27478423405159,2670.75534901605
-0.283935443000435,2670.76534901605
-0.293037286774602,2670.77534901605
-0.301667865667881,2670.78534901605
-0.30943071136847,2670.79534901605
-0.311593978010912,2670.80534901605
-0.300948097746549,2670.81534901605
-0.266544347486011,2670.82534901605
-0.192935831171438,2670.83534901605
-0.0777249876967681,2670.84534901605
0.0688254575975769,2670.85534901605
0.224211253601476,2670.86534901605
0.365924020395256,2670.87534901605
0.477097879279728,2670.88534901605
0.551047263726938,2670.89534901605
0.593352660752024,2670.90534901605
0.608839532945406,2670.91534901605
0.605089589290148,2670.92534901605
0.58765315298213,2670.93534901605
0.562105558845864,2670.94534901605
0.529978995007455,2670.95534901605
0.491735731908626,2670.96534901605
0.451423497211043,2670.97534901605
0.407543792486046,2670.98534901605
0.361038080900555,2670.99534901605
0.31267602205742,2671.00534901605
0.264231674772363,2671.01534901605
0.218217985791474,2671.02534901605
0.17643118882947,2671.03534901605
0.139279988313487,2671.04534901605
0.106006588789188,2671.05534901605
0.0792969417248844,2671.06534901605
0.0554297747960918,2671.07534901605
0.0320709180132293,2671.08534901605
0.00779134958460246,2671.09534901605
-0.0166714025146979,2671.10534901605
-0.0402548578388562,2671.11534901605
-0.0622166363643301,2671.12534901605
-0.0776202132006542,2671.13534901605
-0.0863452681034717,2671.14534901605
-0.0874908290234739,2671.15534901605
-0.0812137962673266,2671.16534901605
-0.0664368768486503,2671.17534901605
-0.0438645383527171,2671.18534901605
-0.0156509237928755,2671.19534901605
0.0189291665374081,2671.20534901605
0.0549586391215106,2671.21534901605
0.0881575345298268,2671.22534901605
0.115850641710603,2671.23534901605
0.136661899525292,2671.24534901605
0.149524350707726,2671.25534901605
0.153626706351097,2671.26534901605
0.152728113727951,2671.27534901605
0.145771937828343,2671.28534901605
0.133213637391201,2671.29534901605
0.116139817301561,2671.30534901605
0.0956459030889058,2671.31534901605
0.0736515810223442,2671.32534901605
0.049743075369484,2671.33534901605
0.0273108517931136,2671.34534901605
0.00502079917667465,2671.35534901605
-0.0173370667608311,2671.36534901605
-0.0396577162778522,2671.37534901605
-0.060773168394532,2671.38534901605
-0.0801667132866138,2671.39534901605
-0.0983667615501621,2671.40534901605
-0.112496324530911,2671.41534901605
-0.125274201590677,2671.42534901605
-0.137616758044408,2671.43534901605
-0.149571391724179,2671.44534901605
-0.16045063280763,2671.45534901605
-0.170844983847737,2671.46534901605
-0.18063813559825,2671.47534901605
-0.187527918567672,2671.48534901605
-0.194243670672621,2671.49534901605
-0.201036317462684,2671.50534901605
-0.209507996009655,2671.51534901605
-0.217634883106168,2671.52534901605
-0.226239843921905,2671.53534901605
-0.236264225069908,2671.54534901605
-0.244143568603215,2671.55534901605
-0.252098406786525,2671.56534901605
-0.260543951021339,2671.57534901605
-0.26807540260624,2671.58534901605
-0.269646942617349,2671.59534901605
-0.25729695344899,2671.60534901605
-0.218403966911848,2671.61534901605
-0.139240793010663,2671.62534901605
-0.0189650215344084,2671.63534901605
0.128530043164886,2671.64534901605
0.280259073444265,2671.65534901605
0.414488951573223,2671.66534901605
0.518422129537438,2671.67534901605
0.587198854889058,2671.68534901605
0.627202692102987,2671.69534901605
0.642999730750595,2671.70534901605
0.641308841651805,2671.71534901605
0.626973266725634,2671.72534901605
0.603915336091919,2671.73534901605
0.574500680263197,2671.74534901605
0.539999527676571,2671.75534901605
0.503293508913615,2671.76534901605
0.463647585192049,2671.77534901605
0.421680738138413,2671.78534901605
0.378172327465799,2671.79534901605
0.335849977268298,2671.80534901605
0.296162996396363,2671.81534901605
0.260080656449835,2671.82534901605
0.230846160091677,2671.83534901605
0.206464325752619,2671.84534901605
0.185865166239952,2671.85534901605
0.166645653352479,2671.86534901605
0.148281005248025,2671.87534901605
0.128545013297131,2671.88534901605
0.106608777630808,2671.89534901605
0.0864489122941906,2671.90534901605
0.0664269155402842,2671.91534901605
0.0477734644163881,2671.92534901605
0.0330023367334954,2671.93534901605
0.0253453817780901,2671.94534901605
0.0250952998668111,2671.95534901605
0.032542237581405,2671.96534901605
0.049859777637977,2671.97534901605
0.0730264728522652,2671.98534901605
0.0993856576494593,2671.99534901605
0.126106541676132,2672.00534901605
0.151418594837865,2672.01534901605
0.173178723179658,2672.02534901605
0.190387623447729,2672.03534901605
0.201657625435467,2672.04534901605
0.205788991962914,2672.05534901605
0.206141066019616,2672.06534901605
0.20104847611557,2672.07534901605
0.190823954349128,2672.08534901605
0.175449718530997,2672.09534901605
0.15709033084842,2672.10534901605
0.136754505081992,2672.11534901605
0.114917873694597,2672.12534901605
0.0951564417119437,2672.13534901605
0.0749258265945079,2672.14534901605
0.0538413126655511,2672.15534901605
0.0316928341804176,2672.16534901605
0.0103524387058372,2672.17534901605
-0.00959103349555073,2672.18534901605
-0.0285088636746812,2672.19534901605
-0.0434317003102458,2672.20534901605
-0.0567387953583376,2672.21534901605
-0.0690659730736017,2672.22534901605
-0.0814469941160548,2672.23534901605
-0.0929057441215584,2672.24534901605
-0.103700028468203,2672.25534901605
-0.114416510303622,2672.26534901605
-0.122620998668765,2672.27534901605
-0.130387924648229,2672.28534901605
-0.138499766554051,2672.29534901605
-0.147629215806608,2672.30534901605
-0.156236106756884,2672.31534901605
-0.165920975035589,2672.32534901605
-0.176729874241643,2672.33534901605
-0.18586007710496,2672.34534901605
-0.195744878497439,2672.35534901605
-0.206314639109027,2672.36534901605
-0.218164846534183,2672.37534901605
-0.229186393691028,2672.38534901605
-0.237100977836271,2672.39534901605
-0.235332804721961,2672.40534901605
-0.20979134105971,2672.41534901605
-0.149683709309947,2672.42534901605
-0.0469502081710961,2672.43534901605
0.0900444062067429,2672.44534901605
0.242811010921997,2672.45534901605
0.387929031479014,2672.46534901605
0.507208465062347,2672.47534901605
0.595087252895244,2672.48534901605
0.650031403743161,2672.49534901605
0.676799910966181,2672.50534901605
0.681891088477094,2672.51534901605
0.672284141269909,2672.52534901605
0.653590750929542,2672.53534901605
0.627451864113395,2672.54534901605
0.598417985745205,2672.55534901605
0.564993500318347,2672.56534901605
0.527129341908944,2672.57534901605
0.485854258986315,2672.58534901605
0.443625869285898,2672.59534901605
0.402679740882788,2672.60534901605
0.364375706189914,2672.61534901605
0.331829556423674,2672.62534901605
0.304017591653861,2672.63534901605
0.279788276344375,2672.64534901605
0.25811537201256,2672.65534901605
0.23860347836048,2672.66534901605
0.220062930682373,2672.67534901605
0.200980063203064,2672.68534901605
0.182483910166445,2672.69534901605
0.162621163548884,2672.70534901605
0.141084640977236,2672.71534901605
0.119402374854186,2672.72534901605
0.100763929874348,2672.73534901605
0.0872160517074683,2672.74534901605
0.0800676664538706,2672.75534901605
0.0828367069854353,2672.76534901605
0.0938380202286306,2672.77534901605
0.110636038194521,2672.78534901605
0.131600363724237,2672.79534901605
0.155895573780437,2672.80534901605
0.179940951624517,2672.81534901605
0.201619755478567,2672.82534901605
0.220809769394901,2672.83534901605
0.234483656699761,2672.84534901605
0.241672514432822,2672.85534901605
0.241755027172579,2672.86534901605
0.236282925274733,2672.87534901605
0.225508257091138,2672.88534901605
0.211131096026018,2672.89534901605
0.195866942485153,2672.90534901605
0.179417295692168,2672.91534901605
0.161182465709576,2672.92534901605
0.141089742687532,2672.93534901605
0.120303833131054,2672.94534901605
0.0983466882892929,2672.95534901605
0.076231335992689,2672.96534901605
0.0566668441401742,2672.97534901605
0.038505376068634,2672.98534901605
0.0203362940581331,2672.99534901605
0.00270248591111287,2673.00534901605
-0.0147354842712859,2673.01534901605
-0.0313537326147668,2673.02534901605
-0.0460786631399725,2673.03534901605
-0.0599981019644194,2673.04534901605
-0.0732577085568986,2673.05534901605
-0.0837746681481714,2673.06534901605
-0.0925225748092256,2673.07534901605
-0.10071834870729,2673.08534901605
-0.109306928102728,2673.09534901605
-0.118215429408739,2673.10534901605
-0.127312337678565,2673.11534901605
-0.136573630888168,2673.12534901605
-0.144302129599233,2673.13534901605
-0.152216834663212,2673.14534901605
-0.161199673693923,2673.15534901605
-0.172408076854728,2673.16534901605
-0.184034497457979,2673.17534901605
-0.196345963920667,2673.18534901605
-0.209218144039484,2673.19534901605
-0.218766810505667,2673.20534901605
-0.225982172596806,2673.21534901605
-0.226508952118815,2673.22534901605
-0.213460902722708,2673.23534901605
-0.172818140425661,2673.24534901605
-0.0934040718132035,2673.25534901605
0.0255906412188925,2673.26534901605
0.172844456796493,2673.27534901605
0.323668856200639,2673.28534901605
0.455507005452419,2673.29534901605
0.554717871117633,2673.30534901605
0.619048734557151,2673.31534901605
0.652416161410318,2673.32534901605
0.660752337378201,2673.33534901605
0.655370102498965,2673.34534901605
0.638635994918531,2673.35534901605
0.613607895440096,2673.36534901605
0.581149939247174,2673.37534901605
0.543904773249887,2673.38534901605
0.502585506718825,2673.39534901605
0.457730970048689,2673.40534901605
0.41373033626895,2673.41534901605
0.370271258126008,2673.42534901605
0.329184845996899,2673.43534901605
0.290345464629338,2673.44534901605
0.256692130570946,2673.45534901605
0.226577440327794,2673.46534901605
0.200158223674987,2673.47534901605
0.179155346705469,2673.48534901605
0.159901310277122,2673.49534901605
0.139806347187566,2673.50534901605
0.117797249690416,2673.51534901605
0.0946130281528336,2673.52534901605
0.0705781122581001,2673.53534901605
0.0479584833413639,2673.54534901605
0.0322760188446466,2673.55534901605
0.0230779990794975,2673.56534901605
0.0215474557726379,2673.57534901605
0.0281358515577436,2673.58534901605
0.043322557774592,2673.59534901605
0.065972235819769,2673.60534901605
0.0933691684610759,2673.61534901605
0.125404936270879,2673.62534901605
0.157906682681346,2673.63534901605
0.18671525976747,2673.64534901605
0.208801582315346,2673.65534901605
0.224129570829365,2673.66534901605
0.231133026300081,2673.67534901605
0.231143001026499,2673.68534901605
0.226700399230927,2673.69534901605
0.218115130992188,2673.70534901605
0.205145626955666,2673.71534901605
0.188048381464756,2673.72534901605
0.168462804929281,2673.73534901605
0.146925579504501,2673.74534901605
0.123476399857214,2673.75534901605
0.101765386226548,2673.76534901605
0.0804628107855239,2673.77534901605
0.0586879448126334,2673.78534901605
0.0364909638582736,2673.79534901605
0.0152359449284138,2673.80534901605
-0.00491338753743573,2673.81534901605
-0.0245935134264387,2673.82534901605
-0.0400998514597511,2673.83534901605
-0.0538772640424567,2673.84534901605
-0.0666612347383577,2673.85534901605
-0.0792201561112878,2673.86534901605
-0.0903323604293288,2673.87534901605
-0.100436936921057,2673.88534901605
-0.109748922590292,2673.89534901605
-0.115703886999194,2673.90534901605
-0.121425403171396,2673.91534901605
-0.127147075566248,2673.92534901605
-0.133738165910352,2673.93534901605
-0.140676204389479,2673.94534901605
-0.148506476631333,2673.95534901605
-0.157644890895147,2673.96534901605
-0.165834665437999,2673.97534901605
-0.174630468968337,2673.98534901605
-0.184200993026682,2673.99534901605
-0.195203793504509,2674.00534901605
-0.204612448502668,2674.01534901605
-0.209033238256392,2674.02534901605
-0.199982959161419,2674.03534901605
-0.166355977911932,2674.04534901605
-0.0960276143099881,2674.05534901605
0.0167184015698668,2674.06534901605
0.157209203011238,2674.07534901605
0.30381602239374,2674.08534901605
0.434276711994473,2674.09534901605
0.535713476697598,2674.10534901605
0.604245404054481,2674.11534901605
0.64225744884678,2674.12534901605
0.658838929174693,2674.13534901605
0.657919392744929,2674.14534901605
0.644761464630463,2674.15534901605
0.62206600317317,2674.16534901605
0.592745217373295,2674.17534901605
0.557985157933109,2674.18534901605
0.518267404692225,2674.19534901605
0.477104629675009,2674.20534901605
0.433819984643371,2674.21534901605
0.390525228496049,2674.22534901605
0.347073373634877,2674.23534901605
0.307552171197512,2674.24534901605
0.27218456123924,2674.25534901605
0.241384227124429,2674.26534901605
0.217153529533283,2674.27534901605
0.197233659395807,2674.28534901605
0.179077972829664,2674.29534901605
0.159468338458812,2674.30534901605
0.138468400533396,2674.31534901605
0.115442372915628,2674.32534901605
0.0915078845380297,2674.33534901605
0.0718212326782585,2674.34534901605
0.0566171052971921,2674.35534901605
0.0479617461862353,2674.36534901605
0.0465963542471473,2674.37534901605
0.0542971640077326,2674.38534901605
0.0698261554455823,2674.39534901605
0.0920106169525174,2674.40534901605
0.120999937255152,2674.41534901605
0.15268285552301,2674.42534901605
0.182837282775386,2674.43534901605
0.208567794398148,2674.44534901605
0.228643828931326,2674.45534901605
0.241697750793995,2674.46534901605
0.247535622809004,2674.47534901605
0.248888758239746,2674.48534901605
0.244168032945985,2674.49534901605
0.233661872274772,2674.50534901605
0.218060932286144,2674.51534901605
0.199231675802315,2674.52534901605
0.178321908774052,2674.53534901605
0.155767965605811,2674.54534901605
0.134853170300517,2674.55534901605
0.113375706903697,2674.56534901605
0.0915909906993415,2674.57534901605
0.0690864819400851,2674.58534901605
0.0469324129727484,2674.59534901605
0.0257401766948252,2674.60534901605
0.00542002951616356,2674.61534901605
-0.0108652838311342,2674.62534901605
-0.0253960650364665,2674.63534901605
-0.0393658911441638,2674.64534901605
-0.0529198174284504,2674.65534901605
-0.0656936257681972,2674.66534901605
-0.0775855959507172,2674.67534901605
-0.0890309887927936,2674.68534901605
-0.0967124688084582,2674.69534901605
-0.103256182994147,2674.70534901605
-0.109762297269934,2674.71534901605
-0.116855729476411,2674.72534901605
-0.123901393818177,2674.73534901605
-0.131935028614893,2674.74534901605
-0.140905975490567,2674.75534901605
-0.148096010226843,2674.76534901605
-0.15632139968319,2674.77534901605
-0.166624929748324,2674.78534901605
-0.179219044747833,2674.79534901605
-0.192466252738244,2674.80534901605
-0.206122108271556,2674.81534901605
-0.219117762592175,2674.82534901605
-0.226036092264143,2674.83534901605
-0.222312008898143,2674.84534901605
-0.19758391412609,2674.85534901605
-0.138821589117404,2674.86534901605
-0.0374776207750303,2674.87534901605
0.0986810653268682,2674.88534901605
0.249878714148118,2674.89534901605
0.395074974231512,2674.90534901605
0.515134757904927,2674.91534901605
0.602228872381381,2674.92534901605
0.655964912262711,2674.93534901605
0.682816712608403,2674.94534901605
0.689523720508917,2674.95534901605
0.681822658677664,2674.96534901605
0.666169624169856,2674.97534901605
0.64386197895019,2674.98534901605
0.615380231816899,2674.99534901605
0.581584610075397,2675.00534901605
0.543907025453898,2675.01534901605
0.503721511319275,2675.02534901605
0.463222969287597,2675.03534901605
0.424077094393911,2675.04534901605
0.38730012837749,2675.05534901605
0.356534133337501,2675.06534901605
0.330355662242754,2675.07534901605
0.30821271491323,2675.08534901605
0.288370260328224,2675.09534901605
0.271069484913014,2675.10534901605
0.254730939445212,2675.11534901605
0.237407534411233,2675.12534901605
0.220527687712822,2675.13534901605
0.20133737589715,2675.14534901605
0.180827945553591,2675.15534901605
0.159029542698264,2675.16534901605
0.139563433090247,2675.17534901605
0.124708035045931,2675.18534901605
0.115964202693704,2675.19534901605
0.116792280562086,2675.20534901605
0.12549188057118,2675.21534901605
0.140014256528237,2675.22534901605
0.158401900834338,2675.23534901605
0.179381028377773,2675.24534901605
0.199958244271031,2675.25534901605
0.218869821481137,2675.26534901605
0.236710589149308,2675.27534901605
0.250828398571838,2675.28534901605
0.258853405638398,2675.29534901605
0.260617663283256,2675.30534901605
0.256340393507325,2675.31534901605
0.24653050444088,2675.32534901605
0.232007263109801,2675.33534901605
0.216481949400071,2675.34534901605
0.198571758148498,2675.35534901605
0.178574653055731,2675.36534901605
0.156229144730406,2675.37534901605
0.133557325674445,2675.38534901605
0.110505748844162,2675.39534901605
0.0873196781410575,2675.40534901605
0.0671674977644063,2675.41534901605
0.0468854190976666,2675.42534901605
0.026660315036143,2675.43534901605
0.00599899462087554,2675.44534901605
-0.013706095417537,2675.45534901605
-0.0329413673651228,2675.46534901605
-0.0509818863166219,2675.47534901605
-0.0651851116218666,2675.48534901605
-0.0779587043576129,2675.49534901605
-0.0899643884025064,2675.50534901605
-0.101986128304971,2675.51534901605
-0.113646214987913,2675.52534901605
-0.12475405965748,2675.53534901605
-0.135566278245594,2675.54534901605
-0.143449337598855,2675.55534901605
-0.151116089577878,2675.56534901605
-0.159035463987899,2675.57534901605
-0.168245661908366,2675.58534901605
-0.177824753023127,2675.59534901605
-0.187765323812132,2675.60534901605
-0.198858907810835,2675.61534901605
-0.207404984741445,2675.62534901605
-0.216003819310097,2675.63534901605
-0.225340801846659,2675.64534901605
-0.236600751360154,2675.65534901605
-0.247905127429736,2675.66534901605
-0.257794592253596,2675.67534901605
-0.263984777973084,2675.68534901605
-0.256954494796908,2675.69534901605
-0.227016415767563,2675.70534901605
-0.162025222094391,2675.71534901605
-0.0548442121071971,2675.72534901605
0.086803047200507,2675.73534901605
0.241272509673916,2675.74534901605
0.384815703385479,2675.75534901605
0.502860397594613,2675.76534901605
0.586606237768356,2675.77534901605
0.637315558653315,2675.78534901605
0.660084986146311,2675.79534901605
0.662680836312217,2675.80534901605
0.651525521121964,2675.81534901605
0.630777488211981,2675.82534901605
0.604980229102894,2675.83534901605
0.573943427150788,2675.84534901605
0.537842914464892,2675.85534901605
0.49621595557775,2675.86534901605
0.450981613334882,2675.87534901605
0.404361578454382,2675.88534901605
0.358042673261439,2675.89534901605
0.316611359740585,2675.90534901605
0.279898176603456,2675.91534901605
0.248167775441232,2675.92534901605
0.219905695861523,2675.93534901605
0.196460529706439,2675.94534901605
0.175544876891333,2675.95534901605
0.155239032329899,2675.96534901605
0.137517732037794,2675.97534901605
0.118361794191966,2675.98534901605
0.0969960508396753,2675.99534901605
0.0738065419050921,2676.00534901605
0.0512131285610852,2676.01534901605
0.0318916321578361,2676.02534901605
0.0190300219148975,2676.03534901605
0.0141699488845159,2676.04534901605
0.0179400583144519,2676.05534901605
0.0317907161925137,2676.06534901605
0.0533559519775777,2676.07534901605
0.0787813574330462,2676.08534901605
0.105332147042557,2676.09534901605
0.131647441856453,2676.10534901605
0.155583829566332,2676.11534901605
0.174918813170514,2676.12534901605
0.190395824138112,2676.13534901605
0.200209274163635,2676.14534901605
0.202603095346999,2676.15534901605
0.197429594065363,2676.16534901605
0.1872135472302,2676.17534901605
0.172277093755562,2676.18534901605
0.15334357967067,2676.19534901605
0.134929596027701,2676.20534901605
0.115313170039542,2676.21534901605
0.0945349989760877,2676.22534901605
0.0719262473078261,2676.23534901605
0.0490274251792501,2676.24534901605
0.0263156310604364,2676.25534901605
0.0038009887609084,2676.26534901605
-0.0153031317443613,2676.27534901605
-0.0333445334440615,2676.28534901605
-0.0513867656131729,2676.29534901605
-0.0696051324651519,2676.30534901605
-0.0871319867171403,2676.31534901605
-0.103448981877157,2676.32534901605
-0.119306511973509,2676.33534901605
-0.131385980112185,2676.34534901605
-0.142065559635149,2676.35534901605
-0.151971836826942,2676.36534901605
-0.162114607749686,2676.37534901605
-0.172018524677728,2676.38534901605
-0.181946079883028,2676.39534901605
-0.191846020210418,2676.40534901605
-0.19924126120922,2676.41534901605
-0.206355946279805,2676.42534901605
-0.214064427978341,2676.43534901605
-0.222248449009199,2676.44534901605
-0.23032508860309,2676.45534901605
-0.239446158964981,2676.46534901605
-0.249157282596895,2676.47534901605
-0.257585595216465,2676.48534901605
-0.266658431285858,2676.49534901605
-0.277125901463955,2676.50534901605
-0.289513636981176,2676.51534901605
-0.302364314599673,2676.52534901605
-0.315054891980198,2676.53534901605
-0.325391730619873,2676.54534901605
-0.327467523555719,2676.55534901605
-0.31601323515962,2676.56534901605
-0.279577188587783,2676.57534901605
-0.205231723084906,2676.58534901605
-0.086594831129163,2676.59534901605
0.0644410621965898,2676.60534901605
0.224372210042264,2676.61534901605
0.371301905293395,2676.62534901605
0.485929870808652,2676.63534901605
0.562761025032204,2676.64534901605
0.603694130314304,2676.65534901605
0.617996427239206,2676.66534901605
0.613120152661703,2676.67534901605
0.595708367138098,2676.68534901605
0.572035872950257,2676.69534901605
0.542410887528295,2676.70534901605
0.507124142870908,2676.71534901605
0.465452658447662,2676.72534901605
