PPG,time
972.347318644404,2770.64460913354
1912.62691618484,2770.65460913354
1670.00031712732,2770.66460913354
1769.25325786882,2770.67460913354
1661.49989173284,2770.68460913354
1684.19843315935,2770.69460913354
1637.50178130355,2770.70460913354
1656.11915127947,2770.71460913354
1648.29851227501,2770.72460913354
1666.45547630347,2770.73460913354
1664.00160110534,2770.74460913354
1663.69066302915,2770.75460913354
1664.59349122195,2770.76460913354
1662.80336893943,2770.77460913354
1681.41173846482,2770.78460913354
1696.21922397376,2770.79460913354
1692.45683965306,2770.80460913354
1695.81135676836,2770.81460913354
1688.12888653363,2770.82460913354
1666.26349588964,2770.83460913354
1650.69288300428,2770.84460913354
1649.52912693265,2770.85460913354
1644.12949368518,2770.86460913354
1633.9446661692,2770.87460913354
1634.86742923009,2770.88460913354
1638.65762165107,2770.89460913354
1666.81647786275,2770.90460913354
1708.44040139683,2770.91460913354
1753.36138857145,2770.92460913354
1785.81956839819,2770.93460913354
1813.41121886288,2770.94460913354
1837.29526364345,2770.95460913354
1873.39659598262,2770.96460913354
1907.36425014411,2770.97460913354
1949.69998666278,2770.98460913354
1959.1398006898,2770.99460913354
1959.39012493544,2771.00460913354
1946.08797100269,2771.01460913354
1933.10299811554,2771.02460913354
1924.09471940605,2771.03460913354
1926.14965942771,2771.04460913354
1934.00726048141,2771.05460913354
1953.96686350587,2771.06460913354
1995.39744715129,2771.07460913354
2046.85616974072,2771.08460913354
2119.67668518529,2771.09460913354
2182.49388674237,2771.10460913354
2234.77680154185,2771.11460913354
2275.63190696453,2771.12460913354
2334.00714128178,2771.13460913354
2380.32366986533,2771.14460913354
2436.9441593495,2771.15460913354
2496.15525038866,2771.16460913354
2555.98619780813,2771.17460913354
2609.95909983377,2771.18460913354
2652.81973953717,2771.19460913354
2697.60620771799,2771.20460913354
2718.2225326936,2771.21460913354
2726.37078672338,2771.22460913354
2726.88061503447,2771.23460913354
2721.69846833941,2771.24460913354
2694.63964723406,2771.25460913354
2660.20322140384,2771.26460913354
2602.33744653691,2771.27460913354
2531.67480684496,2771.28460913354
2467.42055296867,2771.29460913354
2415.86505177062,2771.30460913354
2370.30977539971,2771.31460913354
2355.22581631185,2771.32460913354
2357.62060967391,2771.33460913354
2356.61733140528,2771.34460913354
2356.85951722182,2771.35460913354
2357.46768301499,2771.36460913354
2352.85417470643,2771.37460913354
2337.44693260931,2771.38460913354
2322.36528209464,2771.39460913354
2299.47584101581,2771.40460913354
2286.55066865385,2771.41460913354
2270.64881081023,2771.42460913354
2268.94434352485,2771.43460913354
2268.60314282521,2771.44460913354
2292.7512743626,2771.45460913354
2299.4238981738,2771.46460913354
2308.81739874669,2771.47460913354
2330.69893172908,2771.48460913354
2372.34644840964,2771.49460913354
2417.20228941279,2771.50460913354
2461.04927373169,2771.51460913354
2494.0349662222,2771.52460913354
2506.74154350648,2771.53460913354
2515.07900217248,2771.54460913354
2530.43010972198,2771.55460913354
2555.27074272803,2771.56460913354
2580.58543950586,2771.57460913354
2599.9234526806,2771.58460913354
2608.62971739383,2771.59460913354
2619.42262621562,2771.60460913354
2628.76388784443,2771.61460913354
2639.62475792543,2771.62460913354
2644.53859867969,2771.63460913354
2637.58791670819,2771.64460913354
2638.58403328631,2771.65460913354
2637.36273561411,2771.66460913354
2639.18375009607,2771.67460913354
2621.02640749111,2771.68460913354
2601.74872635759,2771.69460913354
2577.01164839747,2771.70460913354
2557.00653679583,2771.71460913354
2548.44099715819,2771.72460913354
2537.55147065477,2771.73460913354
2528.49654173847,2771.74460913354
2518.7720839726,2771.75460913354
2523.95430118882,2771.76460913354
2540.14179467109,2771.77460913354
2564.86456774629,2771.78460913354
2614.48570626328,2771.79460913354
2656.14597634651,2771.80460913354
2673.59749770178,2771.81460913354
2678.5590708269,2771.82460913354
2661.05189548305,2771.83460913354
2647.38303634249,2771.84460913354
2632.98226062218,2771.85460913354
2604.92230843359,2771.86460913354
2579.74528950999,2771.87460913354
2555.5394103222,2771.88460913354
2542.16125002477,2771.89460913354
2533.70389388493,2771.90460913354
2533.88088674762,2771.91460913354
2534.20721128245,2771.92460913354
2533.37864437016,2771.93460913354
2550.24513133068,2771.94460913354
2583.17724006107,2771.95460913354
2593.69635768872,2771.96460913354
2592.805990785,2771.97460913354
2592.92672150836,2771.98460913354
2581.8485105632,2771.99460913354
2553.56666174619,2772.00460913354
2548.11977095098,2772.01460913354
2549.00951879614,2772.02460913354
2552.81724567814,2772.03460913354
2582.41873090375,2772.04460913354
2594.44061590984,2772.05460913354
2591.94178153842,2772.06460913354
2594.50224377503,2772.07460913354
2587.73144561907,2772.08460913354
2578.61360674833,2772.09460913354
2575.2334824417,2772.10460913354
2560.73041228249,2772.11460913354
2571.34783518801,2772.12460913354
2574.35535733874,2772.13460913354
2559.6428271546,2772.14460913354
2538.13720495639,2772.15460913354
2506.1632262229,2772.16460913354
2491.98758545384,2772.17460913354
2494.03598293864,2772.18460913354
2518.94423375547,2772.19460913354
2520.08238571131,2772.20460913354
2542.64693801124,2772.21460913354
2567.91793710368,2772.22460913354
2579.84569038894,2772.23460913354
2578.68745524523,2772.24460913354
2566.57687647862,2772.25460913354
2563.48759703069,2772.26460913354
2575.40600328093,2772.27460913354
2584.68281311256,2772.28460913354
2605.05560002409,2772.29460913354
2637.35206814203,2772.30460913354
2693.92044240466,2772.31460913354
2750.77945240216,2772.32460913354
2834.43592111991,2772.33460913354
2893.40996832402,2772.34460913354
2954.28126755153,2772.35460913354
2987.0622530592,2772.36460913354
3018.24837245959,2772.37460913354
3037.13949775577,2772.38460913354
3039.60994577144,2772.39460913354
3033.84680612656,2772.40460913354
3034.10380525814,2772.41460913354
3041.8583180252,2772.42460913354
3052.61461615899,2772.43460913354
3046.40937282818,2772.44460913354
3018.53773606911,2772.45460913354
2988.58927276041,2772.46460913354
2959.41490003672,2772.47460913354
2917.48681869429,2772.48460913354
2870.10401286877,2772.49460913354
2813.82602677736,2772.50460913354
2755.33353448797,2772.51460913354
2717.41535804319,2772.52460913354
2682.23986990675,2772.53460913354
2682.33377865975,2772.54460913354
2681.81342375427,2772.55460913354
2681.63113168054,2772.56460913354
2671.15399811255,2772.57460913354
2657.06417215876,2772.58460913354
2619.34593746823,2772.59460913354
2590.33612481284,2772.60460913354
2549.37874576473,2772.61460913354
2514.56405708912,2772.62460913354
2505.5294071181,2772.63460913354
2499.61536880272,2772.64460913354
2489.63203216806,2772.65460913354
2485.65338817629,2772.66460913354
2473.04409592386,2772.67460913354
2476.18119875378,2772.68460913354
2450.64091317967,2772.69460913354
2444.61770719065,2772.70460913354
2435.17836655391,2772.71460913354
2412.83460251674,2772.72460913354
2388.82005289532,2772.73460913354
2382.59253362982,2772.74460913354
2356.99024301584,2772.75460913354
2362.43599666316,2772.76460913354
2360.58548917295,2772.77460913354
2355.82147693701,2772.78460913354
2357.55569897056,2772.79460913354
2356.57216952951,2772.80460913354
2346.18389906763,2772.81460913354
2352.38427617068,2772.82460913354
2363.68233409575,2772.83460913354
2372.12032507013,2772.84460913354
2384.67707164103,2772.85460913354
2399.08797053668,2772.86460913354
2404.50054430387,2772.87460913354
2379.73027392613,2772.88460913354
2338.50935731052,2772.89460913354
2310.39742813786,2772.90460913354
2295.43603734432,2772.91460913354
2303.5955389412,2772.92460913354
2314.78878136444,2772.93460913354
2307.40484104294,2772.94460913354
2297.11115457637,2772.95460913354
2271.91587099741,2772.96460913354
2228.32534805173,2772.97460913354
2208.89416147844,2772.98460913354
2198.16591488387,2772.99460913354
2217.82770660866,2773.00460913354
2231.64610096916,2773.01460913354
2239.26671371318,2773.02460913354
2238.73674572266,2773.03460913354
2239.63626520879,2773.04460913354
2234.87164143448,2773.05460913354
2219.49265674184,2773.06460913354
2204.4078635075,2773.07460913354
2181.79676562496,2773.08460913354
2176.50856866802,2773.09460913354
2146.5757432722,2773.10460913354
2139.31720046659,2773.11460913354
2165.69605593084,2773.12460913354
2164.71341413502,2773.13460913354
2194.65507701376,2773.14460913354
2236.85714559131,2773.15460913354
2237.97298627259,2773.16460913354
2244.39532751919,2773.17460913354
2255.08780522052,2773.18460913354
2253.5824164098,2773.19460913354
2254.27814058888,2773.20460913354
2254.1364299418,2773.21460913354
2238.72535205388,2773.22460913354
2216.79098886186,2773.23460913354
2212.07724377682,2773.24460913354
2199.58448896746,2773.25460913354
2177.40043368582,2773.26460913354
2170.28008716315,2773.27460913354
2151.42792693605,2773.28460913354
2152.53858931773,2773.29460913354
2145.30065401513,2773.30460913354
2159.12284027258,2773.31460913354
2172.15385914944,2773.32460913354
2193.03658711257,2773.33460913354
2195.02012070978,2773.34460913354
2207.71026767459,2773.35460913354
2197.79658081742,2773.36460913354
2195.29504746026,2773.37460913354
2190.03584222026,2773.38460913354
2179.09627206581,2773.39460913354
2179.88205989047,2773.40460913354
2169.8388577976,2773.41460913354
2135.28827885114,2773.42460913354
2119.09589004403,2773.43460913354
2110.04779467883,2773.44460913354
2109.65413462536,2773.45460913354
2124.3321549852,2773.46460913354
2102.69845490238,2773.47460913354
2079.19878268111,2773.48460913354
2063.53722193252,2773.49460913354
2074.80888297155,2773.50460913354
2072.68155199968,2773.51460913354
2060.08253543505,2773.52460913354
2062.92176837229,2773.53460913354
2076.01184527293,2773.54460913354
2120.33422810722,2773.55460913354
2162.65020038137,2773.56460913354
2198.20938330644,2773.57460913354
2223.64023835257,2773.58460913354
2224.80361099944,2773.59460913354
2239.33956217488,2773.60460913354
2290.24841496098,2773.61460913354
2342.92441729603,2773.62460913354
2395.70589245252,2773.63460913354
2484.51405546084,2773.64460913354
2561.1878520769,2773.65460913354
2641.32059822851,2773.66460913354
2715.84092104098,2773.67460913354
2784.29108214826,2773.68460913354
2831.262222231,2773.69460913354
2869.82118192415,2773.70460913354
2876.55813566107,2773.71460913354
2867.82943653168,2773.72460913354
2860.12415585902,2773.73460913354
2838.22844903863,2773.74460913354
2794.71022647203,2773.75460913354
2772.54999410214,2773.76460913354
2766.68741592834,2773.77460913354
2745.09014801423,2773.78460913354
2708.68664315815,2773.79460913354
2662.81211779918,2773.80460913354
2613.41018912914,2773.81460913354
2562.30301388091,2773.82460913354
2535.04898857093,2773.83460913354
2522.242452868,2773.84460913354
2507.91807703682,2773.85460913354
2499.41508243689,2773.86460913354
2488.86947202438,2773.87460913354
2478.46558016976,2773.88460913354
2473.36654465352,2773.89460913354
2476.5973028837,2773.90460913354
2458.05457169776,2773.91460913354
2419.748171213,2773.92460913354
2391.82658812947,2773.93460913354
2373.25732361873,2773.94460913354
2372.10509408223,2773.95460913354
2359.59430367422,2773.96460913354
2356.29867323276,2773.97460913354
2357.42509527311,2773.98460913354
2356.63820931358,2773.99460913354
2357.42559995477,2774.00460913354
2356.51650871388,2774.01460913354
2357.69890076034,2774.02460913354
2344.80057293776,2774.03460913354
2331.46367253919,2774.04460913354
2298.50282469395,2774.05460913354
2277.65972476764,2774.06460913354
2252.04362096732,2774.07460913354
2233.07959183136,2774.08460913354
2220.23093627515,2774.09460913354
2192.83699201571,2774.10460913354
2157.8875902284,2774.11460913354
2093.07933168868,2774.12460913354
2058.36364663804,2774.13460913354
2027.8471616826,2774.14460913354
2004.22146337331,2774.15460913354
2003.49007603026,2774.16460913354
1998.69213171816,2774.17460913354
1997.9161289455,2774.18460913354
2010.00373675805,2774.19460913354
2017.74166311762,2774.20460913354
2031.0591624356,2774.21460913354
2032.72906660023,2774.22460913354
2058.04744081044,2774.23460913354
2055.26807648889,2774.24460913354
2020.24472156969,2774.25460913354
1974.88978214,2774.26460913354
1935.24609632427,2774.27460913354
1884.62252182694,2774.28460913354
1849.06880287934,2774.29460913354
1801.41936342485,2774.30460913354
1780.42785359936,2774.31460913354
1781.86258132077,2774.32460913354
1774.20032311074,2774.33460913354
1783.02171374309,2774.34460913354
1804.84639009443,2774.35460913354
1830.47673849874,2774.36460913354
1841.47902071237,2774.37460913354
1844.55772836561,2774.38460913354
1859.864974334,2774.39460913354
1844.42764770445,2774.40460913354
1824.52049457883,2774.41460913354
1815.24055505035,2774.42460913354
1821.94202923168,2774.43460913354
1831.29371172147,2774.44460913354
1846.96900309247,2774.45460913354
1868.44273008301,2774.46460913354
1875.89085659066,2774.47460913354
1886.33641484191,2774.48460913354
1884.02720639424,2774.49460913354
1886.03993608188,2774.50460913354
1883.70102032721,2774.51460913354
1887.44829120462,2774.52460913354
1874.66833825484,2774.53460913354
1842.04439138703,2774.54460913354
1840.44009251961,2774.55460913354
1857.83313997669,2774.56460913354
1885.07358313941,2774.57460913354
1883.79677477502,2774.58460913354
1886.52326138787,2774.59460913354
1856.24110318059,2774.60460913354
1810.61295205038,2774.61460913354
1769.39657569819,2774.62460913354
1760.3894027211,2774.63460913354
1766.24979394309,2774.64460913354
1796.52551799544,2774.65460913354
1838.23515466074,2774.66460913354
1865.50817398496,2774.67460913354
1872.98187536201,2774.68460913354
1877.40246142521,2774.69460913354
1869.95859101122,2774.70460913354
1887.05432318661,2774.71460913354
1906.19594716818,2774.72460913354
1919.94188416982,2774.73460913354
1935.11653522635,2774.74460913354
1949.29320489595,2774.75460913354
1964.01769006939,2774.76460913354
1980.03836053407,2774.77460913354
1989.70679107371,2774.78460913354
1988.6240216671,2774.79460913354
1976.94495531806,2774.80460913354
1960.67326336499,2774.81460913354
1946.56280474231,2774.82460913354
1931.54866455972,2774.83460913354
1929.5546577375,2774.84460913354
1932.88451064732,2774.85460913354
1978.42080576093,2774.86460913354
2038.66278759649,2774.87460913354
2109.96668460293,2774.88460913354
2183.32703446611,2774.89460913354
2259.05115089262,2774.90460913354
2302.11125817913,2774.91460913354
2334.46680950906,2774.92460913354
2380.90452326246,2774.93460913354
2436.56503859836,2774.94460913354
2496.4362302305,2774.95460913354
2555.69451091238,2774.96460913354
2598.4324794879,2774.97460913354
2633.09057953131,2774.98460913354
2640.26986074973,2774.99460913354
2632.72390339736,2775.00460913354
2621.70632492326,2775.01460913354
2624.79445365949,2775.02460913354
2617.45069665612,2775.03460913354
2607.42893812032,2775.04460913354
2607.90072417675,2775.05460913354
2597.24021121991,2775.06460913354
2583.04449495979,2775.07460913354
2545.58655707981,2775.08460913354
2516.79137721608,2775.09460913354
2499.29132013744,2775.10460913354
2475.63270172188,2775.11460913354
2480.10671406113,2775.12460913354
2478.65228916073,2775.13460913354
2473.91333663934,2775.14460913354
2475.09340620542,2775.15460913354
2475.63714454753,2775.16460913354
2470.2095472844,2775.17460913354
2459.94521429686,2775.18460913354
2461.07630102032,2775.19460913354
2464.59655894339,2775.20460913354
2493.13771983785,2775.21460913354
2522.57495000549,2775.22460913354
2551.79819960172,2775.23460913354
2570.08269884803,2775.24460913354
2556.40008707809,2775.25460913354
2526.19331283538,2775.26460913354
2485.22067485323,2775.27460913354
2473.96999312051,2775.28460913354
2464.33748962243,2775.29460913354
2458.88129260899,2775.30460913354
2493.03465288596,2775.31460913354
2560.91925405505,2775.32460913354
2629.11561959351,2775.33460913354
2676.11937545241,2775.34460913354
2712.01818234549,2775.35460913354
2705.26081411454,2775.36460913354
2697.36270254549,2775.37460913354
2692.38613349625,2775.38460913354
2692.55748505102,2775.39460913354
2710.61848793923,2775.40460913354
2710.01735778848,2775.41460913354
2713.10356483014,2775.42460913354
2701.60847418311,2775.43460913354
2675.0938995848,2775.44460913354
2665.97152317347,2775.45460913354
2671.91337335289,2775.46460913354
2683.56676156576,2775.47460913354
2668.84644343862,2775.48460913354
2666.84107403923,2775.49460913354
2654.93187609376,2775.50460913354
2650.8687967373,2775.51460913354
2653.28533614975,2775.52460913354
2647.08942355565,2775.53460913354
2636.70633263909,2775.54460913354
2639.13395723813,2775.55460913354
2621.44973780525,2775.56460913354
2600.6004714039,2775.57460913354
2582.20577490493,2775.58460913354
2576.40106122772,2775.59460913354
2585.96415132708,2775.60460913354
2587.6584544055,2775.61460913354
2582.80408816932,2775.62460913354
2594.28492222136,2775.63460913354
2593.14539026333,2775.64460913354
2588.66714987072,2775.65460913354
2577.68515907142,2775.66460913354
2579.63003013622,2775.67460913354
2579.12453050729,2775.68460913354
2575.10824500315,2775.69460913354
2546.0874023104,2775.70460913354
2524.73063684461,2775.71460913354
2484.67138885478,2775.72460913354
2475.65137820917,2775.73460913354
2458.12686358822,2775.74460913354
2444.78265074204,2775.75460913354
2442.43383203684,2775.76460913354
2424.80437930145,2775.77460913354
2410.96570696711,2775.78460913354
2388.60254729509,2775.79460913354
2386.49293455516,2775.80460913354
2387.47366710181,2775.81460913354
2385.94623434004,2775.82460913354
2403.66519237836,2775.83460913354
2434.00257650387,2775.84460913354
2464.38418343937,2775.85460913354
2488.27431364838,2775.86460913354
2502.79231050848,2775.87460913354
2505.18406237686,2775.88460913354
2505.79715990519,2775.89460913354
2500.05806055697,2775.90460913354
2488.65561208731,2775.91460913354
2490.86001642721,2775.92460913354
2489.48253896119,2775.93460913354
2502.52118403857,2775.94460913354
2506.01463577357,2775.95460913354
2500.8457164074,2775.96460913354
2483.50763839316,2775.97460913354
2474.75169306416,2775.98460913354
2474.77349331186,2775.99460913354
2487.62413865821,2776.00460913354
2490.14964130614,2776.01460913354
2502.27533462396,2776.02460913354
2493.39960514887,2776.03460913354
2485.2283593727,2776.04460913354
2444.65170122766,2776.05460913354
2417.01384331384,2776.06460913354
2403.51960819986,2776.07460913354
2417.08374204168,2776.08460913354
2464.12244625502,2776.09460913354
2546.82755978279,2776.10460913354
2647.99544390432,2776.11460913354
2746.18530802472,2776.12460913354
2839.47448360296,2776.13460913354
2922.70347765477,2776.14460913354
2981.47327087731,2776.15460913354
3035.69368043867,2776.16460913354
3072.16584627543,2776.17460913354
3100.36798674787,2776.18460913354
3149.66931570816,2776.19460913354
3186.46086735179,2776.20460913354
3228.17542535885,2776.21460913354
3249.29024505141,2776.22460913354
3257.84619060949,2776.23460913354
3253.66761279861,2776.24460913354
3220.809390157,2776.25460913354
3171.3853863878,2776.26460913354
3097.47160339508,2776.27460913354
3018.70300039465,2776.28460913354
2949.60040454084,2776.29460913354
2889.5267107199,2776.30460913354
2865.40082428142,2776.31460913354
2840.1553172187,2776.32460913354
2800.45465269453,2776.33460913354
2753.13894958256,2776.34460913354
2716.31203608605,2776.35460913354
2704.12463457908,2776.36460913354
2701.12961323676,2776.37460913354
2712.24990334971,2776.38460913354
2710.71821067277,2776.39460913354
2719.49882459928,2776.40460913354
2705.53370107813,2776.41460913354
2683.97636524143,2776.42460913354
2681.88283077889,2776.43460913354
2678.45895919336,2776.44460913354
2648.36083892469,2776.45460913354
2634.07478675076,2776.46460913354
2599.70187485273,2776.47460913354
2552.59763887084,2776.48460913354
2532.4600274609,2776.49460913354
2513.31376310212,2776.50460913354
2492.10516359617,2776.51460913354
2489.67659911019,2776.52460913354
2477.59877411154,2776.53460913354
2463.61792165287,2776.54460913354
2455.49811759946,2776.55460913354
2432.91884980736,2776.56460913354
2415.32983152451,2776.57460913354
2390.76280513588,2776.58460913354
2365.48941343988,2776.59460913354
2356.16727489428,2776.60460913354
2357.56563177093,2776.61460913354
2345.01354732304,2776.62460913354
2342.95520902087,2776.63460913354
2353.77309568318,2776.64460913354
2371.42651838962,2776.65460913354
2366.77083906864,2776.66460913354
2353.53103971864,2776.67460913354
2319.39836377476,2776.68460913354
2295.7305880192,2776.69460913354
2298.62745077911,2776.70460913354
2298.76252445669,2776.71460913354
2292.59530245579,2776.72460913354
2260.62642857646,2776.73460913354
2230.29258565028,2776.74460913354
2208.09065539406,2776.75460913354
2197.91580665314,2776.76460913354
2183.10899293993,2776.77460913354
2162.25504139914,2776.78460913354
2150.68410908189,2776.79460913354
2134.12160889099,2776.80460913354
2116.12558402318,2776.81460913354
2096.41467351794,2776.82460913354
2089.94002887471,2776.83460913354
2120.12078046055,2776.84460913354
2140.10862849819,2776.85460913354
2158.17938323568,2776.86460913354
2165.28508302872,2776.87460913354
2168.24376131499,2776.88460913354
2128.64357996591,2776.89460913354
2060.90929054494,2776.90460913354
1998.51292693162,2776.91460913354
1948.67642194929,2776.92460913354
1903.94500936386,2776.93460913354
1898.42595108038,2776.94460913354
1919.7159162263,2776.95460913354
1982.24384207151,2776.96460913354
2016.52744112968,2776.97460913354
2066.5933697074,2776.98460913354
2091.73834093325,2776.99460913354
2104.09450948053,2777.00460913354
2118.53330789421,2777.01460913354
2126.48180636872,2777.02460913354
2136.95823863765,2777.03460913354
2136.12599160978,2777.04460913354
2120.26107740746,2777.05460913354
2087.7451213752,2777.06460913354
2063.66884423409,2777.07460913354
2061.85414769238,2777.08460913354
2061.8947118561,2777.09460913354
2074.20759370235,2777.10460913354
2077.81953151387,2777.11460913354
2088.40800792416,2777.12460913354
2105.61570366553,2777.13460913354
2094.4599401946,2777.14460913354
2091.61582133635,2777.15460913354
2091.80386630559,2777.16460913354
2104.68220674832,2777.17460913354
2118.30904044169,2777.18460913354
2162.31520661808,2777.19460913354
2223.82072853176,2777.20460913354
2258.29947394519,2777.21460913354
2282.03423488484,2777.22460913354
2273.30903981918,2777.23460913354
2262.43780129454,2777.24460913354
2254.53702580572,2777.25460913354
2248.96542844837,2777.26460913354
2237.8559567799,2777.27460913354
2228.27965119145,2777.28460913354
2223.58481723264,2777.29460913354
2228.9076556184,2777.30460913354
2248.76808259563,2777.31460913354
2276.59679553443,2777.32460913354
2283.42348264386,2777.33460913354
2285.24110992025,2777.34460913354
2278.41384017243,2777.35460913354
2268.14241269954,2777.36460913354
2268.6762748475,2777.37460913354
2273.06761819401,2777.38460913354
2301.14407355876,2777.39460913354
2342.63584593883,2777.40460913354
2375.93476242213,2777.41460913354
2403.97567244326,2777.42460913354
2434.35174868778,2777.43460913354
2466.7214097364,2777.44460913354
2527.952215799,2777.45460913354
2577.45971117572,2777.46460913354
2634.49555900812,2777.47460913354
2671.60620122006,2777.48460913354
2664.56983989138,2777.49460913354
2669.33553271529,2777.50460913354
2649.93565340356,2777.51460913354
2632.19126029227,2777.52460913354
2606.45437435284,2777.53460913354
2574.34370443964,2777.54460913354
2551.51020999796,2777.55460913354
2524.36314621263,2777.56460913354
2519.66407171568,2777.57460913354
2519.43108656049,2777.58460913354
2521.84523611332,2777.59460913354
2486.23794959785,2777.60460913354
2428.29680215702,2777.61460913354
2387.42279417148,2777.62460913354
2349.4463569515,2777.63460913354
2315.86503282492,2777.64460913354
2293.18651172404,2777.65460913354
2250.64831862215,2777.66460913354
2211.44081567625,2777.67460913354
2178.43017351692,2777.68460913354
2146.52248058943,2777.69460913354
2134.95372923303,2777.70460913354
2136.28200542008,2777.71460913354
2147.81053132559,2777.72460913354
2164.28450621703,2777.73460913354
2177.49121635708,2777.74460913354
2204.83203447372,2777.75460913354
2215.15313496568,2777.76460913354
2230.76434173324,2777.77460913354
2239.66567954432,2777.78460913354
2239.2655701115,2777.79460913354
2235.57755023207,2777.80460913354
2218.80407895555,2777.81460913354
2194.3256705337,2777.82460913354
2156.54132186869,2777.83460913354
2121.56906864305,2777.84460913354
2110.06735174502,2777.85460913354
2078.79512080282,2777.86460913354
2032.66897416415,2777.87460913354
1995.17082027998,2777.88460913354
1938.00717970524,2777.89460913354
1895.24104505253,2777.90460913354
1859.95453199226,2777.91460913354
1855.23735485103,2777.92460913354
1858.70277742872,2777.93460913354
1894.47080580051,2777.94460913354
1916.4537863848,2777.95460913354
1927.26165313501,2777.96460913354
1913.94129173995,2777.97460913354
1896.78282178001,2777.98460913354
1902.1621997689,2777.99460913354
1897.62114669753,2778.00460913354
1918.13291615874,2778.01460913354
1945.83875389434,2778.02460913354
1982.47821763505,2778.03460913354
2020.68875190858,2778.04460913354
2044.03676042826,2778.05460913354
2063.76708874672,2778.06460913354
2073.74156956356,2778.07460913354
2101.78573351488,2778.08460913354
2124.60525362937,2778.09460913354
2137.5684156058,2778.10460913354
2135.55478283032,2778.11460913354
2136.18331835629,2778.12460913354
2124.74437983359,2778.13460913354
2115.41934127909,2778.14460913354
2106.70836442492,2778.15460913354
2094.54457215254,2778.16460913354
2068.4249381533,2778.17460913354
2042.70755672141,2778.18460913354
2015.54468602009,2778.19460913354
1981.0235158126,2778.20460913354
1936.33892645701,2778.21460913354
1878.73324902492,2778.22460913354
1837.04298813784,2778.23460913354
1808.13390230616,2778.24460913354
1795.91861030226,2778.25460913354
1796.27577467986,2778.26460913354
1802.11839914566,2778.27460913354
1823.45775531763,2778.28460913354
1831.49351415698,2778.29460913354
1853.34792768471,2778.30460913354
1884.38371029698,2778.31460913354
1918.94375127184,2778.32460913354
1946.7655438832,2778.33460913354
1964.69741291384,2778.34460913354
1979.74517572828,2778.35460913354
2001.04002326153,2778.36460913354
2019.23478972044,2778.37460913354
2041.78779458899,2778.38460913354
2081.34740013325,2778.39460913354
2109.60280831015,2778.40460913354
2139.22219634824,2778.41460913354
2153.91158352954,2778.42460913354
2144.52734023966,2778.43460913354
2124.92874290286,2778.44460913354
2111.04943835021,2778.45460913354
2074.43400268285,2778.46460913354
2035.13116463095,2778.47460913354
2004.35243270366,2778.48460913354
1976.98114083914,2778.49460913354
1968.57649224859,2778.50460913354
1954.15329637913,2778.51460913354
1937.73823758151,2778.52460913354
1930.18411598782,2778.53460913354
1925.17856232941,2778.54460913354
1913.12262221945,2778.55460913354
1930.99764554746,2778.56460913354
1955.01582249534,2778.57460913354
1991.47447976408,2778.58460913354
2012.69914360515,2778.59460913354
2040.45410988906,2778.60460913354
2060.27589115915,2778.61460913354
2065.48299303421,2778.62460913354
2075.47777348668,2778.63460913354
2082.90619720883,2778.64460913354
2114.73815515971,2778.65460913354
2155.90546469082,2778.66460913354
2199.63780748246,2778.67460913354
2238.72996113362,2778.68460913354
2284.46345045905,2778.69460913354
2332.07715516212,2778.70460913354
2381.87645582755,2778.71460913354
2434.84526917409,2778.72460913354
2501.99359457137,2778.73460913354
2570.28763162033,2778.74460913354
2625.64188511612,2778.75460913354
2653.43462648065,2778.76460913354
2691.75666185634,2778.77460913354
2712.04021816826,2778.78460913354
2740.09175725158,2778.79460913354
2782.82375754471,2778.80460913354
2809.93789951261,2778.81460913354
2813.0606587197,2778.82460913354
2780.28241027304,2778.83460913354
2758.49656361333,2778.84460913354
2739.50372079328,2778.85460913354
2718.47632441904,2778.86460913354
2700.66311076027,2778.87460913354
2678.57816418464,2778.88460913354
2650.8603819592,2778.89460913354
2613.73459462335,2778.90460913354
2590.5004872686,2778.91460913354
2585.52428923091,2778.92460913354
2601.91705149089,2778.93460913354
2621.906792325,2778.94460913354
2644.15058984623,2778.95460913354
2662.88196498199,2778.96460913354
2677.91030086505,2778.97460913354
2698.5605643071,2778.98460913354
2699.87083582824,2778.99460913354
2717.6637648083,2779.00460913354
2739.01546038139,2779.01460913354
2764.65844948283,2779.02460913354
2808.75836602223,2779.03460913354
2815.69119531138,2779.04460913354
2815.97373121555,2779.05460913354
2809.39984484575,2779.06460913354
2799.76598297841,2779.07460913354
2786.71521735809,2779.08460913354
2789.80988308214,2779.09460913354
2788.74804425073,2779.10460913354
2784.3403280265,2779.11460913354
2784.23938177199,2779.12460913354
2802.63580806668,2779.13460913354
2827.37249112582,2779.14460913354
2846.18724329523,2779.15460913354
2873.03624967623,2779.16460913354
2862.52440867538,2779.17460913354
2841.10179612689,2779.18460913354
2827.09225291971,2779.19460913354
2833.6248443245,2779.20460913354
2862.64088015706,2779.21460913354
2875.20858871942,2779.22460913354
2873.97364767067,2779.23460913354
2873.48340536466,2779.24460913354
2875.89544041991,2779.25460913354
2864.2063620965,2779.26460913354
2825.64966824788,2779.27460913354
2785.17873982961,2779.28460913354
2752.10606426401,2779.29460913354
2723.07781971366,2779.30460913354
2708.8544667697,2779.31460913354
2701.59623377539,2779.32460913354
2678.3329842159,2779.33460913354
2665.32423354306,2779.34460913354
2645.30322077046,2779.35460913354
2614.95327726739,2779.36460913354
2570.3743573054,2779.37460913354
2529.11420086986,2779.38460913354
2520.19683824105,2779.39460913354
2514.99661282419,2779.40460913354
2491.57645980522,2779.41460913354
2489.09918965491,2779.42460913354
2494.73140423483,2779.43460913354
2518.88695200375,2779.44460913354
2530.47870978351,2779.45460913354
2539.78181001689,2779.46460913354
2550.00116644531,2779.47460913354
2548.27923568203,2779.48460913354
2550.11046788619,2779.49460913354
2544.03859344887,2779.50460913354
2521.25612481027,2779.51460913354
2531.53812877731,2779.52460913354
2534.73051187583,2779.53460913354
2533.7516002338,2779.54460913354
2534.17436856306,2779.55460913354
2522.6735851778,2779.56460913354
2507.05480937185,2779.57460913354
2489.59500294877,2779.58460913354
2451.24251171831,2779.59460913354
2413.97364250252,2779.60460913354
2367.09128851403,2779.61460913354
2334.87373663761,2779.62460913354
2315.91537006082,2779.63460913354
2324.33305373585,2779.64460913354
2352.4418999545,2779.65460913354
2358.79456607559,2779.66460913354
2327.83275050637,2779.67460913354
2286.53753049307,2779.68460913354
2259.95938416919,2779.69460913354
2235.69624087796,2779.70460913354
2222.90068079391,2779.71460913354
2230.09279366308,2779.72460913354
2240.05333261298,2779.73460913354
2238.17547474772,2779.74460913354
2251.72550467772,2779.75460913354
2269.31878391136,2779.76460913354
2308.30826592814,2779.77460913354
2352.36246937392,2779.78460913354
2387.54935022226,2779.79460913354
2404.23709005606,2779.80460913354
2400.92126249981,2779.81460913354
2378.42081781113,2779.82460913354
2357.44449966491,2779.83460913354
2357.70550691033,2779.84460913354
2344.77040457059,2779.85460913354
2342.94657177996,2779.86460913354
2342.06508337588,2779.87460913354
2347.23203392131,2779.88460913354
2361.66831362401,2779.89460913354
2392.97274206988,2779.90460913354
2428.33328132055,2779.91460913354
2462.73621581996,2779.92460913354
2496.83647414264,2779.93460913354
2558.87199968056,2779.94460913354
2646.77174196589,2779.95460913354
2746.61231461441,2779.96460913354
2851.74327733714,2779.97460913354
2925.75074418282,2779.98460913354
2978.41749240266,2779.99460913354
3009.47459348831,2780.00460913354
3039.89804935476,2780.01460913354
3063.9917307218,2780.02460913354
3077.51280507956,2780.03460913354
3069.31948597533,2780.04460913354
3060.29871207071,2780.05460913354
3042.57087624269,2780.06460913354
2996.7444404395,2780.07460913354
2959.73409925578,2780.08460913354
2912.76096181014,2780.09460913354
2856.31719362788,2780.10460913354
2830.18857485402,2780.11460913354
2829.87364654066,2780.12460913354
2824.24970840187,2780.13460913354
2799.1600773926,2780.14460913354
2757.45598205598,2780.15460913354
2701.84301004358,2780.16460913354
2647.563358016,2780.17460913354
2598.62886453542,2780.18460913354
2560.01511505366,2780.19460913354
2521.40377345418,2780.20460913354
2476.47268682586,2780.21460913354
2410.439745382,2780.22460913354
2335.25397733076,2780.23460913354
2258.9811612288,2780.24460913354
2225.75840534987,2780.25460913354
2228.0729224214,2780.26460913354
2269.87282590858,2780.27460913354
2312.68808320345,2780.28460913354
2360.02694084781,2780.29460913354
2368.12132790049,2780.30460913354
2355.39454353692,2780.31460913354
2357.39837933688,2780.32460913354
2357.575032719,2780.33460913354
2352.30276119107,2780.34460913354
2342.00826315501,2780.35460913354
2331.05862701371,2780.36460913354
2330.75121114383,2780.37460913354
2361.78237875469,2780.38460913354
2372.67046144898,2780.39460913354
2371.88299448072,2780.40460913354
2359.96801970544,2780.41460913354
2355.85620482845,2780.42460913354
2347.04515962226,2780.43460913354
2337.05127987846,2780.44460913354
2323.74690137564,2780.45460913354
2294.17167581927,2780.46460913354
2271.79393641737,2780.47460913354
2251.07190357205,2780.48460913354
2237.42783765585,2780.49460913354
2239.18453187291,2780.50460913354
2242.73461425267,2780.51460913354
2260.38450207632,2780.52460913354
2269.84201717363,2780.53460913354
2256.10923161406,2780.54460913354
2254.12121386326,2780.55460913354
2253.0338918397,2780.56460913354
2259.45911450712,2780.57460913354
2269.89423476388,2780.58460913354
2269.4210357013,2780.59460913354
2264.62814513313,2780.60460913354
2237.16589712014,2780.61460913354
2202.56445394382,2780.62460913354
2145.57915890729,2780.63460913354
2107.70962185129,2780.64460913354
2068.27228884184,2780.65460913354
2027.56539673438,2780.66460913354
1983.7001290051,2780.67460913354
1956.90691961201,2780.68460913354
1929.20424537676,2780.69460913354
1935.34379638722,2780.70460913354
1944.40970796123,2780.71460913354
1955.87637112478,2780.72460913354
1959.82809948079,2780.73460913354
1958.31635313864,2780.74460913354
1959.46703592627,2780.75460913354
1958.18207674789,2780.76460913354
1963.19995351473,2780.77460913354
1980.60635432113,2780.78460913354
2012.11613120367,2780.79460913354
2039.96054588609,2780.80460913354
2082.56222031416,2780.81460913354
2091.90190675899,2780.82460913354
2093.18675898895,2780.83460913354
2074.29202779751,2780.84460913354
2037.04739996177,2780.85460913354
2018.87392078983,2780.86460913354
2010.98778243912,2780.87460913354
2017.35225302595,2780.88460913354
2023.21894733871,2780.89460913354
2033.48889724353,2780.90460913354
2036.36198108005,2780.91460913354
2067.88374986845,2780.92460913354
2102.00808022063,2780.93460913354
2119.82912883488,2780.94460913354
2133.05567420684,2780.95460913354
2149.30305823845,2780.96460913354
2150.99143464935,2780.97460913354
2151.56941222018,2780.98460913354
2146.91841270469,2780.99460913354
2141.65087841273,2781.00460913354
2136.70703454236,2781.01460913354
2134.93304187184,2781.02460913354
2153.03211890076,2781.03460913354
2183.62607200495,2781.04460913354
2212.63326597061,2781.05460913354
2234.54297447092,2781.06460913354
2262.74962004809,2781.07460913354
2263.16513816636,2781.08460913354
2254.79279471644,2781.09460913354
2221.75643693558,2781.10460913354
2170.37160538335,2781.11460913354
2140.42979848556,2781.12460913354
2102.90652590545,2781.13460913354
2063.13375608638,2781.14460913354
2021.7425185371,2781.15460913354
1985.0258325679,2781.16460913354
1959.61971651035,2781.17460913354
1962.34517347738,2781.18460913354
1998.32107499574,2781.19460913354
2082.0510083388,2781.20460913354
2144.25998366853,2781.21460913354
2210.53751094749,2781.22460913354
2272.99814032617,2781.23460913354
2342.46219731686,2781.24460913354
2431.49942148915,2781.25460913354
2522.49030778783,2781.26460913354
2581.82866825747,2781.27460913354
2618.54128318891,2781.28460913354
2637.16327445838,2781.29460913354
2648.49802195146,2781.30460913354
2658.97532696341,2781.31460913354
2663.20461487336,2781.32460913354
2650.25051750456,2781.33460913354
2665.49143412166,2781.34460913354
2644.24506669344,2781.35460913354
2632.12648183736,2781.36460913354
2606.34778543896,2781.37460913354
2562.54623966258,2781.38460913354
2520.47152058939,2781.39460913354
2469.14200527101,2781.40460913354
2426.70628461072,2781.41460913354
2398.8497701476,2781.42460913354
2361.17493355639,2781.43460913354
2352.35067064166,2781.44460913354
2325.41427849118,2781.45460913354
2294.94369944422,2781.46460913354
2278.27104513195,2781.47460913354
2255.15138251618,2781.48460913354
2254.83341215258,2781.49460913354
2236.76462088879,2781.50460913354
2210.96703966724,2781.51460913354
2197.67961654703,2781.52460913354
2182.38389436797,2781.53460913354
2175.60186899718,2781.54460913354
2160.46695410424,2781.55460913354
2145.53894886475,2781.56460913354
2134.00686112805,2781.57460913354
2141.3023165551,2781.58460913354
2167.2808058624,2781.59460913354
2187.84985737478,2781.60460913354
2189.90956932856,2781.61460913354
2179.08376669489,2781.62460913354
2179.81372227856,2781.63460913354
2196.40411883854,2781.64460913354
2239.99373610538,2781.65460913354
2273.14982684104,2781.66460913354
2296.45062756554,2781.67460913354
2299.16400489922,2781.68460913354
2293.39258294228,2781.69460913354
2282.94924808339,2781.70460913354
2295.99291186313,2781.71460913354
2287.78938375531,2781.72460913354
2266.74338735725,2781.73460913354
2247.76484912961,2781.74460913354
2211.58330338354,2781.75460913354
2147.47244802028,2781.76460913354
2085.93777734017,2781.77460913354
2032.7442071401,2781.78460913354
1998.15611908165,2781.79460913354
1973.21539135696,2781.80460913354
1934.80204812608,2781.81460913354
1897.17570471079,2781.82460913354
1854.01376172933,2781.83460913354
1828.35427406808,2781.84460913354
1816.45485648517,2781.85460913354
1793.7791821226,2781.86460913354
1811.22862237645,2781.87460913354
1821.85340029185,2781.88460913354
1844.56792099983,2781.89460913354
1868.81766019726,2781.90460913354
1875.5019740188,2781.91460913354
1886.66853217345,2781.92460913354
1883.10001167002,2781.93460913354
1879.27245341679,2781.94460913354
1884.13264555924,2781.95460913354
1901.67000789928,2781.96460913354
1921.86650956015,2781.97460913354
1953.82801346425,2781.98460913354
1972.92740334237,2781.99460913354
1985.37291824398,2782.00460913354
1994.29197708109,2782.01460913354
2007.49161042594,2782.02460913354
2035.910020035,2782.03460913354
2066.72336206471,2782.04460913354
2106.88514218826,2782.05460913354
2139.24559070001,2782.06460913354
2157.87895142449,2782.07460913354
2165.49740983261,2782.08460913354
2171.24557904624,2782.09460913354
2180.18096000383,2782.10460913354
2184.83497458484,2782.11460913354
2196.45469395354,2782.12460913354
2194.44305785973,2782.13460913354
2183.39419971463,2782.14460913354
2175.95906694103,2782.15460913354
2155.83786659886,2782.16460913354
2117.25207409468,2782.17460913354
2078.25204144924,2782.18460913354
2049.78528666647,2782.19460913354
2019.67928281225,2782.20460913354
2029.07765521949,2782.21460913354
2041.61211936797,2782.22460913354
2074.3816605507,2782.23460913354
2105.47027183818,2782.24460913354
2118.64621603057,2782.25460913354
2121.6650521408,2782.26460913354
2106.11359983757,2782.27460913354
2070.10982564925,2782.28460913354
2032.72930427128,2782.29460913354
2005.78906930004,2782.30460913354
1979.2244306159,2782.31460913354
1980.37379931367,2782.32460913354
1999.35113209981,2782.33460913354
2036.58056052506,2782.34460913354
2086.45896138998,2782.35460913354
2141.10273013107,2782.36460913354
2197.95205502746,2782.37460913354
2214.56920650227,2782.38460913354
2231.47824419317,2782.39460913354
2250.33557057985,2782.40460913354
2272.38202490238,2782.41460913354
2284.78714921768,2782.42460913354
2287.29801959186,2782.43460913354
2304.08889179517,2782.44460913354
2341.11395128434,2782.45460913354
2380.94790951567,2782.46460913354
2432.27015350496,2782.47460913354
2475.16652042679,2782.48460913354
2535.9063532449,2782.49460913354
2604.79218193508,2782.50460913354
2690.11555076882,2782.51460913354
2776.41163703518,2782.52460913354
2818.60490906738,2782.53460913354
2871.01393733292,2782.54460913354
2919.86151271804,2782.55460913354
2950.83357639454,2782.56460913354
2976.12888810489,2782.57460913354
2988.99988536921,2782.58460913354
3005.09946873994,2782.59460913354
3005.46296260498,2782.60460913354
3007.65121051435,2782.61460913354
2989.22739710633,2782.62460913354
2972.22396628606,2782.63460913354
2954.71195899997,2782.64460913354
2952.54272364625,2782.65460913354
2958.24126958571,2782.66460913354
2945.48714911504,2782.67460913354
2932.8312111214,2782.68460913354
2897.69492535593,2782.69460913354
2887.7695287805,2782.70460913354
2887.71416780822,2782.71460913354
2888.38770080107,2782.72460913354
2875.94004675464,2782.73460913354
2862.15856776627,2782.74460913354
2841.00245975273,2782.75460913354
2803.83206307718,2782.76460913354
2786.31524623814,2782.77460913354
2789.16112778609,2782.78460913354
2814.24520414854,2782.79460913354
2825.07315826433,2782.80460913354
2835.21303690946,2782.81460913354
2844.47977017347,2782.82460913354
2867.97766946409,2782.83460913354
2876.2132737959,2782.84460913354
2871.8245366823,2782.85460913354
2879.88468265577,2782.86460913354
2887.99062651,2782.87460913354
2904.38676007933,2782.88460913354
2936.77723741528,2782.89460913354
2951.99129832523,2782.90460913354
2968.24197808862,2782.91460913354
2989.88614646612,2782.92460913354
2993.16864132486,2782.93460913354
2987.72967700326,2782.94460913354
2956.26192099873,2782.95460913354
2904.52338090113,2782.96460913354
2850.05685100263,2782.97460913354
2806.57343014224,2782.98460913354
2765.56705082495,2782.99460913354
2755.07760989308,2783.00460913354
2756.74935259244,2783.01460913354
2751.67146630451,2783.02460913354
2734.62280704817,2783.03460913354
2725.14806181009,2783.04460913354
2714.15941410026,2783.05460913354
2686.21873297398,2783.06460913354
2681.02657738385,2783.07460913354
2694.57703309281,2783.08460913354
2709.06198374636,2783.09460913354
2723.13025857217,2783.10460913354
2731.00276944417,2783.11460913354
2743.40960032651,2783.12460913354
2734.64809997023,2783.13460913354
2729.6425581783,2783.14460913354
2744.37524008874,2783.15460913354
2730.83018480036,2783.16460913354
2704.3402846754,2783.17460913354
2696.81510010608,2783.18460913354
2685.33587113323,2783.19460913354
2677.07448586479,2783.20460913354
2649.45694476884,2783.21460913354
2608.74685631741,2783.22460913354
2581.3638347223,2783.23460913354
2558.84826348657,2783.24460913354
2542.58695584306,2783.25460913354
2522.86874329954,2783.26460913354
2502.11502037947,2783.27460913354
2488.28109945326,2783.28460913354
2475.96753439943,2783.29460913354
2447.98447385066,2783.30460913354
2430.14768667683,2783.31460913354
2431.08723512337,2783.32460913354
2443.57868338623,2783.33460913354
2455.01438833667,2783.34460913354
2439.89001001838,2783.35460913354
2418.1718376215,2783.36460913354
2403.9509831874,2783.37460913354
2389.87400742583,2783.38460913354
2382.26670458129,2783.39460913354
2365.98703711568,2783.40460913354
2344.73688052404,2783.41460913354
2330.58071079092,2783.42460913354
2314.84194648277,2783.43460913354
2301.09196814523,2783.44460913354
2292.85693680637,2783.45460913354
2282.5729323135,2783.46460913354
2273.5221718151,2783.47460913354
2262.22610074623,2783.48460913354
2254.1705685092,2783.49460913354
2240.58101391191,2783.50460913354
2232.00743841123,2783.51460913354
2227.75598083884,2783.52460913354
2224.83311671304,2783.53460913354
2220.79116605629,2783.54460913354
2204.46161200284,2783.55460913354
2189.12139297943,2783.56460913354
2179.31040740352,2783.57460913354
2179.56246644129,2783.58460913354
2184.28631766549,2783.59460913354
2200.55566985142,2783.60460913354
2226.93320230212,2783.61460913354
2245.16008728356,2783.62460913354
2255.20486918839,2783.63460913354
2252.41247494712,2783.64460913354
2268.79950577112,2783.65460913354
2270.79651532174,2783.66460913354
2268.22770439467,2783.67460913354
2303.75067475258,2783.68460913354
2324.76827136715,2783.69460913354
2344.67812444451,2783.70460913354
2378.85274422799,2783.71460913354
2437.82462710916,2783.72460913354
2479.36689354044,2783.73460913354
2507.3466875034,2783.74460913354
2549.461178652,2783.75460913354
2597.85837129647,2783.76460913354
2671.46903663623,2783.77460913354
2732.06729623424,2783.78460913354
2791.93371537604,2783.79460913354
2837.06265149094,2783.80460913354
2895.34197664432,2783.81460913354
2921.08299100397,2783.82460913354
2916.88606147541,2783.83460913354
2915.70996602347,2783.84460913354
2868.39782645634,2783.85460913354
2823.98913159013,2783.86460913354
2815.0733181377,2783.87460913354
2825.53601305742,2783.88460913354
2834.9791500883,2783.89460913354
2832.971147618,2783.90460913354
2812.76210570595,2783.91460913354
2780.78346126456,2783.92460913354
2758.30539803931,2783.93460913354
2738.72969390015,2783.94460913354
2711.41758642512,2783.95460913354
2700.38653410198,2783.96460913354
2671.13808335494,2783.97460913354
2651.3919361368,2783.98460913354
2601.98745481537,2783.99460913354
2559.98504242033,2784.00460913354
2519.2347178012,2784.01460913354
2490.49930545461,2784.02460913354
2477.69686951892,2784.03460913354
2477.65992605633,2784.04460913354
2497.40937107536,2784.05460913354
2504.51577815569,2784.06460913354
2518.21996584241,2784.07460913354
2515.85501583256,2784.08460913354
2502.71186177127,2784.09460913354
2507.15720625175,2784.10460913354
2486.8691972903,2784.11460913354
2473.32573879934,2784.12460913354
2464.68523264246,2784.13460913354
2447.06620798728,2784.14460913354
2447.00500860353,2784.15460913354
2440.91709536386,2784.16460913354
2429.6145237795,2784.17460913354
2432.24457798482,2784.18460913354
2441.23907430723,2784.19460913354
2456.27269323144,2784.20460913354
2481.02951388045,2784.21460913354
2471.73249813815,2784.22460913354
2435.33905205684,2784.23460913354
2367.48105197083,2784.24460913354
2311.26664581687,2784.25460913354
2280.34485362122,2784.26460913354
2266.99761104713,2784.27460913354
2282.96767006575,2784.28460913354
2305.58485736564,2784.29460913354
2337.01055141611,2784.30460913354
2358.98528563209,2784.31460913354
2368.35213822117,2784.32460913354
2373.40760042292,2784.33460913354
2383.28509392017,2784.34460913354
2388.73704077921,2784.35460913354
2361.45041565185,2784.36460913354
2333.42078617656,2784.37460913354
2309.79839860145,2784.38460913354
2285.29997973761,2784.39460913354
2280.92189887249,2784.40460913354
2257.87277893044,2784.41460913354
2221.90398420489,2784.42460913354
2191.41036694236,2784.43460913354
2151.96443828664,2784.44460913354
2099.99476078008,2784.45460913354
2059.02476856772,2784.46460913354
2022.54521266891,2784.47460913354
1989.1112955981,2784.48460913354
1965.13009075003,2784.49460913354
1944.08466510172,2784.50460913354
1948.65352745325,2784.51460913354
1988.28187069726,2784.52460913354
2033.7506674473,2784.53460913354
2067.78068025336,2784.54460913354
2078.06972239527,2784.55460913354
2075.86726387605,2784.56460913354
2066.96922698959,2784.57460913354
2051.12662784092,2784.58460913354
2031.01933097004,2784.59460913354
2022.02347193734,2784.60460913354
2003.95419172024,2784.61460913354
2003.64709483943,2784.62460913354
2002.08601893005,2784.63460913354
2028.36366676303,2784.64460913354
2033.18960472346,2784.65460913354
2037.01378402565,2784.66460913354
2063.3969947008,2784.67460913354
2060.23653240521,2784.68460913354
2067.56000167118,2784.69460913354
2078.2774972194,2784.70460913354
2087.72262376986,2784.71460913354
2098.26731301613,2784.72460913354
2095.67689915162,2784.73460913354
2087.14020904295,2784.74460913354
2070.71371625773,2784.75460913354
2061.62293133504,2784.76460913354
2061.34990382898,2784.77460913354
2066.52011347356,2784.78460913354
2082.33867349559,2784.79460913354
2109.37172475863,2784.80460913354
2126.19435454144,2784.81460913354
2145.36499383,2784.82460913354
2177.17402157278,2784.83460913354
2213.66494095807,2784.84460913354
2237.96796910437,2784.85460913354
2239.37896667272,2784.86460913354
2235.76445611783,2784.87460913354
2218.15685403057,2784.88460913354
2210.59103445038,2784.89460913354
2205.34823858657,2784.90460913354
2189.92713937218,2784.91460913354
2162.3340380824,2784.92460913354
2125.64560797923,2784.93460913354
2080.27205758739,2784.94460913354
2041.05285017503,2784.95460913354
2030.07021157667,2784.96460913354
2051.23683677592,2784.97460913354
2079.93049154011,2784.98460913354
2113.64961997094,2784.99460913354
2156.07938629615,2785.00460913354
2180.40789127111,2785.01460913354
2222.54838841454,2785.02460913354
2293.51796778805,2785.03460913354
2385.64319148235,2785.04460913354
2485.25761124635,2785.05460913354
2561.07698028003,2785.06460913354
2626.53638117286,2785.07460913354
2662.34816373729,2785.08460913354
2684.64578837025,2785.09460913354
2715.24415378137,2785.10460913354
2727.63920297431,2785.11460913354
2725.2929361165,2785.12460913354
2727.63844863201,2785.13460913354
2718.07883542963,2785.14460913354
2684.72211457786,2785.15460913354
2650.66630712698,2785.16460913354
2614.76600178562,2785.17460913354
2574.79237441627,2785.18460913354
2546.19295408878,2785.19460913354
2508.28816302088,2785.20460913354
2492.57917997391,2785.21460913354
2476.59528368911,2785.22460913354
2464.32538200576,2785.23460913354
2455.05516306099,2785.24460913354
2445.24975779786,2785.25460913354
2434.13620161846,2785.26460913354
2429.86016328374,2785.27460913354
2432.03081386268,2785.28460913354
2426.7265631622,2785.29460913354
2383.13007962483,2785.30460913354
2320.15391874426,2785.31460913354
2288.61444187652,2785.32460913354
2256.11490310139,2785.33460913354
2242.32718913872,2785.34460913354
2256.29952986151,2785.35460913354
2252.23594053365,2785.36460913354
2255.64746797877,2785.37460913354
2225.14386964602,2785.38460913354
2179.12723296522,2785.39460913354
2147.58004587261,2785.40460913354
2130.13281391426,2785.41460913354
2118.97844564951,2785.42460913354
2126.88998264499,2785.43460913354
2148.25679317031,2785.44460913354
2179.3772797705,2785.45460913354
2202.17469603289,2785.46460913354
2213.97606794663,2785.47460913354
2243.04000974999,2785.48460913354
2267.40893661965,2785.49460913354
2269.40689254009,2785.50460913354
2256.70559448237,2785.51460913354
2241.51886712144,2785.52460913354
2235.10605351311,2785.53460913354
2218.61799944265,2785.54460913354
2197.89568682036,2785.55460913354
2178.14688768627,2785.56460913354
2147.8631727406,2785.57460913354
2118.22334278256,2785.58460913354
2089.68776596945,2785.59460913354
2069.76303754495,2785.60460913354
2063.04284203965,2785.61460913354
2044.54892882515,2785.62460913354
2025.39546527454,2785.63460913354
2017.95139504793,2785.64460913354
2017.73183913174,2785.65460913354
1995.21057622696,2785.66460913354
1967.47944229174,2785.67460913354
1915.9076478689,2785.68460913354
1875.97120016709,2785.69460913354
1876.16949470403,2785.70460913354
1885.69870843648,2785.71460913354
1884.54133826058,2785.72460913354
1885.14384117541,2785.73460913354
1884.9873621926,2785.74460913354
1908.66086843548,2785.75460913354
1933.3228520745,2785.76460913354
1945.38831223095,2785.77460913354
1943.12760218824,2785.78460913354
1956.92189203713,2785.79460913354
1959.30613167775,2785.80460913354
1971.16498114841,2785.81460913354
1974.94955493365,2785.82460913354
1985.49867461257,2785.83460913354
2002.17874999271,2785.84460913354
1998.87777870746,2785.85460913354
1986.75001776075,2785.86460913354
1979.48355128612,2785.87460913354
1953.53601491494,2785.88460913354
1948.95230655591,2785.89460913354
1958.8557720938,2785.90460913354
1979.39226239771,2785.91460913354
2012.0634799641,2785.92460913354
2028.59504707867,2785.93460913354
2039.09525810123,2785.94460913354
2062.10451663985,2785.95460913354
2061.72458563669,2785.96460913354
2074.77813220501,2785.97460913354
2089.14630833436,2785.98460913354
2082.17170602522,2785.99460913354
2056.48091944461,2786.00460913354
2013.24466353458,2786.01460913354
1973.70029969085,2786.02460913354
1941.06621137907,2786.03460913354
1922.9837657422,2786.04460913354
1919.27555303987,2786.05460913354
1942.86367590276,2786.06460913354
1956.31150431244,2786.07460913354
1971.27943929523,2786.08460913354
1979.09563828663,2786.09460913354
1990.52846420758,2786.10460913354
1987.81474315975,2786.11460913354
2001.50020034198,2786.12460913354
2002.58873306644,2786.13460913354
2016.27382870004,2786.14460913354
2001.91971222434,2786.15460913354
1985.8367581576,2786.16460913354
1994.84288654312,2786.17460913354
2003.50119326742,2786.18460913354
2002.46362500522,2786.19460913354
2003.48813654132,2786.20460913354
2001.69266449962,2786.21460913354
2008.27464070583,2786.22460913354
2030.45928047439,2786.23460913354
2049.14311421969,2786.24460913354
2090.03810463459,2786.25460913354
2157.58308322624,2786.26460913354
2223.09452426336,2786.27460913354
2270.20599728976,2786.28460913354
2313.22116006316,2786.29460913354
2361.4547201228,2786.30460913354
2404.24432854005,2786.31460913354
2461.3778917494,2786.32460913354
2512.13583555857,2786.33460913354
2597.90717227403,2786.34460913354
2669.56570693275,2786.35460913354
2727.11573500385,2786.36460913354
2794.41617431228,2786.37460913354
2828.20749202466,2786.38460913354
2829.16625503592,2786.39460913354
2828.93111815549,2786.40460913354
2832.14252539068,2786.41460913354
2858.63632005846,2786.42460913354
2924.53018194371,2786.43460913354
2969.857076036,2786.44460913354
3004.50553121713,2786.45460913354
3022.074037923,2786.46460913354
3021.12122113667,2786.47460913354
3020.55025708222,2786.48460913354
3022.97709256332,2786.49460913354
3023.24058772685,2786.50460913354
3004.33083823243,2786.51460913354
3007.09709954814,2786.52460913354
2994.37754865686,2786.53460913354
2975.92954913013,2786.54460913354
2927.72459411865,2786.55460913354
2878.5300167055,2786.56460913354
2828.96586553156,2786.57460913354
2795.43913557054,2786.58460913354
2760.72118198726,2786.59460913354
2741.58737451431,2786.60460913354
2730.33320922846,2786.61460913354
2706.46591264583,2786.62460913354
2701.12615150796,2786.63460913354
2723.29394698538,2786.64460913354
2744.10954508092,2786.65460913354
2779.62507580317,2786.66460913354
2807.3770311561,2786.67460913354
2835.68291689738,2786.68460913354
2849.41583472791,2786.69460913354
2859.70618276785,2786.70460913354
2859.70653430736,2786.71460913354
2853.78141051737,2786.72460913354
2843.59638164922,2786.73460913354
2839.8863337956,2786.74460913354
2826.94490524077,2786.75460913354
2830.78370995004,2786.76460913354
2827.00510816267,2786.77460913354
2847.30544573012,2786.78460913354
2872.03959977534,2786.79460913354
2863.95633151869,2786.80460913354
2859.72402100919,2786.81460913354
2843.61015681144,2786.82460913354
2816.45974249449,2786.83460913354
2768.07588305041,2786.84460913354
2729.7494281664,2786.85460913354
2729.16423573422,2786.86460913354
2759.50366584251,2786.87460913354
2787.06012464242,2786.88460913354
2819.17373495867,2786.89460913354
2829.59132499685,2786.90460913354
2829.57272723036,2786.91460913354
2813.4839984144,2786.92460913354
2793.43432048901,2786.93460913354
2781.06240435796,2786.94460913354
2748.89625104165,2786.95460913354
2690.56605693731,2786.96460913354
2632.4667891589,2786.97460913354
2559.63676579166,2786.98460913354
2514.66953246791,2786.99460913354
2488.25106941217,2787.00460913354
2456.27216028424,2787.01460913354
2432.96930056752,2787.02460913354
2417.83366632557,2787.03460913354
2418.9934410278,2787.04460913354
2453.47195007027,2787.05460913354
2494.91122087337,2787.06460913354
2517.42768584233,2787.07460913354
2509.87518303116,2787.08460913354
2482.64528168426,2787.09460913354
2441.71338998088,2787.10460913354
2413.91272468899,2787.11460913354
2387.0398078165,2787.12460913354
2392.2984443448,2787.13460913354
2403.27840454661,2787.14460913354
2400.98902351653,2787.15460913354
2391.5471508861,2787.16460913354
2376.94325140907,2787.17460913354
2335.12121271742,2787.18460913354
2277.56941745366,2787.19460913354
2234.09406702828,2787.20460913354
2212.26194978471,2787.21460913354
2208.95279841298,2787.22460913354
2225.68191595284,2787.23460913354
2249.99313920054,2787.24460913354
2275.60873463695,2787.25460913354
2295.77092685143,2787.26460913354
2298.71593890941,2787.27460913354
2297.23742233403,2787.28460913354
2298.96324788266,2787.29460913354
2296.34836935623,2787.30460913354
2304.06134341536,2787.31460913354
2312.81779560033,2787.32460913354
2318.06519550279,2787.33460913354
2329.10147463805,2787.34460913354
2327.99743538153,2787.35460913354
2327.13380367625,2787.36460913354
2333.37658275323,2787.37460913354
2343.77615516813,2787.38460913354
2343.39376784181,2787.39460913354
2326.44198299783,2787.40460913354
2294.66393722125,2787.41460913354
2254.35411117398,2787.42460913354
2220.2595440165,2787.43460913354
2196.44376019031,2787.44460913354
2198.53184036174,2787.45460913354
2228.42890025297,2787.46460913354
2240.16864892827,2787.47460913354
2238.05828349933,2787.48460913354
2239.56659346511,2787.49460913354
2226.90693936019,2787.50460913354
2235.84847486448,2787.51460913354
2240.12728339212,2787.52460913354
2261.75612165972,2787.53460913354
2288.00337645871,2787.54460913354
2313.72159114809,2787.55460913354
2363.77982075127,2787.56460913354
2416.51094470371,2787.57460913354
2478.00508465893,2787.58460913354
2525.40763096009,2787.59460913354
2550.35661103419,2787.60460913354
2582.95430954596,2787.61460913354
2598.00979348322,2787.62460913354
2637.47209005635,2787.63460913354
2674.79319081905,2787.64460913354
2732.60013433966,2787.65460913354
2774.90085273042,2787.66460913354
2790.27443282093,2787.67460913354
2814.43015961222,2787.68460913354
2810.26096147338,2787.69460913354
2774.22590351346,2787.70460913354
2746.09993662984,2787.71460913354
2723.73002638432,2787.72460913354
2704.331664389,2787.73460913354
2700.3635652506,2787.74460913354
2717.55722149809,2787.75460913354
2726.75495426333,2787.76460913354
2722.2722057289,2787.77460913354
2704.1434376164,2787.78460913354
2697.95590528034,2787.79460913354
2667.7061098731,2787.80460913354
2645.52962939049,2787.81460913354
2621.15708767552,2787.82460913354
2593.10644265077,2787.83460913354
2593.93991461351,2787.84460913354
2568.92803210446,2787.85460913354
2559.09046777975,2787.86460913354
2519.57732553332,2787.87460913354
2486.5778989585,2787.88460913354
2445.3262154168,2787.89460913354
2428.1847451885,2787.90460913354
2433.2418710703,2787.91460913354
2425.1838964335,2787.92460913354
2412.04113886866,2787.93460913354
2395.05941569104,2787.94460913354
2387.75296266794,2787.95460913354
2381.32114922417,2787.96460913354
2371.86189495375,2787.97460913354
2367.1119883131,2787.98460913354
2355.96109059769,2787.99460913354
2353.84361572312,2788.00460913354
2336.69727686347,2788.01460913354
2323.30647416625,2788.02460913354
2310.17354690978,2788.03460913354
2334.50546729755,2788.04460913354
2380.72406401798,2788.05460913354
2436.37756710532,2788.06460913354
2481.60675591987,2788.07460913354
2485.65494167736,2788.08460913354
2458.32756064207,2788.09460913354
2415.36670859507,2788.10460913354
2387.76779900258,2788.11460913354
2387.38809004836,2788.12460913354
2398.95976956814,2788.13460913354
2426.70771520501,2788.14460913354
2444.34976942144,2788.15460913354
2458.36578557074,2788.16460913354
2462.25679564875,2788.17460913354
2459.77495038142,2788.18460913354
2463.18086967764,2788.19460913354
2439.45194226365,2788.20460913354
2393.1511792726,2788.21460913354
2337.61166556512,2788.22460913354
2304.22465466474,2788.23460913354
2288.29436763635,2788.24460913354
2265.54761394439,2788.25460913354
2249.61450434199,2788.26460913354
2228.65438928461,2788.27460913354
2191.89228279046,2788.28460913354
2137.98836173143,2788.29460913354
2091.31029614527,2788.30460913354
2049.31273715346,2788.31460913354
2020.1179423413,2788.32460913354
1986.39877144415,2788.33460913354
1955.39255479166,2788.34460913354
1927.32755771137,2788.35460913354
1896.09745274778,2788.36460913354
1883.57461003302,2788.37460913354
1897.74924725708,2788.38460913354
1900.45635714582,2788.39460913354
1899.46527474016,2788.40460913354
1900.77371248348,2788.41460913354
1895.44325684995,2788.42460913354
1879.43864467483,2788.43460913354
1854.38107315607,2788.44460913354
1833.0716649316,2788.45460913354
1830.5791259236,2788.46460913354
1842.602908812,2788.47460913354
1839.46483551995,2788.48460913354
1857.79875719524,2788.49460913354
1877.66869312833,2788.50460913354
1896.73499449971,2788.51460913354
1917.341320043,2788.52460913354
1947.2633879072,2788.53460913354
1965.27519359046,2788.54460913354
1986.65966213559,2788.55460913354
2004.39528897327,2788.56460913354
2041.08430736932,2788.57460913354
2081.42882448856,2788.58460913354
2093.37548018731,2788.59460913354
2078.97208857788,2788.60460913354
2077.06343915016,2788.61460913354
2064.52154887525,2788.62460913354
2061.95644422274,2788.63460913354
2073.28807178637,2788.64460913354
2095.39710770589,2788.65460913354
2108.26358354114,2788.66460913354
2106.74083307349,2788.67460913354
2094.51567033052,2788.68460913354
2080.05814866692,2788.69460913354
2059.54360047694,2788.70460913354
2031.69994243935,2788.71460913354
2034.00263449271,2788.72460913354
2031.83726887673,2788.73460913354
2037.02443715582,2788.74460913354
2067.63250608405,2788.75460913354
2077.56473665737,2788.76460913354
2076.87659176262,2788.77460913354
2076.64846131391,2788.78460913354
2077.54093339946,2788.79460913354
2075.51661447389,2788.80460913354
2082.51708806154,2788.81460913354
2092.40011617097,2788.82460913354
2118.4719981926,2788.83460913354
2148.61438615527,2788.84460913354
2170.44800785193,2788.85460913354
2188.78546600662,2788.86460913354
2225.43463236709,2788.87460913354
2277.99697011761,2788.88460913354
2354.7752854248,2788.89460913354
2434.82154261151,2788.90460913354
2519.89649355617,2788.91460913354
2576.71554771313,2788.92460913354
2621.00635539164,2788.93460913354
2610.43658799314,2788.94460913354
2608.09931522788,2788.95460913354
2595.62803042871,2788.96460913354
2593.16774669569,2788.97460913354
2589.45923730564,2788.98460913354
2584.59427763867,2788.99460913354
2579.32740646209,2789.00460913354
2590.23442006296,2789.01460913354
2594.41707659433,2789.02460913354
2588.67469248344,2789.03460913354
2561.63916727983,2789.04460913354
2527.61570650996,2789.05460913354
2480.36929731869,2789.06460913354
2456.08557039763,2789.07460913354
2435.65306955525,2789.08460913354
2398.5457031891,2789.09460913354
2368.46136827173,2789.10460913354
2355.57425165083,2789.11460913354
2333.99425038588,2789.12460913354
2301.99699737339,2789.13460913354
2293.37303933103,2789.14460913354
2254.45137199877,2789.15460913354
2219.66845471561,2789.16460913354
2197.90413489978,2789.17460913354
2177.41928137137,2789.18460913354
2164.04935376753,2789.19460913354
2167.18358796693,2789.20460913354
2164.42491757319,2789.21460913354
2171.03653054098,2789.22460913354
2180.95454496863,2789.23460913354
2179.41486684112,2789.24460913354
2192.46988942784,2789.25460913354
2195.91544430809,2789.26460913354
2205.96697108867,2789.27460913354
2216.28171943129,2789.28460913354
2225.25034793368,2789.29460913354
2228.87393244477,2789.30460913354
2253.74581601517,2789.31460913354
2249.25303984312,2789.32460913354
2234.01992505062,2789.33460913354
2195.6617090536,2789.34460913354
2161.31258351452,2789.35460913354
2134.65572017603,2789.36460913354
2113.0587588447,2789.37460913354
2112.36575259185,2789.38460913354
2120.95794259746,2789.39460913354
2125.67698713584,2789.40460913354
2125.60076412768,2789.41460913354
2118.83129037049,2789.42460913354
2108.86031507839,2789.43460913354
2064.12491571413,2789.44460913354
1999.8900527781,2789.45460913354
1941.93700187409,2789.46460913354
1882.1627542951,2789.47460913354
1856.73267681537,2789.48460913354
1872.65265556808,2789.49460913354
1886.79690030034,2789.50460913354
1896.08625158792,2789.51460913354
1901.34201722596,2789.52460913354
1898.767436172,2789.53460913354
1903.97146061477,2789.54460913354
1924.96223015034,2789.55460913354
1962.76183983738,2789.56460913354
1991.13482302481,2789.57460913354
2021.3292345159,2789.58460913354
2038.30219649443,2789.59460913354
2063.64510278586,2789.60460913354
2056.26483611802,2789.61460913354
2033.7791928783,2789.62460913354
2016.16702305165,2789.63460913354
2000.18610499128,2789.64460913354
2020.59836117302,2789.65460913354
2039.1268673502,2789.66460913354
2062.1246981257,2789.67460913354
2061.91903853137,2789.68460913354
2073.91686319065,2789.69460913354
2081.84129436131,2789.70460913354
2097.85558863429,2789.71460913354
2096.328898607,2789.72460913354
2074.01095820259,2789.73460913354
2033.31924850999,2789.74460913354
1994.72732505055,2789.75460913354
1954.6963096077,2789.76460913354
1942.36672718372,2789.77460913354
1960.80785682404,2789.78460913354
1992.67817270272,2789.79460913354
2004.26456610438,2789.80460913354
2001.70269122171,2789.81460913354
2008.05209547039,2789.82460913354
2031.55416879289,2789.83460913354
2032.75788699989,2789.84460913354
2033.72579086381,2789.85460913354
2028.15865297789,2789.86460913354
2004.11217138157,2789.87460913354
2003.42507033217,2789.88460913354
2002.0341069547,2789.89460913354
2019.96742711018,2789.90460913354
2062.31532023016,2789.91460913354
2099.85363545099,2789.92460913354
2140.82558176377,2789.93460913354
2164.01833276138,2789.94460913354
2178.14586054979,2789.95460913354
2177.23655911612,2789.96460913354
2146.60094060678,2789.97460913354
2123.83356100493,2789.98460913354
2104.07293898957,2789.99460913354
2078.13359337369,2790.00460913354
2064.61107667936,2790.01460913354
2064.70092534729,2790.02460913354
2096.59324889394,2790.03460913354
2107.1835365772,2790.04460913354
2107.64422555805,2790.05460913354
2101.80592414343,2790.06460913354
2090.31003883108,2790.07460913354
2080.81105512995,2790.08460913354
2074.25220309173,2790.09460913354
2083.1008789209,2790.10460913354
2118.16647146792,2790.11460913354
2189.23080270229,2790.12460913354
2284.29551169765,2790.13460913354
2378.93467558626,2790.14460913354
2452.23344739791,2790.15460913354
2518.48448150725,2790.16460913354
2599.65021919913,2790.17460913354
2678.29756282303,2790.18460913354
2747.70769427305,2790.19460913354
2794.13677630136,2790.20460913354
2844.78056231977,2790.21460913354
2870.07000204503,2790.22460913354
2906.19500427274,2790.23460913354
2936.4736506387,2790.24460913354
2948.55108713585,2790.25460913354
2946.40832204302,2790.26460913354
2947.76910918526,2790.27460913354
2946.61999894399,2790.28460913354
2959.73168989287,2790.29460913354
2962.57169367663,2790.30460913354
2961.94804045291,2790.31460913354
2961.99549606323,2790.32460913354
2962.42775883892,2790.33460913354
2946.15555389639,2790.34460913354
2901.38057244293,2790.35460913354
2862.72796188246,2790.36460913354
2845.96691594567,2790.37460913354
2843.61382774337,2790.38460913354
2844.1031801853,2790.39460913354
2843.94454852576,2790.40460913354
2843.90060372182,2790.41460913354
2843.99916275826,2790.42460913354
2831.79143336477,2790.43460913354
2827.76737611203,2790.44460913354
2819.0631337516,2790.45460913354
2808.55920151223,2790.46460913354
2799.76434694181,2790.47460913354
2799.25055551033,2790.48460913354
2804.9868799637,2790.49460913354
2827.38777053706,2790.50460913354
2832.96078916774,2790.51460913354
2862.83888380799,2790.52460913354
2886.59292208989,2790.53460913354
2888.45331912452,2790.54460913354
2887.57893081141,2790.55460913354
2889.04659033742,2790.56460913354
2883.1702633152,2790.57460913354
2860.73577555118,2790.58460913354
2846.76887823416,2790.59460913354
2839.58540220939,2790.60460913354
2810.95392041968,2790.61460913354
2787.2008549802,2790.62460913354
2768.35789270757,2790.63460913354
2749.61140297495,2790.64460913354
2739.65396350687,2790.65460913354
2769.56434845006,2790.66460913354
2815.4416998113,2790.67460913354
2839.78151953292,2790.68460913354
2877.82104546365,2790.69460913354
2901.89479301633,2790.70460913354
2899.57434548586,2790.71460913354
2866.90519001099,2790.72460913354
2808.68297543014,2790.73460913354
2750.6240012449,2790.74460913354
2677.60656416691,2790.75460913354
2621.03185961193,2790.76460913354
2589.4721256075,2790.77460913354
2553.90380078891,2790.78460913354
2519.72353488843,2790.79460913354
2474.52166852612,2790.80460913354
2426.78729279989,2790.81460913354
2376.51159305112,2790.82460913354
2354.28023477935,2790.83460913354
2362.84988300586,2790.84460913354
2384.61129993009,2790.85460913354
2402.88945412897,2790.86460913354
2426.92406211412,2790.87460913354
2453.10609302893,2790.88460913354
2457.70505640547,2790.89460913354
2426.57304471816,2790.90460913354
2380.6145182835,2790.91460913354
2337.43163425819,2790.92460913354
2304.47254058195,2790.93460913354
2287.81199597354,2790.94460913354
2266.0713598907,2790.95460913354
2248.31467061818,2790.96460913354
2222.13502974882,2790.97460913354
2195.13694497748,2790.98460913354
2199.6638918424,2790.99460913354
2212.05994482881,2791.00460913354
2204.00853359693,2791.01460913354
2182.23389264926,2791.02460913354
2178.58164956354,2791.03460913354
2197.07283644232,2791.04460913354
2227.9156442984,2791.05460913354
2268.81232968026,2791.06460913354
2291.14967517799,2791.07460913354
2309.58619193796,2791.08460913354
2318.51492652087,2791.09460913354
2329.57993666718,2791.10460913354
2326.27911761771,2791.11460913354
2345.67834562195,2791.12460913354
2358.49625477425,2791.13460913354
2356.49855451064,2791.14460913354
2356.97546584064,2791.15460913354
2360.79083889764,2791.16460913354
2378.89725630493,2791.17460913354
2399.15576562282,2791.18460913354
2404.01972518107,2791.19460913354
2396.18192191449,2791.20460913354
2386.57992198549,2791.21460913354
2374.77552389114,2791.22460913354
2371.96499091261,2791.23460913354
2367.95485378471,2791.24460913354
2351.7733787102,2791.25460913354
2334.45113780671,2791.26460913354
2288.28264409839,2791.27460913354
2243.00297374394,2791.28460913354
2222.92757300615,2791.29460913354
2202.0765221849,2791.30460913354
2175.59720210325,2791.31460913354
2156.1258852979,2791.32460913354
2160.46041756325,2791.33460913354
2186.97274098817,2791.34460913354
2221.93189806651,2791.35460913354
2255.54271678418,2791.36460913354
2303.4672063203,2791.37460913354
2374.68107665245,2791.38460913354
2466.75077240189,2791.39460913354
2558.34123847771,2791.40460913354
2647.15143672072,2791.41460913354
2718.88690754064,2791.42460913354
2772.36420544106,2791.43460913354
2786.5408931058,2791.44460913354
2785.02666947532,2791.45460913354
2784.55955029216,2791.46460913354
2787.07042765661,2791.47460913354
2775.40978132181,2791.48460913354
2750.06903488937,2791.49460913354
2723.1855345567,2791.50460913354
2709.48137261373,2791.51460913354
2711.36777771496,2791.52460913354
2711.52842136967,2791.53460913354
2721.09143277809,2791.54460913354
2737.50965215322,2791.55460913354
2757.35135227518,2791.56460913354
2767.6519837783,2791.57460913354
2766.44225294601,2791.58460913354
2754.23785956603,2791.59460913354
2757.2484370294,2791.60460913354
2755.26097777644,2791.61460913354
2756.77729264337,2791.62460913354
2743.43835787098,2791.63460913354
2725.76711231325,2791.64460913354
2695.21173199933,2791.65460913354
2644.13638172468,2791.66460913354
2587.0543949893,2791.67460913354
2532.81237942973,2791.68460913354
2489.1350181596,2791.69460913354
2461.1171497139,2791.70460913354
2449.65237127557,2791.71460913354
2443.69543814933,2791.72460913354
2451.97106382113,2791.73460913354
2461.58533632313,2791.74460913354
2472.15603022504,2791.75460913354
2475.87896301214,2791.76460913354
2474.38897707793,2791.77460913354
2464.13201217532,2791.78460913354
2420.32139292563,2791.79460913354
2353.33269443553,2791.80460913354
2304.28291545644,2791.81460913354
2264.03010265987,2791.82460913354
2253.88675345013,2791.83460913354
2252.54781119561,2791.84460913354
2272.20217407682,2791.85460913354
2295.39347732022,2791.86460913354
2319.59704917593,2791.87460913354
2350.90137183912,2791.88460913354
2356.92449168844,2791.89460913354
2368.83127692609,2791.90460913354
2386.49560963572,2791.91460913354
2381.543101821,2791.92460913354
2372.47032961772,2791.93460913354
2363.54938256678,2791.94460913354
2323.57114518044,2791.95460913354
2284.71537853326,2791.96460913354
2237.08286931106,2791.97460913354
2199.57967788819,2791.98460913354
2178.19752393503,2791.99460913354
2158.95614391491,2792.00460913354
2150.96301291104,2792.01460913354
2138.30135450664,2792.02460913354
2135.72227820671,2792.03460913354
2123.49572191077,2792.04460913354
2120.76284078477,2792.05460913354
2120.17304977993,2792.06460913354
2126.15561000322,2792.07460913354
2137.04898717441,2792.08460913354
2135.98662577878,2792.09460913354
2132.13850051253,2792.10460913354
2114.97112076291,2792.11460913354
2091.11312693587,2792.12460913354
2067.42229012096,2792.13460913354
2033.28401837848,2792.14460913354
2008.81246677421,2792.15460913354
2000.6751536353,2792.16460913354
2005.08295964828,2792.17460913354
2000.2068035673,2792.18460913354
2022.36320471366,2792.19460913354
2031.90306657649,2792.20460913354
2051.68485434326,2792.21460913354
2063.53027901704,2792.22460913354
2062.78381023714,2792.23460913354
2043.95564300113,2792.24460913354
2030.21080693137,2792.25460913354
2022.2425357923,2792.26460913354
2003.88390588223,2792.27460913354
2006.36287978147,2792.28460913354
2026.78665319271,2792.29460913354
2061.60967065569,2792.30460913354
2077.93800937125,2792.31460913354
2111.39457300694,2792.32460913354
2121.74003667295,2792.33460913354
2132.85452641513,2792.34460913354
2149.48619017037,2792.35460913354
2150.77251725106,2792.36460913354
2155.10445710629,2792.37460913354
2172.37003231271,2792.38460913354
2180.41732833386,2792.39460913354
2192.02235349359,2792.40460913354
2184.6244584224,2792.41460913354
2159.33354057595,2792.42460913354
2111.3883214466,2792.43460913354
2086.53153820646,2792.44460913354
2059.20922238565,2792.45460913354
2031.89246762277,2792.46460913354
2021.63254240773,2792.47460913354
2004.32945747336,2792.48460913354
2015.10468828678,2792.49460913354
2018.93568983047,2792.50460913354
2016.80776041319,2792.51460913354
2022.89497696838,2792.52460913354
2035.0295063218,2792.53460913354
2027.39485992119,2792.54460913354
2016.81653501713,2792.55460913354
2018.72348233357,2792.56460913354
2005.10151051919,2792.57460913354
2002.7707000878,2792.58460913354
2002.27319987544,2792.59460913354
1996.07431439001,2792.60460913354
2003.42987839655,2792.61460913354
2002.26942270014,2792.62460913354
2006.57970012319,2792.63460913354
2037.86841114907,2792.64460913354
2082.57406221454,2792.65460913354
2107.87734298287,2792.66460913354
2143.78030248517,2792.67460913354
2188.60549260603,2792.68460913354
2256.32974550886,2792.69460913354
2333.38235283126,2792.70460913354
2411.22983004335,2792.71460913354
2491.5703093424,2792.72460913354
2556.02709034746,2792.73460913354
2602.62151421371,2792.74460913354
2629.42279031858,2792.75460913354
2643.46935516652,2792.76460913354
2652.89112183967,2792.77460913354
2641.43025580594,2792.78460913354
2632.16074785004,2792.79460913354
2598.9475049668,2792.80460913354
2563.17843273304,2792.81460913354
2532.06402745134,2792.82460913354
2497.02084026553,2792.83460913354
2468.15639142661,2792.84460913354
2448.04698045945,2792.85460913354
2434.7714882721,2792.86460913354
2409.34584985983,2792.87460913354
2376.051649814,2792.88460913354
2345.8330811395,2792.89460913354
2311.20958860533,2792.90460913354
2274.54245379543,2792.91460913354
2239.87206727212,2792.92460913354
2214.71684349011,2792.93460913354
2198.11369607057,2792.94460913354
2169.55440188889,2792.95460913354
2112.68162054332,2792.96460913354
2098.76938824625,2792.97460913354
2053.55832782202,2792.98460913354
2026.84357128005,2792.99460913354
2053.36664427489,2793.00460913354
2078.41242552445,2793.01460913354
2103.53969199909,2793.02460913354
2122.4082609548,2793.03460913354
2120.26262374296,2793.04460913354
2121.52004384879,2793.05460913354
2132.30137666586,2793.06460913354
2141.58613025462,2793.07460913354
2152.75508231137,2793.08460913354
2145.6092209838,2793.09460913354
2134.53615079322,2793.10460913354
2140.54445285475,2793.11460913354
2168.92269218515,2793.12460913354
2181.7143982031,2793.13460913354
2178.26966688835,2793.14460913354
2162.06829303645,2793.15460913354
2140.82684509636,2793.16460913354
2149.95586868869,2793.17460913354
2190.8154509644,2793.18460913354
2234.44633688793,2793.19460913354
2268.88199330119,2793.20460913354
2290.82486066462,2793.21460913354
2298.81900617015,2793.22460913354
2282.4383138347,2793.23460913354
2250.28640048755,2793.24460913354
2234.07501097053,2793.25460913354
2207.53562602169,2793.26460913354
2169.01984907707,2793.27460913354
2166.67479085721,2793.28460913354
2160.86304585031,2793.29460913354
2150.09641130795,2793.30460913354
2147.71228236828,2793.31460913354
2117.07901930876,2793.32460913354
2091.23539058206,2793.33460913354
2047.3600462226,2793.34460913354
1994.16961664072,2793.35460913354
1975.65014145851,2793.36460913354
2000.13517890712,2793.37460913354
2043.29829820145,2793.38460913354
2063.37204892145,2793.39460913354
2073.43930009569,2793.40460913354
2078.42886808694,2793.41460913354
2075.85884115293,2793.42460913354
2102.10390436235,2793.43460913354
2096.07522248395,2793.44460913354
2089.85412349243,2793.45460913354
2097.54403016484,2793.46460913354
2108.24844916491,2793.47460913354
2105.93809072521,2793.48460913354
2119.5081648645,2793.49460913354
2120.27354919437,2793.50460913354
2150.00052592461,2793.51460913354
2184.49465637516,2793.52460913354
2212.26705280257,2793.53460913354
2242.59803115602,2793.54460913354
2271.86763689393,2793.55460913354
2286.78998758566,2793.56460913354
2277.77752175892,2793.57460913354
2268.51668378207,2793.58460913354
2256.98315440607,2793.59460913354
2265.11049411199,2793.60460913354
2282.79337861959,2793.61460913354
2283.4741201366,2793.62460913354
2299.03815356795,2793.63460913354
2324.31872376718,2793.64460913354
2360.32343009828,2793.65460913354
2389.98778507503,2793.66460913354
2431.05434997832,2793.67460913354
2465.48374130324,2793.68460913354
2487.10991498912,2793.69460913354
2495.55122944655,2793.70460913354
2506.21316988058,2793.71460913354
2516.02219718482,2793.72460913354
2525.74125964793,2793.73460913354
2546.90590859494,2793.74460913354
2549.89947657762,2793.75460913354
2571.90733833467,2793.76460913354
2601.23171314213,2793.77460913354
2642.84985426727,2793.78460913354
2676.03328634662,2793.79460913354
2689.08750073136,2793.80460913354
2693.22801850752,2793.81460913354
2675.81419777867,2793.82460913354
2650.58337444843,2793.83460913354
2618.69717998673,2793.84460913354
2606.57564114394,2793.85460913354
2611.74102442579,2793.86460913354
2633.1339529051,2793.87460913354
2670.12568910503,2793.88460913354
2714.29720293486,2793.89460913354
2782.19107250545,2793.90460913354
2850.2281379213,2793.91460913354
2901.11427917344,2793.92460913354
2969.68420818885,2793.93460913354
3013.3112286066,2793.94460913354
3075.96735463649,2793.95460913354
3134.98269219895,2793.96460913354
3172.22551706156,2793.97460913354
3197.14603828392,2793.98460913354
3197.88180584435,2793.99460913354
3198.62815321046,2794.00460913354
3185.42940348401,2794.01460913354
3171.46466614336,2794.02460913354
3143.94986706421,2794.03460913354
3137.97261931745,2794.04460913354
3139.57719530264,2794.05460913354
3139.15795618026,2794.06460913354
3135.35469687959,2794.07460913354
3105.98226475901,2794.08460913354
3081.77344343401,2794.09460913354
3067.72074940157,2794.10460913354
3061.33709695884,2794.11460913354
3040.65605519465,2794.12460913354
3002.55704229758,2794.13460913354
2974.82227288558,2794.14460913354
2928.69438073234,2794.15460913354
2865.85930121196,2794.16460913354
2826.22871304319,2794.17460913354
2783.75849888374,2794.18460913354
2757.38488540267,2794.19460913354
2751.08931228477,2794.20460913354
2739.48542358214,2794.21460913354
2741.75356594699,2794.22460913354
2725.41444038224,2794.23460913354
2698.59962681763,2794.24460913354
2681.78842841846,2794.25460913354
2677.00841172978,2794.26460913354
2654.26182502727,2794.27460913354
2647.00845527967,2794.28460913354
2637.11135343654,2794.29460913354
2638.02515669758,2794.30460913354
2638.75801323561,2794.31460913354
2633.14128009376,2794.32460913354
2618.1000574017,2794.33460913354
2589.50417225118,2794.34460913354
2566.61993549065,2794.35460913354
2546.10142319626,2794.36460913354
2532.58392999318,2794.37460913354
2545.97680775628,2794.38460913354
2566.7279184574,2794.39460913354
2591.95465728788,2794.40460913354
2593.50164625046,2794.41460913354
2577.03351413443,2794.42460913354
2536.96928173289,2794.43460913354
2522.97799496203,2794.44460913354
2518.16027641537,2794.45460913354
2549.43916948853,2794.46460913354
2589.8796669675,2794.47460913354
2609.24412348757,2794.48460913354
2631.64126643845,2794.49460913354
2629.53643948331,2794.50460913354
2573.24093700637,2794.51460913354
2513.72763354492,2794.52460913354
2443.18624657656,2794.53460913354
2367.17216084788,2794.54460913354
2311.63319318125,2794.55460913354
2267.94236604719,2794.56460913354
2236.09531729824,2794.57460913354
2194.48969521106,2794.58460913354
2162.60894956506,2794.59460913354
2129.2107203501,2794.60460913354
2094.64219932053,2794.61460913354
2062.14328422562,2794.62460913354
2071.42185184807,2794.63460913354
2080.96688283213,2794.64460913354
2102.98636190902,2794.65460913354
2122.37878479557,2794.66460913354
2120.8176290302,2794.67460913354
2108.78755934499,2794.68460913354
2111.17024973376,2794.69460913354
2122.25327555843,2794.70460913354
2120.75961091582,2794.71460913354
2120.60427246133,2794.72460913354
2122.38945063973,2794.73460913354
2103.75984494764,2794.74460913354
2079.28590264035,2794.75460913354
2071.30967404847,2794.76460913354
2061.97166512797,2794.77460913354
2057.52366773127,2794.78460913354
2032.36798261341,2794.79460913354
2033.20513321721,2794.80460913354
2033.25984148457,2794.81460913354
2032.31291221046,2794.82460913354
2057.75456425842,2794.83460913354
2073.45692884576,2794.84460913354
2087.42572936001,2794.85460913354
2097.41723648842,2794.86460913354
2077.23460140862,2794.87460913354
2066.54082573964,2794.88460913354
2043.48615317688,2794.89460913354
2025.79894887983,2794.90460913354
2017.83516882135,2794.91460913354
2005.65572160024,2794.92460913354
2002.28345618624,2794.93460913354
2015.25424151538,2794.94460913354
2019.22430917783,2794.95460913354
2028.03682529891,2794.96460913354
2043.727320023,2794.97460913354
2063.88562960411,2794.98460913354
2064.00117964537,2794.99460913354
2100.92191804095,2795.00460913354
2138.82140142116,2795.01460913354
2170.16913850379,2795.02460913354
2176.87405924751,2795.03460913354
2160.17357812249,2795.04460913354
2133.39029473169,2795.05460913354
2118.37143534361,2795.06460913354
2126.29360925239,2795.07460913354
2153.05204840043,2795.08460913354
2183.89153465373,2795.09460913354
2208.44617427086,2795.10460913354
2224.47108790075,2795.11460913354
2266.69484527808,2795.12460913354
2325.3437413802,2795.13460913354
2399.17293084836,2795.14460913354
2462.35832219972,2795.15460913354
2509.00770526525,2795.16460913354
2558.67686603264,2795.17460913354
2612.92802846834,2795.18460913354
2685.93229795368,2795.19460913354
2746.99046499708,2795.20460913354
2793.95430636655,2795.21460913354
2822.64000630042,2795.22460913354
2828.17172567182,2795.23460913354
2846.50935289248,2795.24460913354
2861.60518895106,2795.25460913354
2869.01358009336,2795.26460913354
2881.43167728046,2795.27460913354
2883.53607761623,2795.28460913354
2872.82075892905,2795.29460913354
2851.25752876249,2795.30460913354
2833.78844063368,2795.31460913354
2807.78879397536,2795.32460913354
2800.42070648395,2795.33460913354
2786.61270259112,2795.34460913354
2774.56229708336,2795.35460913354
2747.22887219011,2795.36460913354
2711.98000055574,2795.37460913354
2695.23769199175,2795.38460913354
2679.33124884076,2795.39460913354
2695.87815106428,2795.40460913354
2696.54755542306,2795.41460913354
2697.84058431719,2795.42460913354
2680.40213651024,2795.43460913354
2636.82299037397,2795.44460913354
2604.60392486927,2795.45460913354
2564.26505687281,2795.46460913354
2537.9279238684,2795.47460913354
2513.54464408581,2795.48460913354
2504.051645381,2795.49460913354
2505.6474295093,2795.50460913354
2503.99614378477,2795.51460913354
2506.27365415514,2795.52460913354
2502.45975592001,2795.53460913354
2515.51462401878,2795.54460913354
2535.50137089197,2795.55460913354
2537.20071946157,2795.56460913354
2555.94661806072,2795.57460913354
2576.64817062803,2795.58460913354
2590.94292098434,2795.59460913354
2594.24761264553,2795.60460913354
2588.37948664726,2795.61460913354
2550.42187676011,2795.62460913354
2498.31538870292,2795.63460913354
2456.82456879003,2795.64460913354
2428.16361388253,2795.65460913354
2413.89944781303,2795.66460913354
2417.8312736644,2795.67460913354
2399.27382288671,2795.68460913354
2372.36880041561,2795.69460913354
2350.29389548268,2795.70460913354
2307.5456049794,2795.71460913354
2264.36187143198,2795.72460913354
2237.23347238576,2795.73460913354
2218.26737160993,2795.74460913354
2197.16150579064,2795.75460913354
2171.7903630978,2795.76460913354
2156.0761379489,2795.77460913354
2116.06686232254,2795.78460913354
2083.83216649505,2795.79460913354
2048.84447726913,2795.80460913354
2012.197302991,2795.81460913354
1991.39224336601,2795.82460913354
1975.74014489738,2795.83460913354
1973.86242873496,2795.84460913354
1973.598359717,2795.85460913354
1974.73339789568,2795.86460913354
1969.42822276051,2795.87460913354
1965.38731834224,2795.88460913354
1955.00157504415,2795.89460913354
1937.56852742472,2795.90460913354
1929.81662154142,2795.91460913354
1929.61492559202,2795.92460913354
1945.04621256306,2795.93460913354
1967.2306669432,2795.94460913354
1995.18805654894,2795.95460913354
2015.93627043655,2795.96460913354
2033.12448708461,2795.97460913354
2058.23582140789,2795.98460913354
2057.70923424228,2795.99460913354
2033.48632825043,2796.00460913354
2015.72998610019,2796.01460913354
2001.74450572318,2796.02460913354
1988.10283017259,2796.03460913354
1967.34947208117,2796.04460913354
1953.99352517161,2796.05460913354
1942.64651380789,2796.06460913354
1944.70883953201,2796.07460913354
1943.51071608203,2796.08460913354
1933.35881331306,2796.09460913354
1924.76433964743,2796.10460913354
1912.74391056657,2796.11460913354
1921.40852956181,2796.12460913354
1926.52161506508,2796.13460913354
1908.76750312084,2796.14460913354
1883.69812784786,2796.15460913354
1851.7028716676,2796.16460913354
1828.14482767599,2796.17460913354
1821.93084388002,2796.18460913354
1805.77766830376,2796.19460913354
1796.27226827363,2796.20460913354
1797.23843765914,2796.21460913354
1784.7079994447,2796.22460913354
1768.45846104306,2796.23460913354
1747.06921165349,2796.24460913354
1733.65228933022,2796.25460913354
1749.6650860156,2796.26460913354
1777.78506397214,2796.27460913354
1782.69288237791,2796.28460913354
1769.71003927306,2796.29460913354
1754.16444654461,2796.30460913354
1757.01722531423,2796.31460913354
1780.80786149813,2796.32460913354
1781.52889945487,2796.33460913354
1782.61552087531,2796.34460913354
1765.47488708103,2796.35460913354
1737.14620218783,2796.36460913354
1746.44303726816,2796.37460913354
1769.84304830816,2796.38460913354
1825.00517588649,2796.39460913354
1903.12316209987,2796.40460913354
1967.12117851397,2796.41460913354
2017.30373763677,2796.42460913354
2072.52686643379,2796.43460913354
2143.32792698652,2796.44460913354
2200.95529037621,2796.45460913354
2259.5013193416,2796.46460913354
2336.15221555306,2796.47460913354
2409.72347043508,2796.48460913354
2468.98577932658,2796.49460913354
2548.97289842476,2796.50460913354
2608.47182523917,2796.51460913354
2647.31164478982,2796.52460913354
2669.30139966454,2796.53460913354
2666.39361639509,2796.54460913354
2655.47346176757,2796.55460913354
2651.20597379688,2796.56460913354
2652.68864627028,2796.57460913354
2652.13863676027,2796.58460913354
2637.55859544681,2796.59460913354
2599.38593069407,2796.60460913354
2548.82440058551,2796.61460913354
2512.12224773807,2796.62460913354
2478.52695476359,2796.63460913354
2443.14746813797,2796.64460913354
2413.03985156015,2796.65460913354
2384.50775494611,2796.66460913354
2353.18240981458,2796.67460913354
2317.81283281746,2796.68460913354
2287.39406404447,2796.69460913354
2272.48859723374,2796.70460913354
2259.30828410403,2796.71460913354
2240.43575153923,2796.72460913354
2218.4757463455,2796.73460913354
2198.0237688386,2796.74460913354
2176.98750324727,2796.75460913354
2164.94020217109,2796.76460913354
2176.39871106318,2796.77460913354
2201.70446731028,2796.78460913354
2233.16452223666,2796.79460913354
2249.85815051381,2796.80460913354
2271.99185266374,2796.81460913354
2300.83884237207,2796.82460913354
2331.72479626857,2796.83460913354
2355.90645375009,2796.84460913354
2369.20948279529,2796.85460913354
2385.27963321495,2796.86460913354
2387.32149325712,2796.87460913354
2386.99218788418,2796.88460913354
2375.17970235887,2796.89460913354
2370.68432303061,2796.90460913354
2373.815155836,2796.91460913354
2366.1853329736,2796.92460913354
2345.22352908957,2796.93460913354
2317.64182907138,2796.94460913354
2312.66989256712,2796.95460913354
2308.51108541539,2796.96460913354
2273.14119318023,2796.97460913354
2252.13559372784,2796.98460913354
2220.68257603571,2796.99460913354
2208.67555552613,2797.00460913354
2211.37821560946,2797.01460913354
2216.75837980423,2797.02460913354
2209.89544909783,2797.03460913354
2209.68458840139,2797.04460913354
2198.85507563953,2797.05460913354
2188.8219647407,2797.06460913354
2179.71134023958,2797.07460913354
2164.89632154446,2797.08460913354
2131.52685546199,2797.09460913354
2116.81414987212,2797.10460913354
2100.25539226579,2797.11460913354
2092.21144934551,2797.12460913354
2075.08775389086,2797.13460913354
2058.75744423956,2797.14460913354
2067.85433350262,2797.15460913354
2080.95431929209,2797.16460913354
2114.00900486731,2797.17460913354
2156.11064710586,2797.18460913354
2177.46599683593,2797.19460913354
2196.59518636049,2797.20460913354
2232.33672302313,2797.21460913354
2289.75434154129,2797.22460913354
2344.90649624321,2797.23460913354
2374.29511215856,2797.24460913354
2406.28953523165,2797.25460913354
2416.10406619456,2797.26460913354
2420.62161830971,2797.27460913354
2421.11466212497,2797.28460913354
2409.70287816927,2797.29460913354
2390.02951457486,2797.30460913354
2381.99423179279,2797.31460913354
2369.62557402457,2797.32460913354
2378.31871640922,2797.33460913354
2386.57574619989,2797.34460913354
2392.14800218261,2797.35460913354
2413.82929709198,2797.36460913354
2421.05347185344,2797.37460913354
2432.39617616128,2797.38460913354
2430.22212857722,2797.39460913354
2443.61407952022,2797.40460913354
2446.77438475022,2797.41460913354
2445.207655848,2797.42460913354
2462.12830671826,2797.43460913354
2482.1965929418,2797.44460913354
2489.75924644694,2797.45460913354
2478.93501286652,2797.46460913354
2468.82914412711,2797.47460913354
2460.99940137748,2797.48460913354
2447.72904598074,2797.49460913354
2450.35664644941,2797.50460913354
2462.37153046644,2797.51460913354
2463.1209818492,2797.52460913354
2486.28647660039,2797.53460913354
2522.83227635782,2797.54460913354
2563.96747716618,2797.55460913354
2621.45826300982,2797.56460913354
2668.59823525095,2797.57460913354
2697.02535722913,2797.58460913354
2688.5970960141,2797.59460913354
2654.60667517219,2797.60460913354
2636.4694472944,2797.61460913354
2641.77188003656,2797.62460913354
2673.6386188471,2797.63460913354
2720.50549268031,2797.64460913354
2762.56782226916,2797.65460913354
2824.95298950708,2797.66460913354
2899.63381219021,2797.67460913354
2973.64124010147,2797.68460913354
3054.7637252631,2797.69460913354
3116.53441607971,2797.70460913354
3159.0823584709,2797.71460913354
3181.31463073717,2797.72460913354
3172.40056744286,2797.73460913354
3143.92518948468,2797.74460913354
3134.76292291195,2797.75460913354
3114.23893095676,2797.76460913354
3088.48484739333,2797.77460913354
3075.90539382206,2797.78460913354
3058.6074239722,2797.79460913354
3039.3664844759,2797.80460913354
3018.13331158605,2797.81460913354
2992.69436251981,2797.82460913354
2980.65661746643,2797.83460913354
2971.60237104024,2797.84460913354
2957.08162934457,2797.85460913354
2941.27165145606,2797.86460913354
2920.43684032163,2797.87460913354
2901.83366086099,2797.88460913354
2865.37228793212,2797.89460913354
2813.53645126665,2797.90460913354
2781.81332621053,2797.91460913354
2752.70530281418,2797.92460913354
2723.31894734159,2797.93460913354
2704.39063273982,2797.94460913354
2685.13733182684,2797.95460913354
2664.53316905538,2797.96460913354
2645.85875213494,2797.97460913354
2625.10873167298,2797.98460913354
2634.63565558818,2797.99460913354
2639.29721113757,2798.00460913354
2648.13865881479,2798.01460913354
2654.51417674184,2798.02460913354
2634.25958127107,2798.03460913354
2622.29760324639,2798.04460913354
2619.08900624322,2798.05460913354
2590.16239949182,2798.06460913354
2560.97306461881,2798.07460913354
2531.5254917349,2798.08460913354
2501.34779997079,2798.09460913354
2488.4261552221,2798.10460913354
2506.02611252009,2798.11460913354
2543.11330774373,2798.12460913354
2593.64441404577,2798.13460913354
2639.60884013131,2798.14460913354
2653.00920463064,2798.15460913354
2641.64652925662,2798.16460913354
2616.10575576262,2798.17460913354
2585.29521423817,2798.18460913354
2564.16870370677,2798.19460913354
2513.08566812646,2798.20460913354
2459.90900833144,2798.21460913354
2426.84629647606,2798.22460913354
2415.0405792448,2798.23460913354
2416.29699770112,2798.24460913354
2428.11501258886,2798.25460913354
2431.63105936467,2798.26460913354
2419.11798420445,2798.27460913354
2410.83815468846,2798.28460913354
2400.82780342345,2798.29460913354
2390.81323855273,2798.30460913354
2357.98403529663,2798.31460913354
2320.00138402895,2798.32460913354
2275.27644175554,2798.33460913354
2246.24533706427,2798.34460913354
2228.61745209455,2798.35460913354
2218.6407875432,2798.36460913354
2210.06116756145,2798.37460913354
2205.67898442191,2798.38460913354
2189.40667832706,2798.39460913354
2174.64507392645,2798.40460913354
2164.67320763589,2798.41460913354
2143.11040692511,2798.42460913354
2128.48025881551,2798.43460913354
2121.52899070816,2798.44460913354
2119.73351827878,2798.45460913354
2135.07093217489,2798.46460913354
2118.69433285383,2798.47460913354
2105.8986661905,2798.48460913354
2106.13767910834,2798.49460913354
2127.23907185038,2798.50460913354
2159.77771992527,2798.51460913354
2176.5350091835,2798.52460913354
2194.16165414684,2798.53460913354
2190.93704096615,2798.54460913354
2174.19687846126,2798.55460913354
2162.04870246506,2798.56460913354
2143.79084832087,2798.57460913354
2137.3747146163,2798.58460913354
2126.78506792979,2798.59460913354
2100.12757777496,2798.60460913354
2064.13229535019,2798.61460913354
2024.39632811317,2798.62460913354
2023.21704232338,2798.63460913354
2049.03304139,2798.64460913354
2088.71815469457,2798.65460913354
2102.55197753601,2798.66460913354
2091.93300943414,2798.67460913354
2074.46759006034,2798.68460913354
2061.50355659801,2798.69460913354
2044.82654113154,2798.70460913354
2029.51043660344,2798.71460913354
2035.10926846199,2798.72460913354
2019.26107548503,2798.73460913354
2018.25772756815,2798.74460913354
2005.35835804318,2798.75460913354
2002.31410072251,2798.76460913354
1991.8859840326,2798.77460913354
1987.73557957987,2798.78460913354
2000.98572191287,2798.79460913354
2003.24070526853,2798.80460913354
2027.0084282876,2798.81460913354
2070.17989488476,2798.82460913354
2082.13205576558,2798.83460913354
2109.65999328237,2798.84460913354
2149.79704178154,2798.85460913354
2201.93111733749,2798.86460913354
2254.55793695837,2798.87460913354
2303.58321899806,2798.88460913354
2351.08976644449,2798.89460913354
2408.13457540239,2798.90460913354
2461.34356606148,2798.91460913354
2510.35330035932,2798.92460913354
2553.65908392241,2798.93460913354
2592.88133420367,2798.94460913354
2626.89928305739,2798.95460913354
2655.41083912931,2798.96460913354
2695.82891874261,2798.97460913354
2747.64600570061,2798.98460913354
2785.21248873428,2798.99460913354
2796.73274606102,2799.00460913354
2801.59196922278,2799.01460913354
2798.8398749119,2799.02460913354
2804.9666031953,2799.03460913354
2832.17080293241,2799.04460913354
2858.9332461345,2799.05460913354
2854.6044165786,2799.06460913354
2835.63505746655,2799.07460913354
2778.4384321158,2799.08460913354
2726.22621633797,2799.09460913354
2675.0760286404,2799.10460913354
2637.97747310343,2799.11460913354
2614.00782606917,2799.12460913354
2591.24424835129,2799.13460913354
2543.79473250573,2799.14460913354
2500.47335818539,2799.15460913354
2460.54623179238,2799.16460913354
2419.11614292229,2799.17460913354
2391.80323053466,2799.18460913354
2385.66524080843,2799.19460913354
2387.41108981666,2799.20460913354
2387.10173743518,2799.21460913354
2382.96492668262,2799.22460913354
2353.56565363771,2799.23460913354
2317.30871508345,2799.24460913354
2299.65621150181,2799.25460913354
2297.65724223922,2799.26460913354
2298.01961866151,2799.27460913354
2297.87649282713,2799.28460913354
2297.93889397101,2799.29460913354
2297.9474484191,2799.30460913354
2297.87335355164,2799.31460913354
2298.1190094964,2799.32460913354
2297.47214351816,2799.33460913354
2302.28923192861,2799.34460913354
2342.71343421115,2799.35460913354
2364.40516517343,2799.36460913354
2395.76171617712,2799.37460913354
2420.1616719079,2799.38460913354
2432.37167600594,2799.39460913354
2427.33890085636,2799.40460913354
2405.43110083071,2799.41460913354
2357.43672370332,2799.42460913354
2311.16428802924,2799.43460913354
2296.84806223981,2799.44460913354
2297.97034414955,2799.45460913354
2314.53844529096,2799.46460913354
2331.55405191421,2799.47460913354
2321.49399921244,2799.48460913354
2297.90906132599,2799.49460913354
2247.77133505292,2799.50460913354
2206.65980734492,2799.51460913354
2161.33033851251,2799.52460913354
2103.97935415148,2799.53460913354
2075.37801685516,2799.54460913354
2042.85299307948,2799.55460913354
2023.22096202914,2799.56460913354
1991.42590344151,2799.57460913354
1956.6722056629,2799.58460913354
1913.23445969256,2799.59460913354
1872.3084181289,2799.60460913354
1827.1201435076,2799.61460913354
1785.9253711521,2799.62460913354
1731.63823499653,2799.63460913354
1701.79351073803,2799.64460913354
1684.07962774457,2799.65460913354
1660.96838625049,2799.66460913354
1677.28542645356,2799.67460913354
1682.64305166353,2799.68460913354
1711.91765710245,2799.69460913354
1751.18716945344,2799.70460913354
1791.86898437502,2799.71460913354
1825.26308784806,2799.72460913354
1826.32075985402,2799.73460913354
1825.15203296923,2799.74460913354
1831.24020863269,2799.75460913354
1842.27703962015,2799.76460913354
1840.55594630676,2799.77460913354
1841.51464908646,2799.78460913354
1837.70147034459,2799.79460913354
1803.66703779748,2799.80460913354
1763.31977327041,2799.81460913354
1735.16288756302,2799.82460913354
1708.59373178425,2799.83460913354
1708.44519109163,2799.84460913354
1695.96233958137,2799.85460913354
1693.7254425424,2799.86460913354
1693.47537950687,2799.87460913354
1697.82326111668,2799.88460913354
1713.81775325416,2799.89460913354
1739.67206003431,2799.90460913354
1771.82732406526,2799.91460913354
1806.31648912866,2799.92460913354
1829.98668125292,2799.93460913354
1842.13104552353,2799.94460913354
1841.07794305003,2799.95460913354
1837.22032909066,2799.96460913354
1819.73814773324,2799.97460913354
1799.60670167342,2799.98460913354
1784.09811371209,2799.99460913354
1793.50070440045,2800.00460913354
1786.70571128111,2800.01460913354
1752.05134401857,2800.02460913354
1723.39119567613,2800.03460913354
1723.76277592012,2800.04460913354
1733.61028307774,2800.05460913354
1756.33210130628,2800.06460913354
1767.68974585347,2800.07460913354
1767.06855521043,2800.08460913354
1765.69766614006,2800.09460913354
1772.43697826072,2800.10460913354
1782.08372024619,2800.11460913354
1798.11943842598,2800.12460913354
1829.5476067481,2800.13460913354
1861.58042674991,2800.14460913354
1901.40841436964,2800.15460913354
1952.91611450139,2800.16460913354
2007.48492777239,2800.17460913354
2085.5757943882,2800.18460913354
2181.86667966328,2800.19460913354
2261.79918770925,2800.20460913354
2328.53085445687,2800.21460913354
2368.28483940002,2800.22460913354
2417.35476555167,2800.23460913354
2436.99008968645,2800.24460913354
2463.77152983905,2800.25460913354
2489.09015672867,2800.26460913354
2502.40447015871,2800.27460913354
2518.23856794648,2800.28460913354
2531.95529767917,2800.29460913354
2534.71245431108,2800.30460913354
2534.11636215898,2800.31460913354
2530.65426015182,2800.32460913354
2489.54479855809,2800.33460913354
2457.54822472092,2800.34460913354
2427.75721798795,2800.35460913354
2402.68710284737,2800.36460913354
2378.79209833782,2800.37460913354
2364.61777820646,2800.38460913354
2346.51785165512,2800.39460913354
2324.62492584574,2800.40460913354
2311.53937660882,2800.41460913354
2301.48466749408,2800.42460913354
2296.53091335554,2800.43460913354
2299.27580003633,2800.44460913354
2293.58226675596,2800.45460913354
2278.15218433061,2800.46460913354
2255.77550378314,2800.47460913354
2253.67482674173,2800.48460913354
2254.00114531112,2800.49460913354
2253.88599881701,2800.50460913354
2241.77667763073,2800.51460913354
2226.57277873841,2800.52460913354
2213.00293672855,2800.53460913354
2204.55549070188,2800.54460913354
2196.31064227219,2800.55460913354
2223.03781278655,2800.56460913354
2249.99810907699,2800.57460913354
2289.27459130469,2800.58460913354
2340.09916505192,2800.59460913354
2359.17850020287,2800.60460913354
2374.50699294794,2800.61460913354
2370.38043368579,2800.62460913354
2373.73587452579,2800.63460913354
2366.67478806854,2800.64460913354
2355.70358338576,2800.65460913354
2358.36818526978,2800.66460913354
2355.42063191362,2800.67460913354
2375.00692227534,2800.68460913354
2388.89302382512,2800.69460913354
2398.17696555087,2800.70460913354
2403.99769912544,2800.71460913354
2388.15799710424,2800.72460913354
2376.38632499219,2800.73460913354
2338.44189831987,2800.74460913354
2277.64011491098,2800.75460913354
2214.88067504883,2800.76460913354
2141.82516100357,2800.77460913354
2104.14252245484,2800.78460913354
2072.5133761769,2800.79460913354
2061.40682798165,2800.80460913354
2060.64875109208,2800.81460913354
2071.03160109783,2800.82460913354
2111.19279095697,2800.83460913354
2149.62737608614,2800.84460913354
2198.0835321227,2800.85460913354
2233.71974268646,2800.86460913354
2269.74425182331,2800.87460913354
2297.73016469084,2800.88460913354
2297.70177211148,2800.89460913354
2298.25905891097,2800.90460913354
2286.86699718326,2800.91460913354
2255.53682538793,2800.92460913354
2215.59843599626,2800.93460913354
2176.55810923846,2800.94460913354
2163.79395937812,2800.95460913354
2171.53174915531,2800.96460913354
2180.60273674568,2800.97460913354
2203.52947823213,2800.98460913354
2216.16716133419,2800.99460913354
2226.12983051246,2801.00460913354
2222.97831389032,2801.01460913354
2234.41283134407,2801.02460913354
2245.33601551143,2801.03460913354
2234.19469002657,2801.04460913354
2251.71986765911,2801.05460913354
2280.71329390432,2801.06460913354
2329.51496536245,2801.07460913354
2390.24408907108,2801.08460913354
2418.77116653436,2801.09460913354
2433.43326142116,2801.10460913354
2417.13626910626,2801.11460913354
2405.51413169204,2801.12460913354
2387.43854827667,2801.13460913354
2392.57661074013,2801.14460913354
2402.22569817197,2801.15460913354
2406.28760092431,2801.16460913354
2417.63604078708,2801.17460913354
2427.01515331021,2801.18460913354
2433.3295312512,2801.19460913354
2424.98755739327,2801.20460913354
2404.17639129801,2801.21460913354
2400.73022163624,2801.22460913354
2406.87646370069,2801.23460913354
2417.27198496141,2801.24460913354
2415.08656690805,2801.25460913354
2416.9559594474,2801.26460913354
2414.5211399187,2801.27460913354
2421.52813501276,2801.28460913354
2431.61584541519,2801.29460913354
2419.19709470214,2801.30460913354
2410.42890632725,2801.31460913354
2401.29221115181,2801.32460913354
2401.93077098934,2801.33460913354
2413.2658535254,2801.34460913354
2419.41320645704,2801.35460913354
2442.45813361915,2801.36460913354
2473.49401094917,2801.37460913354
2503.19419695469,2801.38460913354
2554.50608294919,2801.39460913354
2618.38235082694,2801.40460913354
2689.38534529159,2801.41460913354
2733.41770754857,2801.42460913354
2792.01512298976,2801.43460913354
2845.3269072596,2801.44460913354
2892.52699590526,2801.45460913354
2943.86802388906,2801.46460913354
2987.3262200919,2801.47460913354
3009.20202622439,2801.48460913354
3023.79257732872,2801.49460913354
3014.98301927411,2801.50460913354
2994.72598174368,2801.51460913354
2987.14068688928,2801.52460913354
2971.90639982531,2801.53460913354
2956.23054494976,2801.54460913354
2946.04924886135,2801.55460913354
2947.50216996752,2801.56460913354
2935.3945817491,2801.57460913354
2932.22236627515,2801.58460913354
2944.95137727668,2801.59460913354
2947.26210165615,2801.60460913354
2947.23192535497,2801.61460913354
2946.57096759196,2801.62460913354
2947.8838447622,2801.63460913354
2934.27268452312,2801.64460913354
2937.62381573236,2801.65460913354
2948.08819252431,2801.66460913354
2946.97884838312,2801.67460913354
2920.15950611648,2801.68460913354
2867.36982290189,2801.69460913354
2798.00375659874,2801.70460913354
2752.10373564358,2801.71460913354
2719.50608467669,2801.72460913354
2709.70065032711,2801.73460913354
2712.82237771435,2801.74460913354
2690.4130457159,2801.75460913354
2642.79507629484,2801.76460913354
2592.0565197256,2801.77460913354
2564.51476208957,2801.78460913354
2552.42463227056,2801.79460913354
2546.73152876159,2801.80460913354
2554.94651155584,2801.81460913354
2564.50170605966,2801.82460913354
2576.10448271446,2801.83460913354
2579.55615954822,2801.84460913354
2567.20255213489,2801.85460913354
2558.50792926283,2801.86460913354
2533.05471310258,2801.87460913354
2508.29667916348,2801.88460913354
2500.41862765529,2801.89460913354
2519.04389161615,2801.90460913354
2519.66568294846,2801.91460913354
2520.77509995675,2801.92460913354
2515.69179444528,2801.93460913354
2487.04372940523,2801.94460913354
2469.46692155463,2801.95460913354
2444.17709573308,2801.96460913354
2412.08078594631,2801.97460913354
2400.91612676435,2801.98460913354
2390.79614642689,2801.99460913354
2381.57286066288,2802.00460913354
2366.87825713171,2802.01460913354
2351.79964166481,2802.02460913354
2338.19719416072,2802.03460913354
2321.88872989729,2802.04460913354
2312.19910993958,2802.05460913354
2313.38913787657,2802.06460913354
2312.8298640115,2802.07460913354
2325.11118188756,2802.08460913354
2329.53276187233,2802.09460913354
2322.87992204821,2802.10460913354
2296.59815235984,2802.11460913354
2273.13999064801,2802.12460913354
2247.41209176882,2802.13460913354
2238.02895052723,2802.14460913354
2240.53989605057,2802.15460913354
2230.17452646989,2802.16460913354
2190.08709049788,2802.17460913354
2179.37388703265,2802.18460913354
2180.07227650076,2802.19460913354
2180.21928076611,2802.20460913354
2191.51171098273,2802.21460913354
2197.43999991563,2802.22460913354
2188.42400736797,2802.23460913354
2180.87157588989,2802.24460913354
2163.01308279796,2802.25460913354
2149.88056089752,2802.26460913354
2138.49998729761,2802.27460913354
2125.02736664689,2802.28460913354
2110.03356863151,2802.29460913354
2079.37886002787,2802.30460913354
2055.80767250201,2802.31460913354
2024.83384826117,2802.32460913354
2005.90597777119,2802.33460913354
2002.21489403251,2802.34460913354
2003.00762497888,2802.35460913354
2003.77974743404,2802.36460913354
1998.04082241898,2802.37460913354
1976.24569718737,2802.38460913354
1957.33803200403,2802.39460913354
1937.21333990498,2802.40460913354
1929.91533482714,2802.41460913354
1929.88608848505,2802.42460913354
1930.14511625433,2802.43460913354
1929.86531167643,2802.44460913354
1915.1314612476,2802.45460913354
1887.1249124564,2802.46460913354
1882.43101358664,2802.47460913354
1881.02285403403,2802.48460913354
1869.44110921181,2802.49460913354
1859.4007053105,2802.50460913354
1842.75610117871,2802.51460913354
1840.27426646423,2802.52460913354
1854.01267555866,2802.53460913354
1867.20334927763,2802.54460913354
1888.75092270274,2802.55460913354
1912.30155285732,2802.56460913354
1943.79047031352,2802.57460913354
1961.65607489548,2802.58460913354
1956.79218317204,2802.59460913354
1963.83446781926,2802.60460913354
1994.44155385525,2802.61460913354
2043.0712057919,2802.62460913354
2093.57886907476,2802.63460913354
2180.7734779115,2802.64460913354
2276.21700168785,2802.65460913354
2389.04571097706,2802.66460913354
2509.45464108267,2802.67460913354
2582.29994076387,2802.68460913354
2639.74229564632,2802.69460913354
2674.403041789,2802.70460913354
2705.0714748509,2802.71460913354
2710.67711233612,2802.72460913354
2711.74400261628,2802.73460913354
2722.57014541359,2802.74460913354
2743.55799586996,2802.75460913354
2773.83035894013,2802.76460913354
2802.47321131953,2802.77460913354
2833.37259470836,2802.78460913354
2845.13469328243,2802.79460913354
2843.76195343438,2802.80460913354
2844.02340293907,2802.81460913354
2832.57839399965,2802.82460913354
2812.3261900802,2802.83460913354
2782.17115499623,2802.84460913354
2740.45342842616,2802.85460913354
2707.92107560835,2802.86460913354
2679.06289917797,2802.87460913354
2664.56919855369,2802.88460913354
2672.73805057486,2802.89460913354
2683.45012293326,2802.90460913354
2677.28913673381,2802.91460913354
2649.59839644931,2802.92460913354
2607.84038914331,2802.93460913354
2551.05741682008,2802.94460913354
2523.16490203506,2802.95460913354
2494.98738682673,2802.96460913354
2464.00623771897,2802.97460913354
2427.7430201752,2802.98460913354
2398.96408215061,2802.99460913354
2368.75232985474,2803.00460913354
2339.59657800806,2803.01460913354
2289.92240440934,2803.02460913354
2259.29778643614,2803.03460913354
2246.98636762303,2803.04460913354
2242.83028154512,2803.05460913354
2271.43362895542,2803.06460913354
2290.99951541208,2803.07460913354
2293.52158583677,2803.08460913354
2282.85578634983,2803.09460913354
2284.02859178347,2803.10460913354
2287.93328712637,2803.11460913354
2312.22841684926,2803.12460913354
2312.50257314917,2803.13460913354
2338.002753576,2803.14460913354
2344.2326828709,2803.15460913354
2330.46445495253,2803.16460913354
2315.12723527259,2803.17460913354
2312.78933640077,2803.18460913354
2300.72781691846,2803.19460913354
2286.47604144028,2803.20460913354
2267.25866209377,2803.21460913354
2235.36369207004,2803.22460913354
2211.51712387286,2803.23460913354
2198.32658036238,2803.24460913354
2178.02975478072,2803.25460913354
2159.77692227548,2803.26460913354
2137.91918600255,2803.27460913354
2136.13039530143,2803.28460913354
2120.52755822964,2803.29460913354
2084.08827456993,2803.30460913354
2026.72256531806,2803.31460913354
1948.09168201386,2803.32460913354
1894.86425633988,2803.33460913354
1846.08687851699,2803.34460913354
1808.99691177359,2803.35460913354
1786.93244571535,2803.36460913354
1768.16328079229,2803.37460913354
1735.36510115016,2803.38460913354
1719.83975837839,2803.39460913354
1729.35942495357,2803.40460913354
1737.77578752525,2803.41460913354
1739.32796471759,2803.42460913354
1740.45592661729,2803.43460913354
1720.25851256698,2803.44460913354
1725.49753598669,2803.45460913354
1716.05826179242,2803.46460913354
1711.9907635111,2803.47460913354
1728.49803538744,2803.48460913354
1755.41167382797,2803.49460913354
1784.28544644533,2803.50460913354
1831.00297288593,2803.51460913354
1880.14225824778,2803.52460913354
1919.4572249861,2803.53460913354
1930.70464026956,2803.54460913354
1930.4616446702,2803.55460913354
1901.77665047084,2803.56460913354
1873.68988597516,2803.57460913354
1849.36781640632,2803.58460913354
1841.33219171282,2803.59460913354
1836.14897543634,2803.60460913354
1824.62843319398,2803.61460913354
1826.70519313124,2803.62460913354
1825.47211197369,2803.63460913354
1841.37442784638,2803.64460913354
1868.27598460484,2803.65460913354
1885.74685886182,2803.66460913354
1897.6798563455,2803.67460913354
1896.2668822964,2803.68460913354
1882.57460808986,2803.69460913354
1887.33184773669,2803.70460913354
1867.52808878574,2803.71460913354
1842.59734694627,2803.72460913354
1828.38497716534,2803.73460913354
1825.54206637873,2803.74460913354
1825.94564540675,2803.75460913354
1826.09580132999,2803.76460913354
1802.23337149878,2803.77460913354
1795.30942608403,2803.78460913354
1798.06679863984,2803.79460913354
1807.90298596641,2803.80460913354
1825.60069458203,2803.81460913354
1824.11743445989,2803.82460913354
1856.52234554615,2803.83460913354
1883.6760019111,2803.84460913354
1901.7878275134,2803.85460913354
1917.66472562175,2803.86460913354
1924.6783276616,2803.87460913354
1951.27720588533,2803.88460913354
1986.36368907833,2803.89460913354
2027.97075977265,2803.90460913354
2061.88870347994,2803.91460913354
2095.92326488332,2803.92460913354
2112.20562328428,2803.93460913354
2134.51622122243,2803.94460913354
2147.55541777144,2803.95460913354
2179.58934183703,2803.96460913354
2217.01654172832,2803.97460913354
2266.98168877353,2803.98460913354
2346.415612771,2803.99460913354
2420.01341656188,2804.00460913354
2481.36787159392,2804.01460913354
2529.3883062227,2804.02460913354
2566.8497537182,2804.03460913354
2601.10815627044,2804.04460913354
2642.49933198719,2804.05460913354
2656.85605648149,2804.06460913354
2685.59042029573,2804.07460913354
2710.28876348062,2804.08460913354
2710.92480282598,2804.09460913354
2712.07524123507,2804.10460913354
2692.19641370178,2804.11460913354
2625.90522506725,2804.12460913354
2557.3342586313,2804.13460913354
2490.06320506532,2804.14460913354
2473.12504825667,2804.15460913354
2464.44493919682,2804.16460913354
2444.60405078199,2804.17460913354
2407.10679454534,2804.18460913354
2372.62037460849,2804.19460913354
2359.80686313451,2804.20460913354
2368.29044736129,2804.21460913354
2373.20526291505,2804.22460913354
2371.11591157583,2804.23460913354
2360.36571706432,2804.24460913354
2331.85230463778,2804.25460913354
2303.37291489622,2804.26460913354
2280.74207225166,2804.27460913354
2263.22283035453,2804.28460913354
2248.42771759628,2804.29460913354
2237.50152119254,2804.30460913354
2251.81954600144,2804.31460913354
2257.3942047826,2804.32460913354
2302.80771669471,2804.33460913354
2355.13934240116,2804.34460913354
2428.71416292285,2804.35460913354
2479.75050148681,2804.36460913354
2511.21640388136,2804.37460913354
2554.85124458257,2804.38460913354
2564.20820951394,2804.39460913354
2564.36122954771,2804.40460913354
2563.78064386348,2804.41460913354
2564.89354323539,2804.42460913354
2585.88386826191,2804.43460913354
2616.78226477129,2804.44460913354
2641.40053884653,2804.45460913354
2619.96050518994,2804.46460913354
2590.67298545593,2804.47460913354
2560.63662545392,2804.48460913354
2531.91061621371,2804.49460913354
2512.96289145197,2804.50460913354
2493.14403556939,2804.51460913354
2475.55551128964,2804.52460913354
2492.25632260179,2804.53460913354
2509.90617112264,2804.54460913354
2541.65851718677,2804.55460913354
2570.96836398792,2804.56460913354
2583.84127967299,2804.57460913354
2593.8797722328,2804.58460913354
2582.24661259045,2804.59460913354
2573.05940325762,2804.60460913354
2563.95758120183,2804.61460913354
2562.89509654633,2804.62460913354
2569.74033534203,2804.63460913354
2555.48681688618,2804.64460913354
2544.12122884363,2804.65460913354
2512.35349110459,2804.66460913354
2471.04220525441,2804.67460913354
2431.24538120999,2804.68460913354
2412.50584007416,2804.69460913354
2407.68067827205,2804.70460913354
2381.77551015455,2804.71460913354
2361.05914356675,2804.72460913354
2345.9842407376,2804.73460913354
2326.75028453009,2804.74460913354
2323.80578014858,2804.75460913354
2298.93030169487,2804.76460913354
2309.49533095677,2804.77460913354
2318.44199067246,2804.78460913354
2329.0891077174,2804.79460913354
2339.0472831518,2804.80460913354
2359.64742211174,2804.81460913354
2390.48880675929,2804.82460913354
2430.35516618825,2804.83460913354
2481.40628632259,2804.84460913354
2536.30987804606,2804.85460913354
2575.53005030548,2804.86460913354
2590.45114005488,2804.87460913354
2595.51511814148,2804.88460913354
2583.05678742536,2804.89460913354
2546.2954076572,2804.90460913354
2500.43103518214,2804.91460913354
2462.67551127765,2804.92460913354
2428.26497009036,2804.93460913354
2413.33852200632,2804.94460913354
2421.91408583215,2804.95460913354
2444.04960031419,2804.96460913354
2458.06275007973,2804.97460913354
2466.01350700504,2804.98460913354
2500.43205713005,2804.99460913354
2506.4838461414,2805.00460913354
2500.41893683055,2805.01460913354
2472.28924049561,2805.02460913354
2443.81725768679,2805.03460913354
2423.36065702687,2805.04460913354
2420.70762682387,2805.05460913354
2432.45857043733,2805.06460913354
2426.75920711361,2805.07460913354
2409.00993135624,2805.08460913354
2403.014780402,2805.09460913354
2371.55581940027,2805.10460913354
2354.87324829993,2805.11460913354
2356.7656639491,2805.12460913354
2373.58116540384,2805.13460913354
2415.5429041101,2805.14460913354
2481.76439176763,2805.15460913354
2573.66390705998,2805.16460913354
2660.68646054967,2805.17460913354
2749.68395058529,2805.18460913354
2838.87641033647,2805.19460913354
2910.2454585816,2805.20460913354
2956.68458311675,2805.21460913354
3003.2135136424,2805.22460913354
3018.42325656175,2805.23460913354
3025.85329262855,2805.24460913354
3054.04220172306,2805.25460913354
3070.45243460416,2805.26460913354
3110.24460494266,2805.27460913354
3138.71528596897,2805.28460913354
3138.77448985262,2805.29460913354
3127.54670011227,2805.30460913354
3107.98129457678,2805.31460913354
3076.09876488611,2805.32460913354
3060.89889993258,2805.33460913354
3032.01315547875,2805.34460913354
3008.86122609836,2805.35460913354
2976.95603324876,2805.36460913354
2956.31120854927,2805.37460913354
2913.99715362146,2805.38460913354
2867.4537400268,2805.39460913354
2847.01840512735,2805.40460913354
2830.71169453742,2805.41460913354
2828.89427375222,2805.42460913354
2814.71779752931,2805.43460913354
2775.50535389037,2805.44460913354
2727.09519626102,2805.45460913354
2659.40994430702,2805.46460913354
2596.89790552918,2805.47460913354
2561.21370608127,2805.48460913354
2531.30289556979,2805.49460913354
2513.47218680832,2805.50460913354
2504.55043117694,2805.51460913354
2492.5495663734,2805.52460913354
2489.69714215916,2805.53460913354
2486.0515926929,2805.54460913354
2468.47871786761,2805.55460913354
2436.67008367251,2805.56460913354
2427.98939535373,2805.57460913354
2437.88542757703,2805.58460913354
2441.91133224857,2805.59460913354
2425.51923372062,2805.60460913354
2425.08150212342,2805.61460913354
2458.4562986107,2805.62460913354
2510.77456298934,2805.63460913354
2524.25917501922,2805.64460913354
2548.34459306752,2805.65460913354
2535.79408902697,2805.66460913354
2511.77331790336,2805.67460913354
2469.91259224066,2805.68460913354
2426.01289543733,2805.69460913354
2403.40835897861,2805.70460913354
2402.85992161061,2805.71460913354
2396.66826124716,2805.72460913354
2386.61165320088,2805.73460913354
2382.81314853804,2805.74460913354
2370.04555651962,2805.75460913354
2385.59633852809,2805.76460913354
2386.64963471615,2805.77460913354
2376.23656245305,2805.78460913354
2350.60380715175,2805.79460913354
2304.54035769767,2805.80460913354
2273.18412998487,2805.81460913354
2235.3219131668,2805.82460913354
2208.58219878897,2805.83460913354
2171.45538456324,2805.84460913354
2120.76422393465,2805.85460913354
2062.64617425705,2805.86460913354
2006.40627871884,2805.87460913354
1983.13162824541,2805.88460913354
1960.30744592475,2805.89460913354
1959.03450474902,2805.90460913354
1958.52452606903,2805.91460913354
1983.28204554144,2805.92460913354
1993.76770996613,2805.93460913354
2008.82983786551,2805.94460913354
2018.44708456387,2805.95460913354
2018.40134443373,2805.96460913354
2013.5840410634,2805.97460913354
2024.40933366717,2805.98460913354
2044.69160473341,2805.99460913354
2067.43874203512,2806.00460913354
2106.41171041788,2806.01460913354
2140.02185481887,2806.02460913354
2156.51413943478,2806.03460913354
2168.02194503647,2806.04460913354
