PPG,time
1204.60176978471,1839.25005909703
2361.36910937354,1839.26005909703
2050.69604243606,1839.27005909703
2182.90098475917,1839.28005909703
2063.96206991547,1839.29005909703
2100.07233080569,1839.30005909703
2038.13889049008,1839.31005909703
2036.92900324846,1839.32005909703
2001.74521973084,1839.33005909703
1988.18985278896,1839.34005909703
1961.76581356281,1839.35005909703
1944.29434128755,1839.36005909703
1926.72662326562,1839.37005909703
1910.40750639057,1839.38005909703
1893.74694008174,1839.39005909703
1876.16400269687,1839.40005909703
1857.32627601579,1839.41005909703
1837.87758442721,1839.42005909703
1819.69696326151,1839.43005909703
1801.61190291063,1839.44005909703
1784.24961629797,1839.45005909703
1771.67236676179,1839.46005909703
1758.67051409422,1839.47005909703
1746.96834540537,1839.48005909703
1735.63805992087,1839.49005909703
1724.47647556385,1839.50005909703
1712.31289228986,1839.51005909703
1699.54627724796,1839.52005909703
1686.35437349003,1839.53005909703
1671.77870723486,1839.54005909703
1662.54098995418,1839.55005909703
1657.51849227518,1839.56005909703
1654.12213068144,1839.57005909703
1652.43161243294,1839.58005909703
1648.120026258,1839.59005909703
1641.20380925364,1839.60005909703
1632.04805525406,1839.61005909703
1624.38015668844,1839.62005909703
1615.46325888141,1839.63005909703
1606.10141782803,1839.64005909703
1599.38948216729,1839.65005909703
1592.5903606377,1839.66005909703
1587.69331730159,1839.67005909703
1581.33479563686,1839.68005909703
1575.18990097173,1839.69005909703
1574.05037607407,1839.70005909703
1573.41801952456,1839.71005909703
1571.1512594215,1839.72005909703
1568.24247182437,1839.73005909703
1564.25063625051,1839.74005909703
1556.45173027502,1839.75005909703
1546.84666788638,1839.76005909703
1537.59730411413,1839.77005909703
1528.51756727541,1839.78005909703
1522.39143355685,1839.79005909703
1521.60370445812,1839.80005909703
1534.00075042342,1839.81005909703
1563.03894000976,1839.82005909703
1613.99753517631,1839.83005909703
1682.91666235736,1839.84005909703
1772.37821216236,1839.85005909703
1875.10736779705,1839.86005909703
1996.85965754425,1839.87005909703
2133.90551926296,1839.88005909703
2254.35039217228,1839.89005909703
2383.66263964059,1839.90005909703
2498.08270401063,1839.91005909703
2604.11561415781,1839.92005909703
2686.95010631471,1839.93005909703
2751.56352822594,1839.94005909703
2801.21696777311,1839.95005909703
2835.58646077038,1839.96005909703
2855.96713067778,1839.97005909703
2862.5676303208,1839.98005909703
2857.27464677588,1839.99005909703
2842.79374943347,1840.00005909703
2826.01698949824,1840.01005909703
2805.78994021783,1840.02005909703
2782.56556750592,1840.03005909703
2757.88631067624,1840.04005909703
2734.41268322275,1840.05005909703
2710.42466469426,1840.06005909703
2685.5355967366,1840.07005909703
2657.10640604341,1840.08005909703
2627.57726060925,1840.09005909703
2597.55665258678,1840.10005909703
2568.83073204542,1840.11005909703
2542.6275054188,1840.12005909703
2518.96487454322,1840.13005909703
2494.97466102114,1840.14005909703
2471.72272428126,1840.15005909703
2447.91958461499,1840.16005909703
2428.15041144441,1840.17005909703
2409.25934523877,1840.18005909703
2396.21374627095,1840.19005909703
2386.93380686723,1840.20005909703
2383.62963469761,1840.21005909703
2384.15459668332,1840.22005909703
2383.91745260746,1840.23005909703
2382.05402931259,1840.24005909703
2374.68828416383,1840.25005909703
2362.86721550844,1840.26005909703
2350.40708388622,1840.27005909703
2335.36471229697,1840.28005909703
2318.46126092805,1840.29005909703
2300.33454845212,1840.30005909703
2279.35515327532,1840.31005909703
2257.30686959956,1840.32005909703
2233.74307466164,1840.33005909703
2209.44135258767,1840.34005909703
2186.33476349661,1840.35005909703
2166.91069580107,1840.36005909703
2145.94832414385,1840.37005909703
2124.39688720405,1840.38005909703
2103.79875160096,1840.39005909703
2084.6020654,1840.40005909703
2068.3988135157,1840.41005909703
2051.86591558574,1840.42005909703
2031.88091708906,1840.43005909703
2012.57428463461,1840.44005909703
1994.75298074533,1840.45005909703
1978.24060522938,1840.46005909703
1964.13014828862,1840.47005909703
1949.94738497576,1840.48005909703
1936.73552353629,1840.49005909703
1922.69527752134,1840.50005909703
1906.06596011384,1840.51005909703
1893.24479864322,1840.52005909703
1883.64787578399,1840.53005909703
1872.88446387709,1840.54005909703
1860.67395450555,1840.55005909703
1849.38307839389,1840.56005909703
1839.57894451924,1840.57005909703
1831.01589103519,1840.58005909703
1825.4057415236,1840.59005909703
1818.59044590593,1840.60005909703
1808.90397125838,1840.61005909703
1796.77747638576,1840.62005909703
1784.77512703214,1840.63005909703
1772.82184749185,1840.64005909703
1759.09622880763,1840.65005909703
1745.13312963655,1840.66005909703
1730.95262988692,1840.67005909703
1720.96572555054,1840.68005909703
1714.82055858338,1840.69005909703
1709.43375482843,1840.70005909703
1707.21470295141,1840.71005909703
1705.74838721027,1840.72005909703
1706.63398156555,1840.73005909703
1708.26402671173,1840.74005909703
1707.12834444523,1840.75005909703
1704.34019605489,1840.76005909703
1701.54774374865,1840.77005909703
1699.6011799138,1840.78005909703
1700.50751446841,1840.79005909703
1704.23429549427,1840.80005909703
1709.6621704464,1840.81005909703
1715.04467931237,1840.82005909703
1723.63967254839,1840.83005909703
1741.98429911073,1840.84005909703
1775.85823943846,1840.85005909703
1826.75577431867,1840.86005909703
1897.7764385315,1840.87005909703
1984.74062019583,1840.88005909703
2086.72729212446,1840.89005909703
2196.39303587543,1840.90005909703
2309.69001833322,1840.91005909703
2422.5887629019,1840.92005909703
2528.29223051316,1840.93005909703
2627.14607416936,1840.94005909703
2714.82291520028,1840.95005909703
2788.73807028811,1840.96005909703
2847.49093746893,1840.97005909703
2891.1038072525,1840.98005909703
2919.15119047214,1840.99005909703
2929.8044995785,1841.00005909703
2921.72306348595,1841.01005909703
2903.47173193327,1841.02005909703
2874.76173485065,1841.03005909703
2843.07893658512,1841.04005909703
2809.32788100898,1841.05005909703
2774.69659739604,1841.06005909703
2736.27354534278,1841.07005909703
2695.36870596558,1841.08005909703
2653.68264020396,1841.09005909703
2614.77222112409,1841.10005909703
2577.5377944967,1841.11005909703
2542.26651292248,1841.12005909703
2511.49238817381,1841.13005909703
2483.27853221629,1841.14005909703
2462.50296507779,1841.15005909703
2447.63840649658,1841.16005909703
2438.99672019982,1841.17005909703
2436.28918761398,1841.18005909703
2437.38326739586,1841.19005909703
2438.63020973042,1841.20005909703
2442.80829310085,1841.21005909703
2450.90139025903,1841.22005909703
2456.66680798342,1841.23005909703
2461.32776683428,1841.24005909703
2462.37838445691,1841.25005909703
2459.62288480074,1841.26005909703
2455.86399634058,1841.27005909703
2447.25699612184,1841.28005909703
2434.20200263188,1841.29005909703
2418.42329251129,1841.30005909703
2403.08875459643,1841.31005909703
2387.08477446565,1841.32005909703
2368.05131213069,1841.33005909703
2346.42581882717,1841.34005909703
2323.88330349671,1841.35005909703
2298.80310811765,1841.36005909703
2272.04180810869,1841.37005909703
2246.72052585598,1841.38005909703
2220.57035598495,1841.39005909703
2199.16075528318,1841.40005909703
2176.83776747431,1841.41005909703
2156.62177333031,1841.42005909703
2137.15069797839,1841.43005909703
2121.18440443174,1841.44005909703
2106.38646882249,1841.45005909703
2088.97739401325,1841.46005909703
2069.36964987838,1841.47005909703
2047.82206280902,1841.48005909703
2026.46018822329,1841.49005909703
2007.42560247842,1841.50005909703
1988.29660966183,1841.51005909703
1967.23246293429,1841.52005909703
1945.78750428603,1841.53005909703
1926.63146718408,1841.54005909703
1910.34244211379,1841.55005909703
1895.59427861713,1841.56005909703
1879.02818909237,1841.57005909703
1863.17619088783,1841.58005909703
1848.33490489979,1841.59005909703
1834.73155099132,1841.60005909703
1825.31758714095,1841.61005909703
1813.48242693523,1841.62005909703
1801.2916041673,1841.63005909703
1788.62337652173,1841.64005909703
1775.24577927765,1841.65005909703
1762.57084850425,1841.66005909703
1749.78978504403,1841.67005909703
1739.42619197041,1841.68005909703
1729.51134804762,1841.69005909703
1722.71585469188,1841.70005909703
1715.38486529452,1841.71005909703
1706.97916002396,1841.72005909703
1699.88294165013,1841.73005909703
1693.4199181886,1841.74005909703
1687.65267832286,1841.75005909703
1679.27100972161,1841.76005909703
1669.32243028379,1841.77005909703
1659.98444943547,1841.78005909703
1652.08522517864,1841.79005909703
1645.58952220209,1841.80005909703
1641.7760778682,1841.81005909703
1646.01202800911,1841.82005909703
1657.38320906237,1841.83005909703
1675.77037478309,1841.84005909703
1705.90881862974,1841.85005909703
1754.6001349802,1841.86005909703
1823.08783256109,1841.87005909703
1912.25172742078,1841.88005909703
2017.26440679819,1841.89005909703
2133.37287717873,1841.90005909703
2257.84180343995,1841.91005909703
2383.2511914344,1841.92005909703
2509.68615199375,1841.93005909703
2629.40385683735,1841.94005909703
2735.90098931345,1841.95005909703
2827.1625032944,1841.96005909703
2904.54471510747,1841.97005909703
2967.22156013928,1841.98005909703
3015.80087146238,1841.99005909703
3048.67823196974,1842.00005909703
3068.27303634186,1842.01005909703
3081.25235703788,1842.02005909703
3087.60806550296,1842.03005909703
3089.20032432074,1842.04005909703
3085.8660332353,1842.05005909703
3078.73554696048,1842.06005909703
3070.04989386708,1842.07005909703
3057.25346927952,1842.08005909703
3042.77017145438,1842.09005909703
3024.12235653852,1842.10005909703
3000.88707964691,1842.11005909703
2972.80634438838,1842.12005909703
2943.15067906696,1842.13005909703
2911.54464867122,1842.14005909703
2882.71719166542,1842.15005909703
2853.66831690257,1842.16005909703
2825.09515049623,1842.17005909703
2797.10896290321,1842.18005909703
2771.4336371811,1842.19005909703
2747.50581316779,1842.20005909703
2726.2323908731,1842.21005909703
2709.45002687472,1842.22005909703
2694.96563119149,1842.23005909703
2680.77752061049,1842.24005909703
2663.52776059059,1842.25005909703
2646.45237145878,1842.26005909703
2628.64433912095,1842.27005909703
2611.04259078901,1842.28005909703
2591.31862701949,1842.29005909703
2570.10378435821,1842.30005909703
2545.60699906714,1842.31005909703
2515.60192111288,1842.32005909703
2486.03629029947,1842.33005909703
2453.79004652512,1842.34005909703
2419.68405051736,1842.35005909703
2381.61271395071,1842.36005909703
2344.21297758275,1842.37005909703
2310.64505992578,1842.38005909703
2279.27276361567,1842.39005909703
2251.84772662865,1842.40005909703
2225.36179943189,1842.41005909703
2198.70341576171,1842.42005909703
2173.01479055561,1842.43005909703
2145.15119946284,1842.44005909703
2117.28777637704,1842.45005909703
2090.66851555092,1842.46005909703
2065.22417370598,1842.47005909703
2037.93096351972,1842.48005909703
2011.6281205042,1842.49005909703
1984.76904493591,1842.50005909703
1953.31677474713,1842.51005909703
1923.11976335286,1842.52005909703
1892.10144233842,1842.53005909703
1863.35954924631,1842.54005909703
1834.40622851236,1842.55005909703
1803.92448633589,1842.56005909703
1780.05320011902,1842.57005909703
1760.10673704887,1842.58005909703
1739.28319596326,1842.59005909703
1717.83093241209,1842.60005909703
1697.58843803078,1842.61005909703
1673.31344999,1842.62005909703
1650.41285122406,1842.63005909703
1627.50165331822,1842.64005909703
1607.8798295467,1842.65005909703
1593.17225752308,1842.66005909703
1578.60171458556,1842.67005909703
1563.22809832935,1842.68005909703
1548.0616537236,1842.69005909703
1532.3273860331,1842.70005909703
1518.59790897564,1842.71005909703
1505.22693866309,1842.72005909703
1495.79403800693,1842.73005909703
1485.66376509443,1842.74005909703
1475.31604038725,1842.75005909703
1465.65428215899,1842.76005909703
1454.75807221503,1842.77005909703
1441.70176077962,1842.78005909703
1433.02154605217,1842.79005909703
1427.33802790807,1842.80005909703
1425.80655459483,1842.81005909703
1426.53598960484,1842.82005909703
1428.82966730386,1842.83005909703
1429.98520104659,1842.84005909703
1429.98930763694,1842.85005909703
1427.73370744596,1842.86005909703
1423.27059758083,1842.87005909703
1418.48612792899,1842.88005909703
1415.91817346247,1842.89005909703
1416.27852659117,1842.90005909703
1420.57500385191,1842.91005909703
1432.68157238821,1842.92005909703
1457.88946609202,1842.93005909703
1500.74183754682,1842.94005909703
1561.81850891366,1842.95005909703
1640.7509354201,1842.96005909703
1742.21098201423,1842.97005909703
1859.00572070151,1842.98005909703
1986.12180785955,1842.99005909703
2121.82716618458,1843.00005909703
2264.01040183428,1843.01005909703
2401.20039924206,1843.02005909703
2532.76864346225,1843.03005909703
2649.88024528553,1843.04005909703
2750.98621352921,1843.05005909703
2836.6817013883,1843.06005909703
2906.33570342816,1843.07005909703
2959.33055602467,1843.08005909703
2999.28045382162,1843.09005909703
3028.88531919617,1843.10005909703
3051.63743093854,1843.11005909703
3065.11839371924,1843.12005909703
3069.80095082833,1843.13005909703
3070.98976685387,1843.14005909703
3067.21358659696,1843.15005909703
3058.92929193496,1843.16005909703
3044.75324754705,1843.17005909703
3026.35086657776,1843.18005909703
3003.8754025482,1843.19005909703
2980.73660472664,1843.20005909703
2953.3701869852,1843.21005909703
2925.23254637414,1843.22005909703
2894.02175273272,1843.23005909703
2861.32859374427,1843.24005909703
2826.42133333753,1843.25005909703
2790.50367070545,1843.26005909703
2752.57690480119,1843.27005909703
2718.65260521711,1843.28005909703
2688.2639155923,1843.29005909703
2659.75755282068,1843.30005909703
2631.78027335769,1843.31005909703
2604.49772300159,1843.32005909703
2578.0053374551,1843.33005909703
2551.79407266374,1843.34005909703
2527.57972672021,1843.35005909703
2503.59163911702,1843.36005909703
2479.61458534247,1843.37005909703
2455.5894116912,1843.38005909703
2430.04463598478,1843.39005909703
2403.75825423449,1843.40005909703
2378.66773852267,1843.41005909703
2355.24562406174,1843.42005909703
2326.63707249415,1843.43005909703
2296.0732242509,1843.44005909703
2261.48552823304,1843.45005909703
2224.32744274734,1843.46005909703
2188.51318438764,1843.47005909703
2152.34240279922,1843.48005909703
2114.9446874013,1843.49005909703
2076.02343994151,1843.50005909703
2036.13562417443,1843.51005909703
1994.91508295623,1843.52005909703
1948.72610578948,1843.53005909703
1906.74977772862,1843.54005909703
1867.53830833918,1843.55005909703
1830.23725021468,1843.56005909703
1793.28699409743,1843.57005909703
1759.11975532478,1843.58005909703
1724.46419076082,1843.59005909703
1689.9366393889,1843.60005909703
1656.05627559872,1843.61005909703
1622.50167330719,1843.62005909703
1593.01236393994,1843.63005909703
1568.82489073532,1843.64005909703
1546.96750291522,1843.65005909703
1528.01763392205,1843.66005909703
1507.91511082586,1843.67005909703
1489.55923256588,1843.68005909703
1472.14164299544,1843.69005909703
1457.00975835152,1843.70005909703
1443.06586709687,1843.71005909703
1430.6884965848,1843.72005909703
1418.80073640853,1843.73005909703
1406.76525058172,1843.74005909703
1396.32526315255,1843.75005909703
1385.46914643085,1843.76005909703
1377.04433093145,1843.77005909703
1371.36400814154,1843.78005909703
1367.76558676157,1843.79005909703
1361.32242124962,1843.80005909703
1354.68066904816,1843.81005909703
1347.89662603631,1843.82005909703
1341.90716638798,1843.83005909703
1339.04812361557,1843.84005909703
1337.99216132206,1843.85005909703
1335.92858627829,1843.86005909703
1332.41941108135,1843.87005909703
1327.62872510311,1843.88005909703
1321.84996310024,1843.89005909703
1316.45720293592,1843.90005909703
1313.76486990685,1843.91005909703
1309.2529168681,1843.92005909703
1306.33404471783,1843.93005909703
1302.94834778951,1843.94005909703
1297.0511207804,1843.95005909703
1295.69474397769,1843.96005909703
1298.14444170763,1843.97005909703
1308.49065250785,1843.98005909703
1327.55915176932,1843.99005909703
1359.21922212593,1844.00005909703
1413.02794405389,1844.01005909703
1487.24562780706,1844.02005909703
1581.57402544425,1844.03005909703
1693.83514302353,1844.04005909703
1821.88177295485,1844.05005909703
1957.34752495469,1844.06005909703
2092.32228999481,1844.07005909703
2220.90828749185,1844.08005909703
2339.16913986985,1844.09005909703
2449.49958150544,1844.10005909703
2546.61260075846,1844.11005909703
2628.01157961412,1844.12005909703
2691.26086358071,1844.13005909703
2738.77005157771,1844.14005909703
2771.71994815788,1844.15005909703
2792.50156255386,1844.16005909703
2803.29973894233,1844.17005909703
2808.9537924916,1844.18005909703
2809.82109369027,1844.19005909703
2803.71679632866,1844.20005909703
2794.1518573702,1844.21005909703
2778.63610166376,1844.22005909703
2760.42503316707,1844.23005909703
2739.32981072558,1844.24005909703
2715.9390097884,1844.25005909703
2688.78569295558,1844.26005909703
2656.77283092295,1844.27005909703
2623.2591683305,1844.28005909703
2590.08911379825,1844.29005909703
2556.43238465733,1844.30005909703
2527.6099431178,1844.31005909703
2502.41631743981,1844.32005909703
2483.98594235251,1844.33005909703
2469.02515893156,1844.34005909703
2458.75741831542,1844.35005909703
2451.97367555402,1844.36005909703
2447.3068700413,1844.37005909703
2442.83315671708,1844.38005909703
2439.00933021515,1844.39005909703
2432.97878164656,1844.40005909703
2422.71752938833,1844.41005909703
2404.0284316561,1844.42005909703
2385.39270975493,1844.43005909703
2360.46294519343,1844.44005909703
2332.64158323375,1844.45005909703
2304.40811744355,1844.46005909703
2277.73961353307,1844.47005909703
2250.57343023436,1844.48005909703
2222.59186265239,1844.49005909703
2192.94996781278,1844.50005909703
2165.55112482964,1844.51005909703
2134.69466671239,1844.52005909703
2105.229463865,1844.53005909703
2076.51846337018,1844.54005909703
2046.75260207683,1844.55005909703
2013.50537449408,1844.56005909703
1978.04527151184,1844.57005909703
1941.792073382,1844.58005909703
1904.71080701465,1844.59005909703
1871.26742918768,1844.60005909703
1838.95939683158,1844.61005909703
1810.88035048174,1844.62005909703
1786.00824383751,1844.63005909703
1760.90048634041,1844.64005909703
1734.81233197695,1844.65005909703
1707.73671157183,1844.66005909703
1682.48316403233,1844.67005909703
1660.24196035641,1844.68005909703
1638.30048732426,1844.69005909703
1616.26745231851,1844.70005909703
1595.9013129652,1844.71005909703
1574.45137129645,1844.72005909703
1551.70723484226,1844.73005909703
1530.63518509016,1844.74005909703
1510.20051482259,1844.75005909703
1489.1789274663,1844.76005909703
1467.94408013231,1844.77005909703
1447.85960996319,1844.78005909703
1431.86058361832,1844.79005909703
1416.45932276838,1844.80005909703
1400.85457772981,1844.81005909703
1388.79257607917,1844.82005909703
1376.77452857391,1844.83005909703
1366.2913564931,1844.84005909703
1357.13313352661,1844.85005909703
1349.06567272948,1844.86005909703
1340.20721719923,1844.87005909703
1331.61192326312,1844.88005909703
1322.94887181959,1844.89005909703
1315.78517627929,1844.90005909703
1313.06024951489,1844.91005909703
1311.74777329718,1844.92005909703
1312.04960676073,1844.93005909703
1309.47151657219,1844.94005909703
1305.92670948856,1844.95005909703
1305.69105713925,1844.96005909703
1308.24341422944,1844.97005909703
1321.47101178359,1844.98005909703
1348.03328420757,1844.99005909703
1388.62603498667,1845.00005909703
1446.75178789647,1845.01005909703
1524.99861638943,1845.02005909703
1622.17083405187,1845.03005909703
1738.43103143789,1845.04005909703
1865.87973292388,1845.05005909703
1998.38594062576,1845.06005909703
2133.49308411811,1845.07005909703
2261.35327063525,1845.08005909703
2378.53122043034,1845.09005909703
2485.0769729515,1845.10005909703
2575.85257398363,1845.11005909703
2651.7570406514,1845.12005909703
2711.3910472753,1845.13005909703
2755.2815542803,1845.14005909703
2785.91325747031,1845.15005909703
2805.73950925476,1845.16005909703
2818.34800374401,1845.17005909703
2824.24827222718,1845.18005909703
2823.72997342684,1845.19005909703
2817.64329638486,1845.20005909703
2810.42532396175,1845.21005909703
2798.57204281782,1845.22005909703
2780.3966399419,1845.23005909703
2757.38083694565,1845.24005909703
2730.21471047301,1845.25005909703
2701.20171988904,1845.26005909703
2671.77166286372,1845.27005909703
2638.84053913764,1845.28005909703
2601.60479166266,1845.29005909703
2564.32716168489,1845.30005909703
2526.82836282855,1845.31005909703
2490.19033169873,1845.32005909703
2456.59591871033,1845.33005909703
2425.33363346535,1845.34005909703
2396.07054007247,1845.35005909703
2371.52126811631,1845.36005909703
2348.7228445789,1845.37005909703
2324.78229385872,1845.38005909703
2303.20411494823,1845.39005909703
2280.09699645119,1845.40005909703
2255.56961114234,1845.41005909703
2232.59074569661,1845.42005909703
2206.03883565805,1845.43005909703
2180.82189528136,1845.44005909703
2155.61744958164,1845.45005909703
2129.43773839172,1845.46005909703
2102.76524894201,1845.47005909703
2073.35560940229,1845.48005909703
2039.8205025937,1845.49005909703
2005.7991240386,1845.50005909703
1973.32936628919,1845.51005909703
1940.1132154538,1845.52005909703
1907.64987890173,1845.53005909703
1874.78445035136,1845.54005909703
1841.19623702142,1845.55005909703
1810.21765521466,1845.56005909703
1781.18200777362,1845.57005909703
1753.14653953393,1845.58005909703
1723.67722302506,1845.59005909703
1694.44615189876,1845.60005909703
1664.55375644206,1845.61005909703
1632.75220197239,1845.62005909703
1604.53899064236,1845.63005909703
1577.57136886791,1845.64005909703
1549.8429998859,1845.65005909703
1520.31458624083,1845.66005909703
1493.06951880254,1845.67005909703
1467.42338703974,1845.68005909703
1441.95044808876,1845.69005909703
1417.94181191414,1845.70005909703
1398.13718421929,1845.71005909703
1379.32564676051,1845.72005909703
1362.52115162051,1845.73005909703
1343.99193412731,1845.74005909703
1326.12879721362,1845.75005909703
1308.86837576583,1845.76005909703
1292.07378809677,1845.77005909703
1277.51988603643,1845.78005909703
1267.65461837765,1845.79005909703
1256.66307799024,1845.80005909703
1247.55640697929,1845.81005909703
1241.58640092076,1845.82005909703
1232.7634183599,1845.83005909703
1227.74653018062,1845.84005909703
1221.1447494996,1845.85005909703
1215.49831829126,1845.86005909703
1209.43704180917,1845.87005909703
1204.29372675667,1845.88005909703
1199.53967197911,1845.89005909703
1194.64385647292,1845.90005909703
1193.1652843673,1845.91005909703
1190.40575616161,1845.92005909703
1187.57955577635,1845.93005909703
1182.68735837112,1845.94005909703
1179.06504702993,1845.95005909703
1171.69636344706,1845.96005909703
1167.68432131709,1845.97005909703
1163.47724060084,1845.98005909703
1159.80631272328,1845.99005909703
1152.80123551729,1846.00005909703
1142.24393984282,1846.01005909703
1133.10530442782,1846.02005909703
1125.59511165856,1846.03005909703
1123.72630320688,1846.04005909703
1123.9608829217,1846.05005909703
1125.35910864313,1846.06005909703
1126.0224730237,1846.07005909703
1123.83423564779,1846.08005909703
1124.7913598985,1846.09005909703
1133.32626935111,1846.10005909703
1156.22335344979,1846.11005909703
1197.64293786395,1846.12005909703
1257.34623938055,1846.13005909703
1336.46720026488,1846.14005909703
1435.03863153432,1846.15005909703
1550.66700770528,1846.16005909703
1680.56076480766,1846.17005909703
1819.23643770072,1846.18005909703
1958.95167429308,1846.19005909703
2094.33629779691,1846.20005909703
2223.42427495894,1846.21005909703
2336.75804820807,1846.22005909703
2433.85560593976,1846.23005909703
2515.98230494772,1846.24005909703
2581.3538656137,1846.25005909703
2630.47532415968,1846.26005909703
2664.89876876676,1846.27005909703
2683.86910053436,1846.28005909703
2692.08252004695,1846.29005909703
2690.17074494403,1846.30005909703
2681.94295697022,1846.31005909703
2671.19488437464,1846.32005909703
2658.30782727289,1846.33005909703
2644.33269707246,1846.34005909703
2624.41061635974,1846.35005909703
2598.21101311045,1846.36005909703
2568.81529579548,1846.37005909703
2535.04441616024,1846.38005909703
2503.06955816305,1846.39005909703
2467.87756743262,1846.40005909703
2431.77809083835,1846.41005909703
2395.47798143909,1846.42005909703
2361.05960621035,1846.43005909703
2326.48334936727,1846.44005909703
2294.0232012563,1846.45005909703
2266.76970955406,1846.46005909703
2239.81501346503,1846.47005909703
2218.62641572736,1846.48005909703
2200.15615530234,1846.49005909703
2186.51082628239,1846.50005909703
2173.88829427995,1846.51005909703
2159.5518170385,1846.52005909703
2143.30718274704,1846.53005909703
2127.5113560774,1846.54005909703
2112.46666825168,1846.55005909703
2096.37647307093,1846.56005909703
2078.44052311831,1846.57005909703
2056.2644849479,1846.58005909703
2034.18972998246,1846.59005909703
2013.01991360967,1846.60005909703
1987.20819184363,1846.61005909703
1962.84983184104,1846.62005909703
1937.91602347138,1846.63005909703
1913.54521299313,1846.64005909703
1888.00831466725,1846.65005909703
1861.82844013237,1846.66005909703
1837.57826667649,1846.67005909703
1813.53894700008,1846.68005909703
1790.11645575326,1846.69005909703
1770.06501866229,1846.70005909703
1747.7986879766,1846.71005909703
1724.99203690844,1846.72005909703
1704.04981412995,1846.73005909703
1684.9447086656,1846.74005909703
1663.87004841534,1846.75005909703
1644.05611227269,1846.76005909703
1623.83707521086,1846.77005909703
1604.5724545802,1846.78005909703
1588.75988920624,1846.79005909703
1577.4674475969,1846.80005909703
1567.35685682899,1846.81005909703
1561.38580536099,1846.82005909703
1555.59138962326,1846.83005909703
1546.44328375468,1846.84005909703
1536.06764142082,1846.85005909703
1520.23350826279,1846.86005909703
1505.15116975742,1846.87005909703
1490.38504252467,1846.88005909703
1477.0410623399,1846.89005909703
1469.43040793259,1846.90005909703
1460.8516302016,1846.91005909703
1456.09762354863,1846.92005909703
1450.69983265064,1846.93005909703
1442.83778295339,1846.94005909703
1436.05777425255,1846.95005909703
1429.07934150701,1846.96005909703
1423.51948861106,1846.97005909703
1420.58526055442,1846.98005909703
1417.12068742832,1846.99005909703
1415.32700178444,1847.00005909703
1413.26211400962,1847.01005909703
1411.60427162684,1847.02005909703
1413.40533713791,1847.03005909703
1416.25122212319,1847.04005909703
1417.94087735535,1847.05005909703
1425.97179319509,1847.06005909703
1430.25909665972,1847.07005909703
1435.13624066939,1847.08005909703
1438.83335823221,1847.09005909703
1440.73740548615,1847.10005909703
1442.04141761898,1847.11005909703
1442.50528119251,1847.12005909703
1446.337266852,1847.13005909703
1450.44568900501,1847.14005909703
1453.67204938234,1847.15005909703
1457.6441573384,1847.16005909703
1463.0675360751,1847.17005909703
1468.80044394404,1847.18005909703
1477.0998765164,1847.19005909703
1491.02933298686,1847.20005909703
1510.56864235706,1847.21005909703
1541.83836799421,1847.22005909703
1584.84341494109,1847.23005909703
1644.02508239746,1847.24005909703
1718.137200145,1847.25005909703
1805.21348812691,1847.26005909703
1900.52090627022,1847.27005909703
2003.09015447778,1847.28005909703
2107.85665258684,1847.29005909703
2210.40230189577,1847.30005909703
2310.35220866269,1847.31005909703
2402.96204989497,1847.32005909703
2485.92419251209,1847.33005909703
2551.31501765388,1847.34005909703
2599.8712356163,1847.35005909703
2631.99960998117,1847.36005909703
2649.66591009004,1847.37005909703
2657.07967275723,1847.38005909703
2657.94363948227,1847.39005909703
2654.16747269966,1847.40005909703
2641.81747505425,1847.41005909703
2623.75133065243,1847.42005909703
2602.88993816176,1847.43005909703
2582.07124351233,1847.44005909703
2560.55750604192,1847.45005909703
2536.0305760005,1847.46005909703
2511.58485001005,1847.47005909703
2485.46066768275,1847.48005909703
2456.98751055403,1847.49005909703
2429.72557740861,1847.50005909703
2402.88642985982,1847.51005909703
2379.52862613184,1847.52005909703
2357.55999840128,1847.53005909703
2340.82188004067,1847.54005909703
2330.76705825419,1847.55005909703
2324.44338673325,1847.56005909703
2322.15072989437,1847.57005909703
2322.51985191487,1847.58005909703
2324.34457073242,1847.59005909703
2323.18375697716,1847.60005909703
2322.00583607272,1847.61005909703
2319.51224511822,1847.62005909703
2311.891442829,1847.63005909703
2303.67122159606,1847.64005909703
2291.65465542259,1847.65005909703
2275.98412724251,1847.66005909703
2258.46474509216,1847.67005909703
2236.157457655,1847.68005909703
2214.53329508177,1847.69005909703
2191.63730595468,1847.70005909703
2168.07841415771,1847.71005909703
2146.56728937096,1847.72005909703
2121.91977620147,1847.73005909703
2099.234211906,1847.74005909703
2075.55097969629,1847.75005909703
2055.84635795644,1847.76005909703
2041.24746539202,1847.77005909703
2026.4956697598,1847.78005909703
2009.81666993561,1847.79005909703
1991.60071564337,1847.80005909703
1975.32476300991,1847.81005909703
1956.63787165381,1847.82005909703
1938.78869995286,1847.83005909703
1920.46556501347,1847.84005909703
1905.50695474697,1847.85005909703
1893.9668800998,1847.86005909703
1882.84276043056,1847.87005909703
1870.24120430599,1847.88005909703
1855.96028659308,1847.89005909703
1840.61460453111,1847.90005909703
1825.67876178479,1847.91005909703
1813.48214865386,1847.92005909703
1802.89144646168,1847.93005909703
1792.37901143517,1847.94005909703
1780.9015441826,1847.95005909703
1771.92120276892,1847.96005909703
1763.19075823736,1847.97005909703
1755.21502194937,1847.98005909703
1747.05655022567,1847.99005909703
1739.83068174733,1848.00005909703
1733.7971669092,1848.01005909703
1728.54146599267,1848.02005909703
1725.69676997024,1848.03005909703
1723.16999366837,1848.04005909703
1720.88804814924,1848.05005909703
1713.04499938052,1848.06005909703
1707.49044993385,1848.07005909703
1701.91744266593,1848.08005909703
1698.02564808905,1848.09005909703
1698.05313586057,1848.10005909703
1697.91693188484,1848.11005909703
1698.02355686963,1848.12005909703
1696.29460837956,1848.13005909703
1692.66253872774,1848.14005909703
1690.02402815783,1848.15005909703
1690.52455895554,1848.16005909703
1694.22071662287,1848.17005909703
1699.98489096179,1848.18005909703
1705.77860803191,1848.19005909703
1711.03704128328,1848.20005909703
1717.70654802885,1848.21005909703
1727.0472698989,1848.22005909703
1748.19661801121,1848.23005909703
1781.97022810439,1848.24005909703
1831.92248438216,1848.25005909703
1900.87068115315,1848.26005909703
1984.42841697771,1848.27005909703
2078.1159708605,1848.28005909703
2183.61204288623,1848.29005909703
2295.15949828835,1848.30005909703
2408.39857492432,1848.31005909703
2518.22495897723,1848.32005909703
2617.94213538383,1848.33005909703
2699.01737436184,1848.34005909703
2763.35986175384,1848.35005909703
2814.57068461966,1848.36005909703
2850.30223826049,1848.37005909703
2872.21099267669,1848.38005909703
2882.82763839062,1848.39005909703
2884.49100282012,1848.40005909703
2883.10036495691,1848.41005909703
2874.99154692861,1848.42005909703
2863.47989423259,1848.43005909703
2845.83465579655,1848.44005909703
2826.27526770854,1848.45005909703
2803.87783776283,1848.46005909703
2779.11672457036,1848.47005909703
2752.77076689272,1848.48005909703
2729.29367614268,1848.49005909703
2705.21531831124,1848.50005909703
2680.31130037427,1848.51005909703
2655.75028489983,1848.52005909703
2629.40304104363,1848.53005909703
2598.98701809723,1848.54005909703
2564.55984858403,1848.55005909703
2528.21965503587,1848.56005909703
2496.21202842455,1848.57005909703
2468.60907796417,1848.58005909703
2442.44360485917,1848.59005909703
2423.42501465407,1848.60005909703
2406.28081352606,1848.61005909703
2390.80837038184,1848.62005909703
2377.83897278551,1848.63005909703
2366.75658662297,1848.64005909703
2354.85895940882,1848.65005909703
2341.00089771692,1848.66005909703
2327.3305497091,1848.67005909703
2310.6238951759,1848.68005909703
2295.10394049744,1848.69005909703
2280.39738228836,1848.70005909703
2266.74098156351,1848.71005909703
2252.54536224799,1848.72005909703
2237.05502133023,1848.73005909703
2223.66209815324,1848.74005909703
2206.165438629,1848.75005909703
2190.63845888168,1848.76005909703
2172.15471935752,1848.77005909703
2151.91811067382,1848.78005909703
2132.16678013755,1848.79005909703
2109.76550398955,1848.80005909703
2087.13996712321,1848.81005909703
2063.851356681,1848.82005909703
2038.87506276321,1848.83005909703
2013.37488412851,1848.84005909703
1990.22718133404,1848.85005909703
1968.32317429536,1848.86005909703
1947.85146329195,1848.87005909703
1928.12240043618,1848.88005909703
1909.34355304993,1848.89005909703
1892.97506715709,1848.90005909703
1879.01000254528,1848.91005909703
1865.74671610185,1848.92005909703
1854.45415029372,1848.93005909703
1839.2925736395,1848.94005909703
1823.49094697383,1848.95005909703
1803.99082042429,1848.96005909703
1786.05199576748,1848.97005909703
1769.95593482882,1848.98005909703
1761.09384982723,1848.99005909703
1752.66747432622,1849.00005909703
1742.81555090781,1849.01005909703
1737.17754263789,1849.02005909703
1728.36817066427,1849.03005909703
1719.24591971352,1849.04005909703
1708.81347557823,1849.05005909703
1695.86136941581,1849.06005909703
1686.18694650852,1849.07005909703
1676.75177464135,1849.08005909703
1673.55520499803,1849.09005909703
1671.7935566167,1849.10005909703
1670.42800573127,1849.11005909703
1667.91184000476,1849.12005909703
1663.7724367586,1849.13005909703
1657.52539728971,1849.14005909703
1652.97730539947,1849.15005909703
1645.80703233909,1849.16005909703
1641.43341519281,1849.17005909703
1638.32424596564,1849.18005909703
1637.2116256193,1849.19005909703
1634.32631431728,1849.20005909703
1631.57837293951,1849.21005909703
1628.06152842647,1849.22005909703
1626.23055052696,1849.23005909703
1624.21111010305,1849.24005909703
1625.16166463328,1849.25005909703
1630.41609010729,1849.26005909703
1636.94878007377,1849.27005909703
1646.4770538359,1849.28005909703
1663.72674208807,1849.29005909703
1694.10819743225,1849.30005909703
1743.96081757563,1849.31005909703
1815.89679169241,1849.32005909703
1903.54641360207,1849.33005909703
2003.78632993148,1849.34005909703
2111.10638334675,1849.35005909703
2225.51168160507,1849.36005909703
2337.96919439492,1849.37005909703
2448.0739717434,1849.38005909703
2548.53142225627,1849.39005909703
2638.33692698878,1849.40005909703
2712.42014061227,1849.41005909703
2768.35311099847,1849.42005909703
2809.6794808678,1849.43005909703
2836.4492349713,1849.44005909703
2852.06998513029,1849.45005909703
2856.75436031405,1849.46005909703
2853.47229225117,1849.47005909703
2841.0049423523,1849.48005909703
2824.34672599802,1849.49005909703
2807.10233280845,1849.50005909703
2786.96504506892,1849.51005909703
2768.93087467594,1849.52005909703
2748.47420957092,1849.53005909703
2728.02087165939,1849.54005909703
2707.50059082858,1849.55005909703
2683.6588063281,1849.56005909703
2657.49875676782,1849.57005909703
2628.94226326306,1849.58005909703
2601.97821531982,1849.59005909703
2575.27927069405,1849.60005909703
2547.16962370816,1849.61005909703
2519.12772343568,1849.62005909703
2493.28816463666,1849.63005909703
2470.23735615998,1849.64005909703
2448.2514024,1849.65005909703
2426.68798813396,1849.66005909703
2409.38855505173,1849.67005909703
2394.38860171185,1849.68005909703
2380.53419582616,1849.69005909703
2370.5927526617,1849.70005909703
2360.39549834423,1849.71005909703
2350.67237883791,1849.72005909703
2338.2980623878,1849.73005909703
2325.20911724341,1849.74005909703
2307.3255881817,1849.75005909703
2283.18726850597,1849.76005909703
2254.57125778286,1849.77005909703
2223.42466017525,1849.78005909703
2195.16409437616,1849.79005909703
2169.28401884708,1849.80005909703
2146.38136547149,1849.81005909703
2125.30985591882,1849.82005909703
2103.29611477464,1849.83005909703
2081.23842147941,1849.84005909703
2059.39579965117,1849.85005909703
2036.43815966482,1849.86005909703
2013.808253246,1849.87005909703
1994.10375707736,1849.88005909703
1976.63698864618,1849.89005909703
1965.25494400537,1849.90005909703
1951.54918644558,1849.91005909703
1937.18804136099,1849.92005909703
1918.18450340736,1849.93005909703
1897.94431343547,1849.94005909703
1880.32831935631,1849.95005909703
1866.54851920273,1849.96005909703
1857.36970657901,1849.97005909703
1843.72086111487,1849.98005909703
1828.9788285312,1849.99005909703
1812.69378247053,1850.00005909703
1796.14300023481,1850.01005909703
1778.31830166381,1850.02005909703
1757.82246825336,1850.03005909703
1740.51667142246,1850.04005909703
1722.74668087949,1850.05005909703
1702.98417216277,1850.06005909703
1685.87794107204,1850.07005909703
1673.80779645624,1850.08005909703
1664.12858941542,1850.09005909703
1653.79454094299,1850.10005909703
1647.11983494654,1850.11005909703
1637.82140346134,1850.12005909703
1625.74883797973,1850.13005909703
1613.82310193765,1850.14005909703
1602.59330783,1850.15005909703
1590.85167854182,1850.16005909703
1577.20087400673,1850.17005909703
1564.12690287517,1850.18005909703
1547.66221936956,1850.19005909703
1531.02453233886,1850.20005909703
1520.95836118627,1850.21005909703
1513.84871808906,1850.22005909703
1507.38686060504,1850.23005909703
1497.74172911253,1850.24005909703
1487.03995577014,1850.25005909703
1478.36410084882,1850.26005909703
1472.85359530135,1850.27005909703
1473.59439901983,1850.28005909703
1479.75301979327,1850.29005909703
1486.70888937365,1850.30005909703
1490.00496334202,1850.31005909703
1490.48724687229,1850.32005909703
1495.67213105839,1850.33005909703
1500.67618450537,1850.34005909703
1514.64081098386,1850.35005909703
1537.34468489648,1850.36005909703
1574.69841954163,1850.37005909703
1632.66559313875,1850.38005909703
1709.47180886802,1850.39005909703
1806.35817277817,1850.40005909703
1920.11554581386,1850.41005909703
2047.55782833228,1850.42005909703
2183.13045272029,1850.43005909703
2320.64422813049,1850.44005909703
2454.53944080202,1850.45005909703
2577.26883299262,1850.46005909703
2685.50882355214,1850.47005909703
2772.18234882986,1850.48005909703
2840.72038708084,1850.49005909703
2893.36776370929,1850.50005909703
2928.17630887587,1850.51005909703
2946.20184274195,1850.52005909703
2948.619679548,1850.53005909703
2944.41912852445,1850.54005909703
2929.72880659428,1850.55005909703
2910.52945128184,1850.56005909703
2886.43970843456,1850.57005909703
2859.7226123049,1850.58005909703
2830.32571293365,1850.59005909703
2799.14167324035,1850.60005909703
2766.12282544913,1850.61005909703
2730.99391733965,1850.62005909703
2696.66766978724,1850.63005909703
2662.30403436219,1850.64005909703
2631.91608400053,1850.65005909703
2600.35489302106,1850.66005909703
2569.76656727887,1850.67005909703
2540.11361612635,1850.68005909703
2511.23058148452,1850.69005909703
2486.01773543109,1850.70005909703
2466.2606466481,1850.71005909703
2452.66372014478,1850.72005909703
2447.01037322999,1850.73005909703
2444.74177788545,1850.74005909703
2445.0817151507,1850.75005909703
2444.55604423181,1850.76005909703
2441.21814686897,1850.77005909703
2434.7549098893,1850.78005909703
2429.00421525309,1850.79005909703
2418.92521049026,1850.80005909703
2407.58870051441,1850.81005909703
2392.04340142215,1850.82005909703
2373.07946664649,1850.83005909703
2353.03495346478,1850.84005909703
2333.03332047793,1850.85005909703
2311.42891721308,1850.86005909703
2290.81695087897,1850.87005909703
2268.90067165069,1850.88005909703
2244.60254284605,1850.89005909703
2217.5400346439,1850.90005909703
2195.09793751103,1850.91005909703
2170.12760647803,1850.92005909703
2147.73307239069,1850.93005909703
2131.03430548831,1850.94005909703
2116.50750223582,1850.95005909703
2100.40511492087,1850.96005909703
2079.10965834631,1850.97005909703
2056.79338834739,1850.98005909703
2031.48634950844,1850.99005909703
2006.44155329996,1851.00005909703
1975.2774063864,1851.01005909703
1950.23397269653,1851.02005909703
1927.59324318714,1851.03005909703
1908.85231618,1851.04005909703
1893.96524131278,1851.05005909703
1877.07716826443,1851.06005909703
1855.9090697409,1851.07005909703
1835.71991727251,1851.08005909703
1817.54119730459,1851.09005909703
1805.96272966994,1851.10005909703
1797.54503504179,1851.11005909703
1794.84280610372,1851.12005909703
1795.05032432426,1851.13005909703
1794.377256706,1851.14005909703
1791.96161291696,1851.15005909703
1788.98824249424,1851.16005909703
1788.53257544391,1851.17005909703
1793.11166856829,1851.18005909703
1798.44305340706,1851.19005909703
1802.43718024442,1851.20005909703
1805.66611312012,1851.21005909703
1808.90803229995,1851.22005909703
1812.55949136632,1851.23005909703
1813.0158763371,1851.24005909703
1813.16991545213,1851.25005909703
1811.95705959403,1851.26005909703
1809.74320591598,1851.27005909703
1808.48022061509,1851.28005909703
1809.25835735296,1851.29005909703
1811.03986928912,1851.30005909703
1817.5857145915,1851.31005909703
1821.21365484895,1851.32005909703
1823.27462133372,1851.33005909703
1828.86596173231,1851.34005909703
1839.06417863597,1851.35005909703
1856.05103607496,1851.36005909703
1887.07097314997,1851.37005909703
1932.2772114082,1851.38005909703
1997.39532285421,1851.39005909703
2080.24024088648,1851.40005909703
2177.74942759311,1851.41005909703
2286.73611515628,1851.42005909703
2401.70776731239,1851.43005909703
2519.11779614837,1851.44005909703
2633.85830729351,1851.45005909703
2743.31673813075,1851.46005909703
2837.87296608108,1851.47005909703
2915.78620238266,1851.48005909703
2977.5534183746,1851.49005909703
3018.42621071641,1851.50005909703
3039.88178098646,1851.51005909703
3043.82959226236,1851.52005909703
3037.04758556626,1851.53005909703
3015.95944005009,1851.54005909703
2986.82316663438,1851.55005909703
2951.92713388297,1851.56005909703
2915.19347115507,1851.57005909703
2878.39726671521,1851.58005909703
2841.86344803258,1851.59005909703
2804.8400822603,1851.60005909703
2766.33831226401,1851.61005909703
2723.24679322881,1851.62005909703
2678.47053358415,1851.63005909703
2633.74035415103,1851.64005909703
2591.7042276025,1851.65005909703
2554.63655502288,1851.66005909703
2521.53200644242,1851.67005909703
2491.94082550039,1851.68005909703
2465.53299803456,1851.69005909703
2449.01367720002,1851.70005909703
2442.65437405267,1851.71005909703
2445.54015604762,1851.72005909703
2449.06320365888,1851.73005909703
2449.29124740206,1851.74005909703
2445.1070496765,1851.75005909703
2438.13131022748,1851.76005909703
2426.91421290241,1851.77005909703
2414.6985862937,1851.78005909703
2401.55663927245,1851.79005909703
2385.52256152945,1851.80005909703
2370.88448904971,1851.81005909703
2351.90461271574,1851.82005909703
2330.51827445484,1851.83005909703
2309.25345847663,1851.84005909703
2284.19039442902,1851.85005909703
2258.21550822896,1851.86005909703
2228.89119189701,1851.87005909703
2197.91395354559,1851.88005909703
2171.18124970129,1851.89005909703
2142.20231320419,1851.90005909703
2116.87195820414,1851.91005909703
2095.7896387658,1851.92005909703
2077.50686051307,1851.93005909703
2059.10771821143,1851.94005909703
2041.04775654308,1851.95005909703
2021.53738959939,1851.96005909703
2002.07080927982,1851.97005909703
1986.07285839645,1851.98005909703
1968.40262107549,1851.99005909703
1951.62108808537,1852.00005909703
1937.31412876757,1852.01005909703
1919.930264312,1852.02005909703
1901.31855247341,1852.03005909703
1886.53348322054,1852.04005909703
1867.82800025144,1852.05005909703
1852.02057003849,1852.06005909703
1840.76404447551,1852.07005909703
1825.16246019151,1852.08005909703
1815.16315318943,1852.09005909703
1806.99364195003,1852.10005909703
1799.44117553772,1852.11005909703
1790.29805046488,1852.12005909703
1776.83367297639,1852.13005909703
1762.31167460672,1852.14005909703
1747.05044933542,1852.15005909703
1730.85852716317,1852.16005909703
1721.24355636936,1852.17005909703
1714.62567331107,1852.18005909703
1708.08143565507,1852.19005909703
1701.18867589248,1852.20005909703
1694.89413594124,1852.21005909703
1684.76538578521,1852.22005909703
1676.13796282129,1852.23005909703
1667.4477302062,1852.24005909703
1657.71717037138,1852.25005909703
1648.77820524406,1852.26005909703
1638.4964401221,1852.27005909703
1625.89731023905,1852.28005909703
1613.51893470161,1852.29005909703
1604.01884910534,1852.30005909703
1597.77521465136,1852.31005909703
1591.99398270359,1852.32005909703
1588.34231210505,1852.33005909703
1581.15689966812,1852.34005909703
1574.50571587461,1852.35005909703
1571.46444338613,1852.36005909703
1570.13327490835,1852.37005909703
1579.68123281264,1852.38005909703
1603.28571449461,1852.39005909703
1643.16004196208,1852.40005909703
1703.88225600955,1852.41005909703
1784.18141831638,1852.42005909703
1890.95643527629,1852.43005909703
2015.90199599542,1852.44005909703
2169.87703990348,1852.45005909703
2344.58066403297,1852.46005909703
2520.81834766343,1852.47005909703
2692.60616598243,1852.48005909703
2855.29997356135,1852.49005909703
2997.02227263758,1852.50005909703
3116.03789082429,1852.51005909703
3211.43964887975,1852.52005909703
3287.11520851143,1852.53005909703
3338.51311917591,1852.54005909703
3364.35312538592,1852.55005909703
3375.00113107347,1852.56005909703
3370.04683727751,1852.57005909703
3354.92487444422,1852.58005909703
3333.29578255562,1852.59005909703
3309.44741815907,1852.60005909703
3279.78574794337,1852.61005909703
3247.08242802752,1852.62005909703
3211.84961862085,1852.63005909703
3174.32570147171,1852.64005909703
3134.0168660314,1852.65005909703
3094.01099468938,1852.66005909703
3056.6338914653,1852.67005909703
3016.18110080385,1852.68005909703
2968.81736404966,1852.69005909703
2924.7477120664,1852.70005909703
2879.7080598564,1852.71005909703
2834.74024292417,1852.72005909703
2789.67125101825,1852.73005909703
2747.72371364198,1852.74005909703
2708.80880673198,1852.75005909703
2672.82620188305,1852.76005909703
2641.79577762177,1852.77005909703
2614.36584083297,1852.78005909703
2588.30834530631,1852.79005909703
2565.40844847389,1852.80005909703
2544.94252961805,1852.81005909703
2521.8646593107,1852.82005909703
2494.32729749697,1852.83005909703
2465.32480651308,1852.84005909703
2434.63414522176,1852.85005909703
2408.63977381232,1852.86005909703
2386.09518212948,1852.87005909703
2362.926152453,1852.88005909703
2339.92001755791,1852.89005909703
2312.38104654533,1852.90005909703
2283.35634546761,1852.91005909703
2252.09440425984,1852.92005909703
2221.15883363074,1852.93005909703
2188.51222765078,1852.94005909703
2157.22529492343,1852.95005909703
2121.17419521951,1852.96005909703
2083.21711653694,1852.97005909703
2041.98102969316,1852.98005909703
2003.91555409077,1852.99005909703
1967.15930703209,1853.00005909703
1930.09360022034,1853.01005909703
1896.88702118888,1853.02005909703
1864.70024837564,1853.03005909703
1837.53657861103,1853.04005909703
1811.10015791554,1853.05005909703
1788.75929144507,1853.06005909703
1764.30737803819,1853.07005909703
1744.03929003824,1853.08005909703
1723.05352436708,1853.09005909703
1698.08507678647,1853.10005909703
1671.12397685214,1853.11005909703
1645.61398251285,1853.12005909703
1618.40941752852,1853.13005909703
1592.27333289621,1853.14005909703
1571.96674283021,1853.15005909703
1556.64335075418,1853.16005909703
1542.43788988875,1853.17005909703
1531.1560404253,1853.18005909703
1519.92990544685,1853.19005909703
1507.04873357058,1853.20005909703
1491.17094940217,1853.21005909703
1478.94008231909,1853.22005909703
1467.94844955272,1853.23005909703
1456.46169057264,1853.24005909703
1448.07806148452,1853.25005909703
1441.01634077274,1853.26005909703
1438.78758073695,1853.27005909703
1436.79352421489,1853.28005909703
1431.73709414785,1853.29005909703
1421.9169847404,1853.30005909703
1412.20328109137,1853.31005909703
1406.36876549963,1853.32005909703
1402.99071674199,1853.33005909703
1399.52931321566,1853.34005909703
1394.24833015602,1853.35005909703
1390.62146538595,1853.36005909703
1382.50264062424,1853.37005909703
1377.14934698018,1853.38005909703
1372.14478805201,1853.39005909703
1369.48168526645,1853.40005909703
1370.11180116251,1853.41005909703
1369.25119644976,1853.42005909703
1374.14519733996,1853.43005909703
1385.58840829079,1853.44005909703
1404.34918613824,1853.45005909703
1436.18065507596,1853.46005909703
1489.72201462849,1853.47005909703
1563.30946576176,1853.48005909703
1659.87520887388,1853.49005909703
1780.56832498585,1853.50005909703
1920.58446069622,1853.51005909703
2076.57997547902,1853.52005909703
2240.55435246395,1853.53005909703
2402.34029155608,1853.54005909703
2546.24694548736,1853.55005909703
2672.15665012261,1853.56005909703
2785.55201474981,1853.57005909703
2874.78156960383,1853.58005909703
2941.84875969007,1853.59005909703
2990.78726811761,1853.60005909703
3023.35397431542,1853.61005909703
3040.78081270249,1853.62005909703
3040.81033807046,1853.63005909703
3032.95695050579,1853.64005909703
3018.10272142989,1853.65005909703
2999.75234827212,1853.66005909703
2972.72424602227,1853.67005909703
2937.84360352151,1853.68005909703
2898.94632791376,1853.69005909703
2862.44266168707,1853.70005909703
2824.09029453849,1853.71005909703
2779.40248543504,1853.72005909703
2736.55265488812,1853.73005909703
2695.2298034034,1853.74005909703
2648.47226167322,1853.75005909703
2599.41418637433,1853.76005909703
2546.87868286573,1853.77005909703
2492.96323086762,1853.78005909703
2446.34239620092,1853.79005909703
2407.87645402669,1853.80005909703
2376.61158115233,1853.81005909703
2354.85460932969,1853.82005909703
2332.64590340408,1853.83005909703
2315.47146968846,1853.84005909703
2299.01118584038,1853.85005909703
2285.13673554781,1853.86005909703
2277.48215515408,1853.87005909703
2268.114099727,1853.88005909703
2262.10699965834,1853.89005909703
2249.99661785217,1853.90005909703
2237.87066288881,1853.91005909703
2227.35850120185,1853.92005909703
2211.26693480533,1853.93005909703
2193.3418201546,1853.94005909703
2172.07662767797,1853.95005909703
2146.59276612581,1853.96005909703
2117.25753027175,1853.97005909703
2086.78347497462,1853.98005909703
2060.48657477837,1853.99005909703
2033.58916507749,1854.00005909703
2001.82177661553,1854.01005909703
1972.17847846942,1854.02005909703
1944.11279141226,1854.03005909703
1913.89499269701,1854.04005909703
1879.30951028025,1854.05005909703
1845.94186159347,1854.06005909703
1812.67572466902,1854.07005909703
1783.97319039255,1854.08005909703
1761.60986990972,1854.09005909703
1743.7230324613,1854.10005909703
1734.4758912802,1854.11005909703
1722.55659546591,1854.12005909703
1711.30626291054,1854.13005909703
1698.9502994525,1854.14005909703
1686.23761812194,1854.15005909703
1673.91251380957,1854.16005909703
1659.60932118075,1854.17005909703
1644.61476912063,1854.18005909703
1628.41668781622,1854.19005909703
1611.46521088323,1854.20005909703
1593.04771669012,1854.21005909703
1577.65394238227,1854.22005909703
1562.7941364316,1854.23005909703
1548.15434480857,1854.24005909703
1541.30406190611,1854.25005909703
1535.15789874771,1854.26005909703
1528.14181607777,1854.27005909703
1524.81723468748,1854.28005909703
1522.75470249684,1854.29005909703
1520.71720436625,1854.30005909703
1516.54449354346,1854.31005909703
1510.17430317691,1854.32005909703
1507.78673117025,1854.33005909703
1508.04378891015,1854.34005909703
1508.05527656077,1854.35005909703
1504.77231505737,1854.36005909703
1498.07909736294,1854.37005909703
1495.77216792222,1854.38005909703
1493.71091477978,1854.39005909703
1489.44589460549,1854.40005909703
1485.60423025341,1854.41005909703
1483.68263499959,1854.42005909703
1481.554973259,1854.43005909703
1477.86133322999,1854.44005909703
1478.77973137418,1854.45005909703
1486.18945346987,1854.46005909703
1498.57238801749,1854.47005909703
1523.08751737204,1854.48005909703
1570.04899582066,1854.49005909703
1637.71699539623,1854.50005909703
1730.6614180575,1854.51005909703
1844.46281383943,1854.52005909703
1977.97324880765,1854.53005909703
2122.90536200136,1854.54005909703
2272.72219192432,1854.55005909703
2425.4921321883,1854.56005909703
2573.93997596407,1854.57005909703
2708.42001868256,1854.58005909703
2822.10021549818,1854.59005909703
2914.54790003076,1854.60005909703
2977.01849118204,1854.61005909703
3021.23937320051,1854.62005909703
3048.29244842513,1854.63005909703
3059.81906052506,1854.64005909703
3050.47768743581,1854.65005909703
3031.80050802242,1854.66005909703
3002.38363483883,1854.67005909703
2969.17688410984,1854.68005909703
2931.3146355377,1854.69005909703
2891.23059315653,1854.70005909703
2850.22672386339,1854.71005909703
2804.57816616715,1854.72005909703
2757.60959576702,1854.73005909703
2708.12658631991,1854.74005909703
2654.74066916634,1854.75005909703
2600.91530251492,1854.76005909703
2555.18082378288,1854.77005909703
2514.61629118051,1854.78005909703
2476.66907544988,1854.79005909703
2445.44558266407,1854.80005909703
2418.37465238734,1854.81005909703
2398.68763909849,1854.82005909703
2385.08628334953,1854.83005909703
2378.17601542886,1854.84005909703
2375.26114021192,1854.85005909703
2375.7726022923,1854.86005909703
2379.03486210673,1854.87005909703
2384.61444272988,1854.88005909703
2387.34602488616,1854.89005909703
2386.25864090278,1854.90005909703
2379.43685462575,1854.91005909703
2371.31613870412,1854.92005909703
2362.28237060503,1854.93005909703
2347.2650530715,1854.94005909703
2334.04781885846,1854.95005909703
2316.1518038956,1854.96005909703
2298.45330968035,1854.97005909703
2276.85729320103,1854.98005909703
2252.52186234114,1854.99005909703
2226.28984801159,1855.00005909703
2198.25529052664,1855.01005909703
2170.04202809396,1855.02005909703
2145.50168530806,1855.03005909703
2124.59958828311,1855.04005909703
2108.70063602687,1855.05005909703
2092.81413735686,1855.06005909703
2072.9346722625,1855.07005909703
2053.55230714813,1855.08005909703
2034.68260438602,1855.09005909703
2016.48943736759,1855.10005909703
1995.41080016678,1855.11005909703
1980.46364911397,1855.12005909703
1966.49815231326,1855.13005909703
1951.09485512496,1855.14005909703
1938.77136123377,1855.15005909703
1926.82972579232,1855.16005909703
1917.13857833789,1855.17005909703
1906.21030738836,1855.18005909703
1892.66631587367,1855.19005909703
1880.45398955429,1855.20005909703
1864.81425209359,1855.21005909703
1847.47367714759,1855.22005909703
1830.40621479952,1855.23005909703
1809.77193889537,1855.24005909703
1792.56931882852,1855.25005909703
1775.46606466495,1855.26005909703
1759.19916509185,1855.27005909703
1746.75131783976,1855.28005909703
1737.00598555886,1855.29005909703
1727.734446861,1855.30005909703
1726.01177897641,1855.31005909703
1718.0488444962,1855.32005909703
1710.29485123278,1855.33005909703
1696.44351039141,1855.34005909703
1683.24251631088,1855.35005909703
1672.79070365306,1855.36005909703
1665.73951541426,1855.37005909703
1661.35687782584,1855.38005909703
1655.21649499732,1855.39005909703
1656.39069850945,1855.40005909703
1667.95696223444,1855.41005909703
1695.58745249334,1855.42005909703
1747.90876014986,1855.43005909703
1825.87115110908,1855.44005909703
1929.39417400497,1855.45005909703
2055.90091049583,1855.46005909703
2204.29867019992,1855.47005909703
2365.00217578056,1855.48005909703
2528.80058326412,1855.49005909703
2686.35350479651,1855.50005909703
2830.56388793038,1855.51005909703
2952.85890317788,1855.52005909703
3056.75872051813,1855.53005909703
3134.98585705049,1855.54005909703
3188.5683905711,1855.55005909703
3220.33418907606,1855.56005909703
3236.41377216157,1855.57005909703
3239.44426840357,1855.58005909703
3227.36975751772,1855.59005909703
3206.56871393757,1855.60005909703
3179.68484432455,1855.61005909703
3148.9535765698,1855.62005909703
3119.44047540031,1855.63005909703
3088.14975748045,1855.64005909703
3052.66281224779,1855.65005909703
3015.62195588993,1855.66005909703
2973.83334192849,1855.67005909703
2931.29818817114,1855.68005909703
2884.36211658804,1855.69005909703
2838.56169936438,1855.70005909703
2791.91559057176,1855.71005909703
2746.06719362522,1855.72005909703
2703.47678032991,1855.73005909703
2663.50488363134,1855.74005909703
2630.36141452655,1855.75005909703
2600.54805761227,1855.76005909703
2574.37144652387,1855.77005909703
2551.31250897744,1855.78005909703
2535.77391052657,1855.79005909703
2520.37636688933,1855.80005909703
2504.70268143134,1855.81005909703
2488.84869305663,1855.82005909703
2468.43114797461,1855.83005909703
2448.34475226873,1855.84005909703
2427.23345629428,1855.85005909703
2408.23334078127,1855.86005909703
2385.09132346779,1855.87005909703
2358.56724785711,1855.88005909703
2328.91869112602,1855.89005909703
2294.55217145181,1855.90005909703
2261.87793244237,1855.91005909703
2234.016212621,1855.92005909703
2205.32181786126,1855.93005909703
2175.17362326541,1855.94005909703
2138.81433997279,1855.95005909703
2109.23123622885,1855.96005909703
2077.18545712551,1855.97005909703
2049.6062197789,1855.98005909703
2017.52451000967,1855.99005909703
1981.65140260958,1856.00005909703
1941.06623533466,1856.01005909703
1896.93237304438,1856.02005909703
1861.02922155562,1856.03005909703
1831.91266651547,1856.04005909703
1804.37112795752,1856.05005909703
1775.30282917854,1856.06005909703
1746.14846883204,1856.07005909703
1713.43865186987,1856.08005909703
1687.47091481089,1856.09005909703
1663.54592441537,1856.10005909703
1644.2743255454,1856.11005909703
1625.84148209057,1856.12005909703
1611.70601851621,1856.13005909703
1601.85932917009,1856.14005909703
1592.91007868929,1856.15005909703
1585.82347274029,1856.16005909703
1580.24755696888,1856.17005909703
1578.38160914243,1856.18005909703
1569.03823253396,1856.19005909703
1561.26700900784,1856.20005909703
1553.12084832598,1856.21005909703
1545.19829448728,1856.22005909703
1534.81921900143,1856.23005909703
1528.16953582399,1856.24005909703
1523.32059823655,1856.25005909703
1522.93188136295,1856.26005909703
1525.44512511734,1856.27005909703
1526.18597235951,1856.28005909703
1525.80474241819,1856.29005909703
1523.85382894375,1856.30005909703
1519.30197230209,1856.31005909703
1513.70728383693,1856.32005909703
1506.13912024104,1856.33005909703
1499.1742337702,1856.34005909703
1495.77808143909,1856.35005909703
1491.42723917572,1856.36005909703
1489.92176561817,1856.37005909703
1489.76470705679,1856.38005909703
1487.5191284307,1856.39005909703
1483.21694212913,1856.40005909703
1480.12876542578,1856.41005909703
1484.24060842513,1856.42005909703
1490.62864481697,1856.43005909703
1513.229538929,1856.44005909703
1561.59899126375,1856.45005909703
1637.48798230158,1856.46005909703
1740.28779050089,1856.47005909703
1868.47380641924,1856.48005909703
2014.36031775796,1856.49005909703
2173.94028789011,1856.50005909703
2343.29300756302,1856.51005909703
2511.55189803274,1856.52005909703
2668.26977254974,1856.53005909703
2809.68979468426,1856.54005909703
2934.29406426415,1856.55005909703
3032.62635226445,1856.56005909703
3107.47250578609,1856.57005909703
3165.04167058559,1856.58005909703
3200.61576568112,1856.59005909703
3218.50267238618,1856.60005909703
3221.98487935404,1856.61005909703
3214.58522452127,1856.62005909703
3199.42462386046,1856.63005909703
3186.42388547734,1856.64005909703
3164.8588174427,1856.65005909703
3141.66533131007,1856.66005909703
3117.72803426623,1856.67005909703
3089.06393796811,1856.68005909703
3056.77517210464,1856.69005909703
3022.71712230008,1856.70005909703
2985.51788728326,1856.71005909703
2944.01548440518,1856.72005909703
2903.36708469192,1856.73005909703
2858.86680563078,1856.74005909703
2811.24329475737,1856.75005909703
2765.6013050885,1856.76005909703
2720.72592621867,1856.77005909703
2673.90410426006,1856.78005909703
2630.21897948832,1856.79005909703
2590.57603161598,1856.80005909703
2557.57017498332,1856.81005909703
2533.55373955295,1856.82005909703
2512.65590055175,1856.83005909703
2496.26339045445,1856.84005909703
2478.15880089533,1856.85005909703
2460.11721896627,1856.86005909703
2439.97292465692,1856.87005909703
2417.52084540592,1856.88005909703
2389.16500425744,1856.89005909703
2358.67962351976,1856.90005909703
2327.96310369066,1856.91005909703
2300.15456347958,1856.92005909703
2270.80773582038,1856.93005909703
2241.78843511711,1856.94005909703
2213.2470897417,1856.95005909703
2184.33308645479,1856.96005909703
2155.63207547926,1856.97005909703
2125.14664867158,1856.98005909703
2095.09931988573,1856.99005909703
2064.08795456492,1857.00005909703
2028.59373329016,1857.01005909703
1986.64117091096,1857.02005909703
1945.77745736745,1857.03005909703
1906.67088240739,1857.04005909703
1868.91112267708,1857.05005909703
1836.72705115845,1857.06005909703
1802.57669731564,1857.07005909703
1770.78928631845,1857.08005909703
1741.30068587373,1857.09005909703
1714.47267713639,1857.10005909703
1690.77370349049,1857.11005909703
1670.27904497821,1857.12005909703
1648.98916240463,1857.13005909703
1625.79655970961,1857.14005909703
1601.40341755828,1857.15005909703
1580.15751560748,1857.16005909703
1559.69103136225,1857.17005909703
1542.85983831898,1857.18005909703
1520.03872464233,1857.19005909703
1502.13833225077,1857.20005909703
1486.18926071327,1857.21005909703
1469.42881721442,1857.22005909703
1451.63283644169,1857.23005909703
1429.97157775542,1857.24005909703
1406.12269351954,1857.25005909703
1379.78867226133,1857.26005909703
1348.96838209847,1857.27005909703
1320.38674466268,1857.28005909703
1300.82497669652,1857.29005909703
1281.646133494,1857.30005909703
1263.78537566064,1857.31005909703
1251.91192016365,1857.32005909703
1239.53167825285,1857.33005909703
1230.42858166243,1857.34005909703
1220.93649105641,1857.35005909703
1213.53928406875,1857.36005909703
1206.12792639592,1857.37005909703
1201.51450279855,1857.38005909703
1202.04812771162,1857.39005909703
1205.06419375944,1857.40005909703
1212.49039948278,1857.41005909703
1219.39054481786,1857.42005909703
1223.79762543979,1857.43005909703
1230.42259079532,1857.44005909703
1236.21525911161,1857.45005909703
1238.73302224824,1857.46005909703
1241.71288197512,1857.47005909703
1248.06302598831,1857.48005909703
1265.19021263381,1857.49005909703
1292.22731957713,1857.50005909703
1329.40951436606,1857.51005909703
1386.31919419782,1857.52005909703
1472.47453871551,1857.53005909703
1583.26986259825,1857.54005909703
1713.92269954175,1857.55005909703
1866.74740002459,1857.56005909703
2034.78386662639,1857.57005909703
2208.41040868564,1857.58005909703
2378.72995290653,1857.59005909703
2533.70406369552,1857.60005909703
2671.57572127333,1857.61005909703
2786.22083048542,1857.62005909703
2877.88464750671,1857.63005909703
2949.49282577655,1857.64005909703
2999.04050627195,1857.65005909703
3025.61203408602,1857.66005909703
3035.82571871253,1857.67005909703
3028.76526091313,1857.68005909703
3012.59854032329,1857.69005909703
2991.62474809001,1857.70005909703
2966.97449776544,1857.71005909703
2936.83248436921,1857.72005909703
2900.70498476088,1857.73005909703
2856.96726915114,1857.74005909703
2813.05394725014,1857.75005909703
2763.67307296042,1857.76005909703
2719.77248477557,1857.77005909703
2672.98543816956,1857.78005909703
2626.1421714702,1857.79005909703
2583.54157284642,1857.80005909703
2542.58255575762,1857.81005909703
2504.52211976561,1857.82005909703
2472.2352997161,1857.83005909703
2444.8452829194,1857.84005909703
2423.54144867196,1857.85005909703
2404.84713965985,1857.86005909703
2388.73735740138,1857.87005909703
2377.83805830156,1857.88005909703
2370.27715499033,1857.89005909703
2362.06797447042,1857.90005909703
2354.92810267207,1857.91005909703
2353.14870662338,1857.92005909703
2348.90594748829,1857.93005909703
2341.42202603187,1857.94005909703
2332.25879670021,1857.95005909703
2316.56710489096,1857.96005909703
2299.56552049926,1857.97005909703
2277.91730056457,1857.98005909703
2253.3876937888,1857.99005909703
2230.06003359049,1858.00005909703
2198.84443981553,1858.01005909703
2165.33708075399,1858.02005909703
2137.23740108997,1858.03005909703
2107.49176369013,1858.04005909703
2084.73950833683,1858.05005909703
2060.39973676759,1858.06005909703
2036.85514977792,1858.07005909703
2009.72196256709,1858.08005909703
1986.76121106921,1858.09005909703
1963.84742585485,1858.10005909703
1938.89876399173,1858.11005909703
1912.55206019807,1858.12005909703
1886.4508994212,1858.13005909703
1864.194063642,1858.14005909703
1843.1093772771,1858.15005909703
1824.35122704487,1858.16005909703
1806.05244878259,1858.17005909703
1793.04578102839,1858.18005909703
1777.23824320503,1858.19005909703
1762.92196445129,1858.20005909703
1751.69475855632,1858.21005909703
1740.47258341289,1858.22005909703
1732.44937135581,1858.23005909703
1724.71819827809,1858.24005909703
1709.61624593551,1858.25005909703
1692.37276588477,1858.26005909703
1671.67737457194,1858.27005909703
1655.38810102101,1858.28005909703
1644.07322730672,1858.29005909703
1633.72230520339,1858.30005909703
1624.95391613784,1858.31005909703
1613.16142615484,1858.32005909703
1607.02929886857,1858.33005909703
1604.61068567385,1858.34005909703
1601.30475779984,1858.35005909703
1600.92930811652,1858.36005909703
1601.0102024123,1858.37005909703
1600.95427298071,1858.38005909703
1603.493819568,1858.39005909703
1603.49255584219,1858.40005909703
1598.70639017087,1858.41005909703
1593.85028980772,1858.42005909703
1590.83418586451,1858.43005909703
1588.697720902,1858.44005909703
1586.66321477875,1858.45005909703
1585.42649431836,1858.46005909703
1586.39517418433,1858.47005909703
1583.58145429313,1858.48005909703
1579.29369127036,1858.49005909703
1580.4685119581,1858.50005909703
1590.89751816473,1858.51005909703
1622.43763316541,1858.52005909703
1672.22756247288,1858.53005909703
1743.02869285374,1858.54005909703
1837.59641254983,1858.55005909703
1952.64729656166,1858.56005909703
2082.59426059174,1858.57005909703
2221.57496624333,1858.58005909703
2365.68903851378,1858.59005909703
2499.92030760871,1858.60005909703
2617.11541089583,1858.61005909703
2720.40809083567,1858.62005909703
2805.28146682596,1858.63005909703
2873.73309517473,1858.64005909703
2925.97677321046,1858.65005909703
2963.37656169063,1858.66005909703
2987.05422848574,1858.67005909703
2994.20512355628,1858.68005909703
2988.88529561498,1858.69005909703
2976.51435714958,1858.70005909703
2954.29616859951,1858.71005909703
2920.9997831344,1858.72005909703
2885.82532500031,1858.73005909703
2848.70454386035,1858.74005909703
2813.78474653066,1858.75005909703
2777.27007512852,1858.76005909703
2743.9836890318,1858.77005909703
2705.45652630834,1858.78005909703
2661.35254968776,1858.79005909703
2618.52053774439,1858.80005909703
2578.17023068204,1858.81005909703
2546.80048985777,1858.82005909703
2516.69536836805,1858.83005909703
2488.78660161191,1858.84005909703
2466.75891865963,1858.85005909703
2450.83937804949,1858.86005909703
2444.44854303554,1858.87005909703
2440.51351118137,1858.88005909703
2433.70530942024,1858.89005909703
2421.32909112061,1858.90005909703
2408.98242124882,1858.91005909703
2393.16105712726,1858.92005909703
2376.47591228661,1858.93005909703
2359.26388519359,1858.94005909703
2342.28998899083,1858.95005909703
2323.26310389966,1858.96005909703
2303.06517198922,1858.97005909703
2279.71256958946,1858.98005909703
2254.05731456098,1858.99005909703
2228.84257529194,1859.00005909703
2198.86328504405,1859.01005909703
2169.36355574508,1859.02005909703
2140.12748380321,1859.03005909703
2110.11508989404,1859.04005909703
2081.38482327214,1859.05005909703
2053.07780469699,1859.06005909703
2024.60772950632,1859.07005909703
1992.52145733444,1859.08005909703
1964.31184167505,1859.09005909703
1940.52699184805,1859.10005909703
1919.88350325069,1859.11005909703
1902.25498379834,1859.12005909703
1884.27031671421,1859.13005909703
1865.30707813298,1859.14005909703
1846.42848964113,1859.15005909703
1824.66869647983,1859.16005909703
1806.10356244611,1859.17005909703
1785.70968937074,1859.18005909703
1767.09050892735,1859.19005909703
1746.72237833896,1859.20005909703
1728.08881183899,1859.21005909703
1707.67414213329,1859.22005909703
1689.7985071178,1859.23005909703
1678.58490911281,1859.24005909703
1670.17436035959,1859.25005909703
1662.02389588221,1859.26005909703
1654.59122630193,1859.27005909703
1644.14332771447,1859.28005909703
1628.62617530862,1859.29005909703
1613.62264131166,1859.30005909703
1599.76513238449,1859.31005909703
1589.2504450432,1859.32005909703
1578.81890802844,1859.33005909703
1573.84257587796,1859.34005909703
1563.76531477712,1859.35005909703
1554.96986988385,1859.36005909703
1547.3086181196,1859.37005909703
1536.58980711189,1859.38005909703
1528.18410995968,1859.39005909703
1524.73418579719,1859.40005909703
1520.4453214254,1859.41005909703
1519.64125176245,1859.42005909703
1521.09366855093,1859.43005909703
1525.41987900419,1859.44005909703
1531.71104799596,1859.45005909703
1538.81655766652,1859.46005909703
1543.44604901856,1859.47005909703
1543.80000616517,1859.48005909703
1543.80202657835,1859.49005909703
1545.80812495114,1859.50005909703
1554.03346313814,1859.51005909703
1577.27159758899,1859.52005909703
1618.71402547001,1859.53005909703
1686.68654930506,1859.54005909703
1779.19492548717,1859.55005909703
1895.61432148361,1859.56005909703
2036.17732189655,1859.57005909703
2196.87618443781,1859.58005909703
2364.71189795361,1859.59005909703
2534.79440783354,1859.60005909703
2695.76964082726,1859.61005909703
2845.12149143735,1859.62005909703
2974.34378900164,1859.63005909703
3078.18331872566,1859.64005909703
3157.10490025826,1859.65005909703
3216.08778089207,1859.66005909703
3256.9021097657,1859.67005909703
3280.11485620958,1859.68005909703
3291.11157089287,1859.69005909703
3282.932406337,1859.70005909703
3259.44708384522,1859.71005909703
3225.98133939349,1859.72005909703
3191.02573793394,1859.73005909703
3151.09936230075,1859.74005909703
3108.94091918904,1859.75005909703
3066.82830470268,1859.76005909703
3025.74829973361,1859.77005909703
2988.78989263925,1859.78005909703
2943.43818952638,1859.79005909703
2895.16474691896,1859.80005909703
2847.09022481646,1859.81005909703
2797.54565452242,1859.82005909703
2747.39396762728,1859.83005909703
2699.94194288159,1859.84005909703
2649.89293944083,1859.85005909703
2603.54844400399,1859.86005909703
2566.07483498983,1859.87005909703
2533.89981091948,1859.88005909703
2508.4566218741,1859.89005909703
2491.17847901378,1859.90005909703
2478.93712752152,1859.91005909703
2470.10083747873,1859.92005909703
2460.88910702997,1859.93005909703
2455.53336639205,1859.94005909703
2449.47424438743,1859.95005909703
2437.67960984463,1859.96005909703
2424.02114203051,1859.97005909703
2406.93117071714,1859.98005909703
2383.99684402757,1859.99005909703
2360.84633687342,1860.00005909703
2336.63374213656,1860.01005909703
2312.54256270091,1860.02005909703
2286.58664234725,1860.03005909703
2257.09966002166,1860.04005909703
2224.1905675971,1860.05005909703
2187.41418960888,1860.06005909703
2149.30546447638,1860.07005909703
2113.22347294013,1860.08005909703
2078.19143173936,1860.09005909703
2041.09844708288,1860.10005909703
2008.9131595255,1860.11005909703
1975.98187030773,1860.12005909703
1941.21431204915,1860.13005909703
1908.62863470778,1860.14005909703
1879.90502293452,1860.15005909703
1850.75947469831,1860.16005909703
1824.30405150428,1860.17005909703
1798.39643505145,1860.18005909703
1772.36006039718,1860.19005909703
1746.37080905442,1860.20005909703
1720.44128330042,1860.21005909703
1696.00719206368,1860.22005909703
1670.27773191693,1860.23005909703
1650.13384314501,1860.24005909703
1633.67546892966,1860.25005909703
1611.68312790165,1860.26005909703
1589.8380787892,1860.27005909703
1565.35652633449,1860.28005909703
1544.86366414589,1860.29005909703
1530.48951646901,1860.30005909703
1516.63896912135,1860.31005909703
1500.06377625674,1860.32005909703
1485.48827700463,1860.33005909703
1473.93763901433,1860.34005909703
1458.52804768844,1860.35005909703
1437.35722431574,1860.36005909703
1422.53250781202,1860.37005909703
1410.74093999108,1860.38005909703
1404.46102965366,1860.39005909703
1402.09629612027,1860.40005909703
1394.69142608362,1860.41005909703
1393.89038205189,1860.42005909703
1391.62419357328,1860.43005909703
1390.052920128,1860.44005909703
1386.71978137062,1860.45005909703
1384.96036053592,1860.46005909703
1381.7804737014,1860.47005909703
1372.73521981495,1860.48005909703
1366.38399638571,1860.49005909703
1360.38105687947,1860.50005909703
1356.82986873011,1860.51005909703
1353.99223575898,1860.52005909703
1350.85630423556,1860.53005909703
1347.96726223891,1860.54005909703
1344.73698532303,1860.55005909703
1342.66706137867,1860.56005909703
1343.01219066508,1860.57005909703
1342.52549017147,1860.58005909703
1343.6899331239,1860.59005909703
1347.36353300147,1860.60005909703
1359.71917508635,1860.61005909703
1375.34714940071,1860.62005909703
1403.90057938442,1860.63005909703
1449.53153179809,1860.64005909703
1520.83556220018,1860.65005909703
1627.93661865382,1860.66005909703
1762.50582495764,1860.67005909703
1922.59481335306,1860.68005909703
2094.02209353412,1860.69005909703
2271.06037605169,1860.70005909703
2441.92937521005,1860.71005909703
2597.44142315219,1860.72005909703
2734.74942292917,1860.73005909703
2853.24816014894,1860.74005909703
2950.22180023092,1860.75005909703
3027.26187782203,1860.76005909703
3081.89056583943,1860.77005909703
3113.0849778725,1860.78005909703
3125.0344532281,1860.79005909703
3124.01635142296,1860.80005909703
3110.42598881493,1860.81005909703
3089.36267712455,1860.82005909703
3063.06907328364,1860.83005909703
3025.20119933761,1860.84005909703
2985.4282647133,1860.85005909703
2943.91445733836,1860.86005909703
2902.76270578325,1860.87005909703
2860.94455554921,1860.88005909703
2818.86164876569,1860.89005909703
2778.54393068884,1860.90005909703
2741.39711055632,1860.91005909703
2702.49152784454,1860.92005909703
2660.56989488149,1860.93005909703
2616.99433352285,1860.94005909703
2570.38731694906,1860.95005909703
2522.33468401293,1860.96005909703
2477.65845398615,1860.97005909703
2434.29179995127,1860.98005909703
2393.6823644477,1860.99005909703
2355.68952635962,1861.00005909703
2327.07430513782,1861.01005909703
2307.01695835284,1861.02005909703
2291.60046271283,1861.03005909703
2276.83490804116,1861.04005909703
2258.50697938091,1861.05005909703
2236.06806311786,1861.06005909703
2210.33177508697,1861.07005909703
2187.60477718967,1861.08005909703
2168.32681758829,1861.09005909703
2144.55079639117,1861.10005909703
2120.71664170891,1861.11005909703
2096.3593967004,1861.12005909703
2073.60799999374,1861.13005909703
2052.54979529608,1861.14005909703
2034.23204285723,1861.15005909703
2011.16310410458,1861.16005909703
1992.14062610647,1861.17005909703
1973.27267910271,1861.18005909703
1952.94207311188,1861.19005909703
1937.62812452095,1861.20005909703
1921.24680279434,1861.21005909703
1903.04733493073,1861.22005909703
1881.38141345423,1861.23005909703
1863.36870661214,1861.24005909703
1844.31820977711,1861.25005909703
1822.36203788264,1861.26005909703
1795.26638714657,1861.27005909703
1770.30211468522,1861.28005909703
1749.85615517696,1861.29005909703
1735.64125967449,1861.30005909703
1723.06576109556,1861.31005909703
1705.62036839272,1861.32005909703
1692.72352074996,1861.33005909703
1678.22440198676,1861.34005909703
1665.90963338097,1861.35005909703
1652.70271102757,1861.36005909703
1638.67199280335,1861.37005909703
1624.31245424592,1861.38005909703
1616.6136428947,1861.39005909703
1606.04408193564,1861.40005909703
1593.81527496648,1861.41005909703
1578.44062857834,1861.42005909703
1563.23818322212,1861.43005909703
1552.17021617759,1861.44005909703
1539.32553289991,1861.45005909703
1528.9960167927,1861.46005909703
1516.36490188402,1861.47005909703
1506.70900294896,1861.48005909703
1502.53591355657,1861.49005909703
1499.28275959389,1861.50005909703
1499.03649814304,1861.51005909703
1498.13314379623,1861.52005909703
1495.34364266065,1861.53005909703
1498.07090134919,1861.54005909703
1503.29446399558,1861.55005909703
1510.69595816722,1861.56005909703
1515.78809803694,1861.57005909703
1515.95298367952,1861.58005909703
1513.07243078427,1861.59005909703
1504.85504078193,1861.60005909703
1498.46684203116,1861.61005909703
1491.26666907157,1861.62005909703
1486.26117226715,1861.63005909703
1487.3106587802,1861.64005909703
1486.28227595104,1861.65005909703
1488.77946448677,1861.66005909703
1496.42169877341,1861.67005909703
1503.45499173764,1861.68005909703
1523.51021725148,1861.69005909703
1552.61791430945,1861.70005909703
1599.61028007502,1861.71005909703
1662.8904290614,1861.72005909703
1749.86028886594,1861.73005909703
1856.05192353373,1861.74005909703
1993.72174680895,1861.75005909703
2155.48238929025,1861.76005909703
2305.43366866967,1861.77005909703
2475.71090454805,1861.78005909703
2631.61806818309,1861.79005909703
2780.25594480654,1861.80005909703
2908.58782102796,1861.81005909703
3012.56804685926,1861.82005909703
3090.52725003733,1861.83005909703
3148.07423272392,1861.84005909703
3181.33567299399,1861.85005909703
3189.73666086464,1861.86005909703
3179.72466944502,1861.87005909703
3155.27700703931,1861.88005909703
3122.00296778245,1861.89005909703
3084.9389294001,1861.90005909703
3041.96709383593,1861.91005909703
3000.1973563739,1861.92005909703
2959.07622733595,1861.93005909703
2914.47187769976,1861.94005909703
2868.28407528662,1861.95005909703
2823.3240537857,1861.96005909703
2779.76576075702,1861.97005909703
2737.64052804248,1861.98005909703
2693.50403269492,1861.99005909703
2654.82515931345,1862.00005909703
2618.18635617609,1862.01005909703
2585.27073977845,1862.02005909703
2558.07341664093,1862.03005909703
2537.82113943667,1862.04005909703
2528.36552001837,1862.05005909703
2521.28286295191,1862.06005909703
2518.66148380273,1862.07005909703
2519.07362363091,1862.08005909703
2516.69028605198,1862.09005909703
2511.81821454622,1862.10005909703
2502.01790166436,1862.11005909703
2491.46672240472,1862.12005909703
2474.36510252782,1862.13005909703
2453.26753142441,1862.14005909703
2427.13828314672,1862.15005909703
2400.35500375315,1862.16005909703
2369.47275207624,1862.17005909703
2340.00790869457,1862.18005909703
2314.50728323217,1862.19005909703
2288.63285864044,1862.20005909703
2261.25584196275,1862.21005909703
2235.92194727632,1862.22005909703
2209.50613963316,1862.23005909703
2181.26302653161,1862.24005909703
2152.18765516949,1862.25005909703
2122.112305708,1862.26005909703
2093.31192027893,1862.27005909703
2062.87729247767,1862.28005909703
2032.37733989671,1862.29005909703
1997.8557300592,1862.30005909703
1964.87494231903,1862.31005909703
1935.05989796098,1862.32005909703
1909.48880622297,1862.33005909703
1880.85190153049,1862.34005909703
1856.54969565659,1862.35005909703
1837.26977528205,1862.36005909703
1820.66201881504,1862.37005909703
1805.58300232491,1862.38005909703
1791.49739660974,1862.39005909703
1783.00689220745,1862.40005909703
1777.74106452868,1862.41005909703
1770.16215659132,1862.42005909703
1764.77774464827,1862.43005909703
1761.81163937843,1862.44005909703
1759.94654396606,1862.45005909703
1756.78440008,1862.46005909703
1752.56763701596,1862.47005909703
1745.49335508596,1862.48005909703
1736.93632879658,1862.49005909703
1729.57571767941,1862.50005909703
1719.93020122948,1862.51005909703
1705.48589533097,1862.52005909703
1689.17404238566,1862.53005909703
1676.84381543704,1862.54005909703
1669.23584709833,1862.55005909703
1666.69320246106,1862.56005909703
1667.06239499149,1862.57005909703
1664.55180775969,1862.58005909703
1661.22617547112,1862.59005909703
1664.23169135503,1862.60005909703
1668.31469124259,1862.61005909703
1670.83129164991,1862.62005909703
1674.23793424888,1862.63005909703
1676.0937947727,1862.64005909703
1675.8024136034,1862.65005909703
1673.68424375243,1862.66005909703
1671.60971116975,1862.67005909703
1669.66744548124,1862.68005909703
1667.31760485339,1862.69005909703
1667.09915292583,1862.70005909703
1675.01547668416,1862.71005909703
1693.55240385805,1862.72005909703
1729.33605255409,1862.73005909703
1787.68295779456,1862.74005909703
1870.24896628286,1862.75005909703
1976.37266783231,1862.76005909703
2108.10251946188,1862.77005909703
2259.53162532105,1862.78005909703
2425.9976878005,1862.79005909703
2594.33866990816,1862.80005909703
2760.11271982386,1862.81005909703
2916.18508151339,1862.82005909703
3054.72535154405,1862.83005909703
3171.41101158961,1862.84005909703
3265.07396953659,1862.85005909703
3339.27857890745,1862.86005909703
3392.6445468349,1862.87005909703
3424.15133783141,1862.88005909703
3439.00212764324,1862.89005909703
3444.09826029913,1862.90005909703
3434.31016421887,1862.91005909703
3411.16782782965,1862.92005909703
3375.77077570307,1862.93005909703
3336.50233131238,1862.94005909703
3295.13551619865,1862.95005909703
3255.20784337555,1862.96005909703
3216.7493372349,1862.97005909703
3176.31450945721,1862.98005909703
3135.1956346273,1862.99005909703
3093.43841751452,1863.00005909703
3046.29260506027,1863.01005909703
2998.17503844082,1863.02005909703
2953.01267916614,1863.03005909703
2909.36716196603,1863.04005909703
2870.34496323306,1863.05005909703
2826.52667225219,1863.06005909703
2787.85641592296,1863.07005909703
2754.24538936326,1863.08005909703
2726.82546805486,1863.09005909703
2700.96051307642,1863.10005909703
2681.85890909228,1863.11005909703
2667.0093000883,1863.12005909703
2650.42763025462,1863.13005909703
2629.84807475772,1863.14005909703
2612.28727467173,1863.15005909703
2587.20000598149,1863.16005909703
2561.57112950198,1863.17005909703
2530.59192191221,1863.18005909703
2504.55131457227,1863.19005909703
2475.78490842351,1863.20005909703
2447.79745049014,1863.21005909703
2421.34488041106,1863.22005909703
2390.72965186144,1863.23005909703
2356.61382525787,1863.24005909703
2317.77143305865,1863.25005909703
2282.12198574976,1863.26005909703
2247.3745719407,1863.27005909703
2214.57603125503,1863.28005909703
2183.04681182445,1863.29005909703
2150.45079412799,1863.30005909703
2120.04986284096,1863.31005909703
2089.13912847185,1863.32005909703
2055.92063742635,1863.33005909703
2019.80025265665,1863.34005909703
1977.50117337711,1863.35005909703
1936.85808990592,1863.36005909703
1900.05673790726,1863.37005909703
1865.56038585326,1863.38005909703
1836.16814043924,1863.39005909703
1805.85910436029,1863.40005909703
1775.99766075634,1863.41005909703
1743.60327247073,1863.42005909703
1709.52529980528,1863.43005909703
1678.66796994444,1863.44005909703
1654.74198097702,1863.45005909703
1632.60809444523,1863.46005909703
1611.73492993926,1863.47005909703
1589.79507837957,1863.48005909703
1567.82545281414,1863.49005909703
1550.49501216271,1863.50005909703
1532.9468262108,1863.51005909703
1508.71809221762,1863.52005909703
1482.25599975008,1863.53005909703
1461.08907304907,1863.54005909703
1436.03138446511,1863.55005909703
1414.50114382821,1863.56005909703
1396.7004489976,1863.57005909703
1381.03062088057,1863.58005909703
1366.98996064428,1863.59005909703
1358.01675313228,1863.60005909703
1347.68545844695,1863.61005909703
1336.71313928008,1863.62005909703
1332.46116354717,1863.63005909703
1331.21947348613,1863.64005909703
1326.63115155663,1863.65005909703
1320.32383974608,1863.66005909703
1318.9639050068,1863.67005909703
1319.05317848349,1863.68005909703
1321.0091407355,1863.69005909703
1324.80104815474,1863.70005909703
1333.67411970233,1863.71005909703
1339.5984109628,1863.72005909703
1342.50242534818,1863.73005909703
1347.90377841266,1863.74005909703
1352.39508791695,1863.75005909703
1361.73187130004,1863.76005909703
1372.69022485881,1863.77005909703
1383.8680119649,1863.78005909703
1390.72536187576,1863.79005909703
1392.90682323095,1863.80005909703
1397.99890990431,1863.81005909703
1410.56812992495,1863.82005909703
1432.25669964332,1863.83005909703
1469.90916426729,1863.84005909703
1528.79556474309,1863.85005909703
1613.44197590525,1863.86005909703
1721.52574987461,1863.87005909703
1852.92122558983,1863.88005909703
2010.00801358161,1863.89005909703
2183.89033342297,1863.90005909703
2369.68325002305,1863.91005909703
2552.56275070504,1863.92005909703
2728.15760908427,1863.93005909703
2889.00133286721,1863.94005909703
3027.73101702392,1863.95005909703
3144.82069623819,1863.96005909703
3230.85887283758,1863.97005909703
3287.51738276772,1863.98005909703
3320.51396357181,1863.99005909703
3333.00593022904,1864.00005909703
3325.92428096763,1864.01005909703
3308.03729364735,1864.02005909703
3283.09131674427,1864.03005909703
3257.20419791689,1864.04005909703
3224.56139290196,1864.05005909703
3194.31152269659,1864.06005909703
3160.7054870086,1864.07005909703
3122.19572151687,1864.08005909703
3081.22107198154,1864.09005909703
3035.51766143276,1864.10005909703
2991.71363863772,1864.11005909703
2949.92411390143,1864.12005909703
2905.24395963558,1864.13005909703
2862.79768090845,1864.14005909703
2817.6273730565,1864.15005909703
2770.48903534579,1864.16005909703
2718.62845182288,1864.17005909703
2670.66063354119,1864.18005909703
2627.37986115375,1864.19005909703
2587.32989022656,1864.20005909703
2553.15074756222,1864.21005909703
2528.33012147099,1864.22005909703
2507.92607827353,1864.23005909703
2490.22957666513,1864.24005909703
2469.81784618417,1864.25005909703
2447.77269842112,1864.26005909703
2422.88707743088,1864.27005909703
2397.456358782,1864.28005909703
2374.04325573086,1864.29005909703
2350.00286852536,1864.30005909703
2319.39326619847,1864.31005909703
2284.03248178537,1864.32005909703
2243.8615106149,1864.33005909703
2209.00404639788,1864.34005909703
2173.36444598098,1864.35005909703
2137.55622247409,1864.36005909703
2096.26819069116,1864.37005909703
2057.04776382467,1864.38005909703
2018.98836503909,1864.39005909703
1982.38375084483,1864.40005909703
1950.77593522185,1864.41005909703
1919.18750715797,1864.42005909703
1889.27592231979,1864.43005909703
1859.62497853844,1864.44005909703
1840.3955954882,1864.45005909703
1816.53223813883,1864.46005909703
1789.61122040066,1864.47005909703
1762.41424474711,1864.48005909703
1735.66108785885,1864.49005909703
1703.46356220515,1864.50005909703
1673.64006919069,1864.51005909703
1647.30532352662,1864.52005909703
1622.11776683365,1864.53005909703
1599.80063711935,1864.54005909703
1580.00106810446,1864.55005909703
1560.05915551331,1864.56005909703
1541.49145596777,1864.57005909703
1519.66830609528,1864.58005909703
1498.53971460951,1864.59005909703
1480.69508073296,1864.60005909703
1465.09192471469,1864.61005909703
1452.68965782706,1864.62005909703
1440.82461807131,1864.63005909703
1428.62540632098,1864.64005909703
1417.62797979975,1864.65005909703
1408.94990864726,1864.66005909703
1399.72427441803,1864.67005909703
1393.41698761984,1864.68005909703
1389.64325408481,1864.69005909703
1385.65483519822,1864.70005909703
1383.8514578423,1864.71005909703
1381.89133623821,1864.72005909703
1378.96493621394,1864.73005909703
1368.83149364183,1864.74005909703
1354.45433061559,1864.75005909703
1336.61623755361,1864.76005909703
1318.94529430187,1864.77005909703
1299.66665318186,1864.78005909703
1281.15016882511,1864.79005909703
1263.61979280939,1864.80005909703
1256.22156086197,1864.81005909703
1252.4259663943,1864.82005909703
1247.21421542769,1864.83005909703
1243.43265006761,1864.84005909703
1235.62701829098,1864.85005909703
1233.76929505912,1864.86005909703
1233.71859460705,1864.87005909703
1236.63366860433,1864.88005909703
1245.96952309931,1864.89005909703
1267.18110719537,1864.90005909703
1301.99707754988,1864.91005909703
1344.87874277251,1864.92005909703
1408.00579286942,1864.93005909703
1494.49297729741,1864.94005909703
1603.59873555218,1864.95005909703
1740.64183151462,1864.96005909703
1891.50859026928,1864.97005909703
2056.37543098346,1864.98005909703
2227.97293876885,1864.99005909703
2396.1260967413,1865.00005909703
2552.10845259428,1865.01005909703
2691.58397159894,1865.02005909703
2814.03986692858,1865.03005909703
2918.46121440635,1865.04005909703
3000.4803706955,1865.05005909703
3057.91670079235,1865.06005909703
3091.52102398521,1865.07005909703
3101.827450041,1865.08005909703
3094.79898164988,1865.09005909703
3078.06121683106,1865.10005909703
3049.8009579583,1865.11005909703
3015.77249436816,1865.12005909703
2981.99366388419,1865.13005909703
2944.46278785125,1865.14005909703
2900.90890445178,1865.15005909703
2855.72681268601,1865.16005909703
2806.12604445682,1865.17005909703
2751.03766711876,1865.18005909703
2697.29979172088,1865.19005909703
2646.72062145642,1865.20005909703
2598.55456129754,1865.21005909703
2557.85318076556,1865.22005909703
2520.83334032202,1865.23005909703
2489.61839506237,1865.24005909703
2463.09406441743,1865.25005909703
2443.03830821077,1865.26005909703
2427.3368019296,1865.27005909703
2416.79014244993,1865.28005909703
2407.64905548934,1865.29005909703
2404.59652386848,1865.30005909703
2402.78886300335,1865.31005909703
2401.61108011943,1865.32005909703
2400.11264254138,1865.33005909703
2394.44438567584,1865.34005909703
2383.20207627738,1865.35005909703
2364.26016777226,1865.36005909703
2336.23287499327,1865.37005909703
2302.8095710105,1865.38005909703
2268.57579133643,1865.39005909703
2237.05616531534,1865.40005909703
2204.51845022713,1865.41005909703
2171.51744779641,1865.42005909703
2140.67948052881,1865.43005909703
2109.66246088264,1865.44005909703
2078.55133007235,1865.45005909703
2050.21737365642,1865.46005909703
2024.31452317858,1865.47005909703
2001.55482198054,1865.48005909703
1978.17885096308,1865.49005909703
1958.93491282086,1865.50005909703
1938.87080321843,1865.51005909703
1917.51017265387,1865.52005909703
1896.73983768402,1865.53005909703
1875.59201886081,1865.54005909703
1857.08521108734,1865.55005909703
1836.93489790108,1865.56005909703
1811.66434105365,1865.57005909703
1782.0177871073,1865.58005909703
1754.40167335181,1865.59005909703
1728.17009348459,1865.60005909703
1703.43741529846,1865.61005909703
1679.51381301451,1865.62005909703
1659.41093953967,1865.63005909703
1646.71421718297,1865.64005909703
1634.78270636138,1865.65005909703
1624.61512497526,1865.66005909703
1613.37624376943,1865.67005909703
1599.50003176487,1865.68005909703
1585.58549504386,1865.69005909703
1569.81631729945,1865.70005909703
1558.86852020273,1865.71005909703
1548.88626841555,1865.72005909703
1539.85251514669,1865.73005909703
1533.04450073313,1865.74005909703
1526.7192959465,1865.75005909703
1521.11059053084,1865.76005909703
1516.36830066364,1865.77005909703
1512.8160643009,1865.78005909703
1505.17287919916,1865.79005909703
1497.95046421003,1865.80005909703
1495.88941080704,1865.81005909703
1491.14092395011,1865.82005909703
1487.14597872546,1865.83005909703
1484.74791862933,1865.84005909703
1482.76499312404,1865.85005909703
1480.82110913283,1865.86005909703
1481.01977419466,1865.87005909703
1480.8235578859,1865.88005909703
1476.26464927321,1865.89005909703
1473.35622161168,1865.90005909703
1472.64579808067,1865.91005909703
1475.9199335039,1865.92005909703
1481.06391083521,1865.93005909703
1488.76009440502,1865.94005909703
1505.72641580783,1865.95005909703
1533.09240097977,1865.96005909703
1580.70171219494,1865.97005909703
1647.46060938569,1865.98005909703
1733.69282620743,1865.99005909703
1839.93114838743,1866.00005909703
1964.60890704171,1866.01005909703
2111.47180524093,1866.02005909703
2268.43890581983,1866.03005909703
2430.23059331387,1866.04005909703
2589.41017593009,1866.05005909703
2737.46428092923,1866.06005909703
2872.01643897405,1866.07005909703
2981.16894431877,1866.08005909703
3064.32950703676,1866.09005909703
3124.86378004848,1866.10005909703
3164.28241742405,1866.11005909703
3181.56807826532,1866.12005909703
3182.86479066011,1866.13005909703
3174.89561705966,1866.14005909703
3157.88858679716,1866.15005909703
3135.11984430054,1866.16005909703
3108.34284397351,1866.17005909703
3080.394409844,1866.18005909703
3050.01623597731,1866.19005909703
3020.15981334896,1866.20005909703
2987.70484205506,1866.21005909703
2956.05462435763,1866.22005909703
2920.59930908029,1866.23005909703
2883.64413669061,1866.24005909703
2841.00082883292,1866.25005909703
2793.16401861412,1866.26005909703
2745.28490286875,1866.27005909703
2699.39985539444,1866.28005909703
2655.77915908769,1866.29005909703
2615.99556762686,1866.30005909703
2580.7914656963,1866.31005909703
2547.80520321394,1866.32005909703
2520.57041040062,1866.33005909703
2495.61442733025,1866.34005909703
2473.91606452717,1866.35005909703
2449.04238803882,1866.36005909703
2427.7393478643,1866.37005909703
2408.0390922884,1866.38005909703
2388.15571046865,1866.39005909703
2369.44065368279,1866.40005909703
2347.4256596573,1866.41005909703
2319.57502426864,1866.42005909703
2290.40581114878,1866.43005909703
2263.53823938192,1866.44005909703
2234.47173411491,1866.45005909703
2202.02878734355,1866.46005909703
2166.69739174103,1866.47005909703
2132.36787639773,1866.48005909703
2101.48149184902,1866.49005909703
2062.84562962117,1866.50005909703
2023.82507611522,1866.51005909703
1989.43421401757,1866.52005909703
1955.18258041585,1866.53005909703
1924.10822204709,1866.54005909703
1891.58804181429,1866.55005909703
1862.21018358899,1866.56005909703
1831.76826041071,1866.57005909703
1802.15776368451,1866.58005909703
1771.7045769029,1866.59005909703
1745.42113832995,1866.60005909703
1723.92998510233,1866.61005909703
1704.13594206111,1866.62005909703
1687.81911091287,1866.63005909703
1667.18634184554,1866.64005909703
1643.60514609346,1866.65005909703
1620.32381120486,1866.66005909703
1602.38274429495,1866.67005909703
1583.1434381508,1866.68005909703
1558.14888343513,1866.69005909703
1538.13582810595,1866.70005909703
1514.67806449334,1866.71005909703
1490.51120091932,1866.72005909703
1469.03409930223,1866.73005909703
1448.14279880421,1866.74005909703
1432.44177048435,1866.75005909703
1421.08953894474,1866.76005909703
1409.96172435713,1866.77005909703
1397.60404996169,1866.78005909703
1388.83842908415,1866.79005909703
1382.86646340788,1866.80005909703
1381.68098313329,1866.81005909703
1382.19760475277,1866.82005909703
1379.26279189578,1866.83005909703
1379.25489594882,1866.84005909703
1377.1102988811,1866.85005909703
1371.49552119546,1866.86005909703
1367.52926676482,1866.87005909703
1366.81064445675,1866.88005909703
1367.09554808454,1866.89005909703
1366.91819004952,1866.90005909703
1367.05871946547,1866.91005909703
1366.93868472297,1866.92005909703
1367.04565046347,1866.93005909703
1364.51524245299,1866.94005909703
1363.86878971281,1866.95005909703
1366.37180325028,1866.96005909703
1368.01988649906,1866.97005909703
1375.09943496728,1866.98005909703
1375.45594576382,1866.99005909703
1370.49345245615,1867.00005909703
1363.37108252101,1867.01005909703
1359.18968188139,1867.02005909703
1363.4456076527,1867.03005909703
1373.50045054162,1867.04005909703
1392.48907216866,1867.05005909703
1423.23800644123,1867.06005909703
1474.21290920408,1867.07005909703
1547.05718785737,1867.08005909703
1645.27722182735,1867.09005909703
1774.80310439484,1867.10005909703
1927.61895150322,1867.11005909703
2094.32084700844,1867.12005909703
2266.48364928948,1867.13005909703
2434.15556328717,1867.14005909703
2588.16053679149,1867.15005909703
2723.43305020347,1867.16005909703
2838.71051181638,1867.17005909703
2932.53249355288,1867.18005909703
3004.81203329166,1867.19005909703
3049.91863241909,1867.20005909703
3069.03674696837,1867.21005909703
3070.14104722875,1867.22005909703
3054.27139813211,1867.23005909703
3023.23644792827,1867.24005909703
2983.49825102976,1867.25005909703
2936.76247548881,1867.26005909703
2885.19775777013,1867.27005909703
2834.23605434049,1867.28005909703
2784.03921145556,1867.29005909703
2736.32648811377,1867.30005909703
2685.74687631048,1867.31005909703
2636.90003907405,1867.32005909703
2589.45681394639,1867.33005909703
2540.58318181316,1867.34005909703
2497.75816842472,1867.35005909703
2464.79814081251,1867.36005909703
2432.87615372616,1867.37005909703
2406.66101333098,1867.38005909703
2377.6831644399,1867.39005909703
2355.83360983919,1867.40005909703
2334.86650925605,1867.41005909703
2324.12291701143,1867.42005909703
2312.6718911548,1867.43005909703
2301.79950726532,1867.44005909703
2294.87006768842,1867.45005909703
2291.64064015161,1867.46005909703
2286.56743206373,1867.47005909703
2278.17435643582,1867.48005909703
2269.40329286248,1867.49005909703
2258.16221807533,1867.50005909703
2244.06905120241,1867.51005909703
2227.91425582636,1867.52005909703
2207.04980094235,1867.53005909703
2184.76157812671,1867.54005909703
2160.42274001344,1867.55005909703
2135.33171889897,1867.56005909703
2114.22051966276,1867.57005909703
2091.29198507129,1867.58005909703
2071.43180094103,1867.59005909703
2047.53007171813,1867.60005909703
2020.63940027074,1867.61005909703
1991.97896836605,1867.62005909703
1964.44023649157,1867.63005909703
1933.37593039713,1867.64005909703
1911.00797650277,1867.65005909703
1892.83761446193,1867.66005909703
1877.30788331179,1867.67005909703
1865.89496534329,1867.68005909703
1854.0023561333,1867.69005909703
1839.83937356304,1867.70005909703
1818.34876719553,1867.71005909703
1797.85778274589,1867.72005909703
1776.458883698,1867.73005909703
1760.65582521502,1867.74005909703
1745.64401326137,1867.75005909703
1729.17955501435,1867.76005909703
1713.49189632246,1867.77005909703
1693.07425078566,1867.78005909703
1679.52828023895,1867.79005909703
1665.97963189358,1867.80005909703
1660.39581155144,1867.81005909703
1660.41337347498,1867.82005909703
1651.8324640482,1867.83005909703
1644.44282354697,1867.84005909703
1633.47094749,1867.85005909703
1630.68766607162,1867.86005909703
1631.12085273169,1867.87005909703
1630.77810290045,1867.88005909703
1631.91118393458,1867.89005909703
1634.48427902714,1867.90005909703
1632.72599240167,1867.91005909703
1631.00322885681,1867.92005909703
1630.68942001749,1867.93005909703
1632.87929750118,1867.94005909703
1638.49867783242,1867.95005909703
1644.91515036813,1867.96005909703
1651.15458164476,1867.97005909703
1649.96005280365,1867.98005909703
1647.64674661949,1867.99005909703
1646.14168751648,1868.00005909703
1644.89675553538,1868.01005909703
1640.4852325531,1868.02005909703
1636.41682606128,1868.03005909703
1631.08034556476,1868.04005909703
1628.43160445529,1868.05005909703
1625.16240829598,1868.06005909703
1619.82860934194,1868.07005909703
1615.83084610264,1868.08005909703
1619.40900184594,1868.09005909703
1637.54392147325,1868.10005909703
1673.19461112935,1868.11005909703
1727.8381130245,1868.12005909703
1803.37772586905,1868.13005909703
1901.75115551188,1868.14005909703
2024.57263561028,1868.15005909703
2173.86229774151,1868.16005909703
2336.53805572005,1868.17005909703
2501.24197614186,1868.18005909703
2656.31953369388,1868.19005909703
2796.00162791666,1868.20005909703
2917.57803577649,1868.21005909703
3022.89045204075,1868.22005909703
3101.37366211961,1868.23005909703
3158.06547921243,1868.24005909703
3192.61281019167,1868.25005909703
3203.27111133168,1868.26005909703
3195.22352604478,1868.27005909703
3167.70192903077,1868.28005909703
3133.08272038545,1868.29005909703
3091.15426811814,1868.30005909703
3045.67083039728,1868.31005909703
2997.41064103547,1868.32005909703
2948.34787625373,1868.33005909703
2895.63570480899,1868.34005909703
2843.93726608049,1868.35005909703
2786.99010377201,1868.36005909703
2732.44454313746,1868.37005909703
2679.26507403224,1868.38005909703
2629.59435756427,1868.39005909703
2583.87830802983,1868.40005909703
2540.80993709687,1868.41005909703
2505.10245091071,1868.42005909703
2470.04083298771,1868.43005909703
2438.40735601662,1868.44005909703
2415.44447717133,1868.45005909703
2397.08956357077,1868.46005909703
2384.47026802536,1868.47005909703
2376.2356676954,1868.48005909703
2370.27688390753,1868.49005909703
2364.76820756617,1868.50005909703
2356.35342159444,1868.51005909703
2343.56058740833,1868.52005909703
2331.39791251057,1868.53005909703
2309.02948189106,1868.54005909703
2281.16673251345,1868.55005909703
2254.03577226478,1868.56005909703
2229.528074728,1868.57005909703
2203.32175366779,1868.58005909703
2177.59167075493,1868.59005909703
2152.81278297593,1868.60005909703
2122.83455042447,1868.61005909703
2091.44114736413,1868.62005909703
2063.83740870999,1868.63005909703
2037.80823884001,1868.64005909703
2017.40915224439,1868.65005909703
2004.62025896865,1868.66005909703
1993.47336815439,1868.67005909703
1985.27372057354,1868.68005909703
1973.81417369655,1868.69005909703
1961.89965405525,1868.70005909703
1951.18988659992,1868.71005909703
1937.69710368844,1868.72005909703
1923.42434054358,1868.73005909703
1917.66523741338,1868.74005909703
1912.62010643249,1868.75005909703
1906.28433549593,1868.76005909703
1902.84473524334,1868.77005909703
1895.29026601538,1868.78005909703
1887.12802955358,1868.79005909703
1881.75401850227,1868.80005909703
1876.61401419914,1868.81005909703
1870.32844564455,1868.82005909703
1861.45195388744,1868.83005909703
1847.48490083033,1868.84005909703
1833.89408045081,1868.85005909703
1821.53876367088,1868.86005909703
1813.38271918229,1868.87005909703
1801.68897663285,1868.88005909703
1788.51176587063,1868.89005909703
1771.50819713154,1868.90005909703
1750.62103221798,1868.91005909703
1733.83039353054,1868.92005909703
1715.96246802398,1868.93005909703
1702.31064837556,1868.94005909703
1689.31952445385,1868.95005909703
1677.99418211017,1868.96005909703
1673.82201022961,1868.97005909703
1666.01226795096,1868.98005909703
1656.17324288841,1868.99005909703
1642.3905570064,1869.00005909703
1630.32738597501,1869.01005909703
1627.64133885557,1869.02005909703
1633.82930588532,1869.03005909703
1643.22639634748,1869.04005909703
1649.71841283541,1869.05005909703
1652.30017620308,1869.06005909703
1648.6940323385,1869.07005909703
1643.5626833055,1869.08005909703
1637.0208887291,1869.09005909703
1634.45730603081,1869.10005909703
1631.01585549149,1869.11005909703
1630.82596221015,1869.12005909703
1630.2915593792,1869.13005909703
1635.48984417017,1869.14005909703
1658.02510909142,1869.15005909703
1702.98719085012,1869.16005909703
1778.15232318656,1869.17005909703
1882.46687933017,1869.18005909703
2007.55690039089,1869.19005909703
2152.90598014825,1869.20005909703
2316.1856908378,1869.21005909703
2485.26249314321,1869.22005909703
2651.56637658157,1869.23005909703
2812.86116498732,1869.24005909703
2961.52990233602,1869.25005909703
3092.21887273688,1869.26005909703
3201.33979017129,1869.27005909703
3284.29747557736,1869.28005909703
3341.97786032331,1869.29005909703
3376.24729212218,1869.30005909703
3384.83283615196,1869.31005909703
3372.24878608667,1869.32005909703
3344.67337859297,1869.33005909703
3311.50927274699,1869.34005909703
3277.61625006736,1869.35005909703
3243.88267166856,1869.36005909703
3202.75881800236,1869.37005909703
3163.54498781162,1869.38005909703
3116.54892878682,1869.39005909703
3064.8987654433,1869.40005909703
3013.51847298491,1869.41005909703
2967.65540296889,1869.42005909703
2915.56705067519,1869.43005909703
2861.88325348778,1869.44005909703
2808.72053465282,1869.45005909703
2759.37757040735,1869.46005909703
2712.22960960662,1869.47005909703
2667.32200026207,1869.48005909703
2623.52336237872,1869.49005909703
2582.70649585823,1869.50005909703
2548.40600192988,1869.51005909703
2520.7823273483,1869.52005909703
2499.61290121429,1869.53005909703
2483.35407717816,1869.54005909703
2467.25257241947,1869.55005909703
2452.23439591398,1869.56005909703
2436.66239107781,1869.57005909703
2416.3810563931,1869.58005909703
2391.9377771553,1869.59005909703
2365.90372545775,1869.60005909703
2338.17194648177,1869.61005909703
2312.87868851046,1869.62005909703
2286.84356806666,1869.63005909703
2256.32993836007,1869.64005909703
2222.45780532396,1869.65005909703
2189.70278050573,1869.66005909703
2154.71131957634,1869.67005909703
2118.23083221541,1869.68005909703
2087.27803832353,1869.69005909703
2057.6329045311,1869.70005909703
2032.19701420618,1869.71005909703
2006.82618780387,1869.72005909703
1979.48930078739,1869.73005909703
1947.00580684709,1869.74005909703
1912.18717464089,1869.75005909703
1877.35405756609,1869.76005909703
1841.43747124412,1869.77005909703
1805.27971662274,1869.78005909703
1771.98641592315,1869.79005909703
1743.41778943711,1869.80005909703
1714.26150436057,1869.81005909703
1685.83415945049,1869.82005909703
1662.39564061832,1869.83005909703
1643.9828061393,1869.84005909703
1627.15359154953,1869.85005909703
1613.84338900675,1869.86005909703
1598.66368646437,1869.87005909703
1583.63199016571,1869.88005909703
1567.12157844111,1869.89005909703
1552.26957485921,1869.90005909703
1537.20604233733,1869.91005909703
1522.17945431445,1869.92005909703
1507.97588164813,1869.93005909703
1499.05764992331,1869.94005909703
1491.17007686202,1869.95005909703
1483.29457651356,1869.96005909703
1474.30447441251,1869.97005909703
1463.03911209188,1869.98005909703
1452.20146360758,1869.99005909703
1443.41778496663,1870.00005909703
1434.182533686,1870.01005909703
1428.56011452615,1870.02005909703
1426.89741179348,1870.03005909703
1429.41015346232,1870.04005909703
1427.88509900021,1870.05005909703
1424.99214857061,1870.06005909703
1414.67709369922,1870.07005909703
1410.86819440774,1870.08005909703
1408.39320552532,1870.09005909703
1411.18616192863,1870.10005909703
1415.36589932135,1870.11005909703
1419.68258249595,1870.12005909703
1423.83281423048,1870.13005909703
1423.88436331262,1870.14005909703
1423.93727141779,1870.15005909703
1423.89742628177,1870.16005909703
1423.74942616262,1870.17005909703
1423.95267310941,1870.18005909703
1423.36027477107,1870.19005909703
1425.61132082729,1870.20005909703
1436.45856315147,1870.21005909703
1458.43406340941,1870.22005909703
1498.00565384568,1870.23005909703
1562.30761667435,1870.24005909703
1650.75222188738,1870.25005909703
1763.24319636852,1870.26005909703
1891.84364728442,1870.27005909703
2039.16367727932,1870.28005909703
2201.47669231644,1870.29005909703
2366.9111486489,1870.30005909703
2528.76364750466,1870.31005909703
2678.4757040938,1870.32005909703
2816.71021945752,1870.33005909703
2935.95525194913,1870.34005909703
3029.62152191091,1870.35005909703
3098.34176114492,1870.36005909703
3140.56966781778,1870.37005909703
3162.4200986282,1870.38005909703
3162.94143084131,1870.39005909703
3147.35728922931,1870.40005909703
3121.0410595673,1870.41005909703
3085.33289148507,1870.42005909703
3041.05155794368,1870.43005909703
2993.72462637016,1870.44005909703
2948.26676657893,1870.45005909703
2896.93966546081,1870.46005909703
2847.2763797504,1870.47005909703
2801.45275335236,1870.48005909703
2760.17869633175,1870.49005909703
2716.45233478638,1870.50005909703
2671.08912616525,1870.51005909703
2626.17309188305,1870.52005909703
2581.22683192063,1870.53005909703
2535.89389694797,1870.54005909703
2495.3106772684,1870.55005909703
2464.88273851319,1870.56005909703
2437.90017403221,1870.57005909703
2421.2161628687,1870.58005909703
2413.08661149421,1870.59005909703
2410.61919197905,1870.60005909703
2413.58165962806,1870.61005909703
2413.91320355439,1870.62005909703
2411.78618583309,1870.63005909703
2409.70542962821,1870.64005909703
2408.07861054122,1870.65005909703
2404.6923313368,1870.66005909703
2398.43022461754,1870.67005909703
2389.28087486817,1870.68005909703
2373.55179804054,1870.69005909703
2354.23888877551,1870.70005909703
2330.91521202345,1870.71005909703
2306.21234506496,1870.72005909703
2284.08986954955,1870.73005909703
2263.00791530027,1870.74005909703
2242.66202201822,1870.75005909703
2217.15577895199,1870.76005909703
2192.92218401253,1870.77005909703
2163.9906233401,1870.78005909703
2135.23300361325,1870.79005909703
2108.37648235882,1870.80005909703
2082.84932899574,1870.81005909703
2059.55074454115,1870.82005909703
2032.15090336147,1870.83005909703
2009.03997319916,1870.84005909703
1981.93613615174,1870.85005909703
1962.68553674981,1870.86005909703
1949.60907693352,1870.87005909703
1937.67109665069,1870.88005909703
1926.15732276178,1870.89005909703
1914.70394182018,1870.90005909703
1903.9191881386,1870.91005909703
1896.12812346204,1870.92005909703
1888.6587308646,1870.93005909703
1877.95495459318,1870.94005909703
1863.74685527022,1870.95005909703
1850.79268544444,1870.96005909703
1836.77312771284,1870.97005909703
1819.01641541769,1870.98005909703
1800.04440860538,1870.99005909703
1777.18326944393,1871.00005909703
1756.42985267245,1871.01005909703
1735.5612840864,1871.02005909703
1715.6304150792,1871.03005909703
1701.56104382198,1871.04005909703
1690.65598960761,1871.05005909703
1681.8387546863,1871.06005909703
1675.27721060211,1871.07005909703
1671.65668180055,1871.08005909703
1667.54339025487,1871.09005909703
1665.85083001779,1871.10005909703
1663.74624247511,1871.11005909703
1664.11053167288,1871.12005909703
1666.21891029065,1871.13005909703
1670.43761748633,1871.14005909703
1674.25382214043,1871.15005909703
1676.02419439466,1871.16005909703
1675.81042071312,1871.17005909703
1675.87462512642,1871.18005909703
1675.73763824497,1871.19005909703
1678.15596533004,1871.20005909703
1681.896381437,1871.21005909703
1692.34859055888,1871.22005909703
1711.98089163306,1871.23005909703
1748.56673256609,1871.24005909703
1811.27681027637,1871.25005909703
1902.22503489053,1871.26005909703
2020.87589133136,1871.27005909703
2162.81998973731,1871.28005909703
2320.63624061308,1871.29005909703
2482.01086045264,1871.30005909703
2646.79994234626,1871.31005909703
2806.62456041966,1871.32005909703
2951.23366342064,1871.33005909703
3076.71590983286,1871.34005909703
3172.68479433934,1871.35005909703
3245.16046404646,1871.36005909703
3298.57155376687,1871.37005909703
3328.69935336666,1871.38005909703
3339.71789052575,1871.39005909703
3335.22326583236,1871.40005909703
3317.59369766483,1871.41005909703
3288.08988295811,1871.42005909703
3244.65839949982,1871.43005909703
3196.65379068012,1871.44005909703
3150.03926066049,1871.45005909703
3106.95414852839,1871.46005909703
3066.00229113687,1871.47005909703
3024.94793752638,1871.48005909703
2985.78169967004,1871.49005909703
2935.92430037837,1871.50005909703
2885.34472032901,1871.51005909703
2833.86574397106,1871.52005909703
2784.01951905902,1871.53005909703
2736.23730145194,1871.54005909703
2690.39573936417,1871.55005909703
2643.58554394129,1871.56005909703
2596.81898032597,1871.57005909703
2561.20883365146,1871.58005909703
2538.34479272842,1871.59005909703
2521.67200800626,1871.60005909703
2513.05804182816,1871.61005909703
2502.84002515745,1871.62005909703
2488.27260310987,1871.63005909703
2473.31852427159,1871.64005909703
2459.84247275972,1871.65005909703
2442.3030229542,1871.66005909703
2424.12952542844,1871.67005909703
2404.03493167328,1871.68005909703
2384.03027465676,1871.69005909703
2361.16121984306,1871.70005909703
2334.58174769068,1871.71005909703
2303.04537164115,1871.72005909703
2272.14381070536,1871.73005909703
2239.5547996877,1871.74005909703
2208.70020099057,1871.75005909703
2177.68778891049,1871.76005909703
2143.54044024966,1871.77005909703
2107.25895665054,1871.78005909703
2072.1325783354,1871.79005909703
2042.8426566858,1871.80005909703
2018.49878081631,1871.81005909703
1994.6794736402,1871.82005909703
1972.77908457948,1871.83005909703
1950.14055554762,1871.84005909703
1921.74232671317,1871.85005909703
1900.42521949013,1871.86005909703
1880.03395916347,1871.87005909703
1860.26404260683,1871.88005909703
1838.55425033296,1871.89005909703
1818.82484666341,1871.90005909703
1803.54101673187,1871.91005909703
1788.16761005881,1871.92005909703
1777.25992981012,1871.93005909703
1763.65234962069,1871.94005909703
1746.42855948747,1871.95005909703
1725.54244926897,1871.96005909703
1707.30592610309,1871.97005909703
1688.24940122832,1871.98005909703
1670.21471776757,1871.99005909703
1656.8782948227,1872.00005909703
1647.0272825844,1872.01005909703
1636.95112737113,1872.02005909703
1624.64541677597,1872.03005909703
1608.21892943938,1872.04005909703
1590.19132777577,1872.05005909703
1572.17847803129,1872.06005909703
1556.53325281138,1872.07005909703
1540.14884574069,1872.08005909703
1527.77734794954,1872.09005909703
1517.43652355519,1872.10005909703
1505.05197296025,1872.11005909703
1494.13056316248,1872.12005909703
1486.06153829389,1872.13005909703
1483.77556941414,1872.14005909703
1484.03385571233,1872.15005909703
1483.99829237374,1872.16005909703
1486.27647787181,1872.17005909703
1488.16060176848,1872.18005909703
1490.19384017941,1872.19005909703
1489.93368493721,1872.20005909703
1492.45120827111,1872.21005909703
1493.3108990562,1872.22005909703
1488.96223354326,1872.23005909703
1480.40199379083,1872.24005909703
1468.11629529843,1872.25005909703
1451.94743977562,1872.26005909703
1438.08119834129,1872.27005909703
1429.94927632007,1872.28005909703
1422.44811423791,1872.29005909703
1419.62192638862,1872.30005909703
1429.69209069466,1872.31005909703
1459.85348084586,1872.32005909703
1513.60469340373,1872.33005909703
1591.19155403587,1872.34005909703
1701.07704494858,1872.35005909703
1836.72592586104,1872.36005909703
1991.84193911344,1872.37005909703
2165.17034281422,1872.38005909703
2342.66123177402,1872.39005909703
2513.21939230294,1872.40005909703
2672.45367271848,1872.41005909703
2817.530663545,1872.42005909703
2944.13637345529,1872.43005909703
3046.39451760941,1872.44005909703
3124.08681710104,1872.45005909703
3176.6008512566,1872.46005909703
3201.41103324994,1872.47005909703
3207.34305653684,1872.48005909703
3201.95360615325,1872.49005909703
3187.15174590034,1872.50005909703
3162.41977902864,1872.51005909703
3133.14432462272,1872.52005909703
3100.86581396845,1872.53005909703
3064.52262226837,1872.54005909703
3023.05735796607,1872.55005909703
2975.44987331572,1872.56005909703
2923.94818038945,1872.57005909703
2871.85002030606,1872.58005909703
2822.05529239809,1872.59005909703
2772.02172086808,1872.60005909703
2724.13767404033,1872.61005909703
2676.89232945839,1872.62005909703
2630.00572144415,1872.63005909703
2583.64908717379,1872.64005909703
2545.27083083311,1872.65005909703
2508.98954413996,1872.66005909703
2478.30237693715,1872.67005909703
2460.28709651118,1872.68005909703
2442.63176777322,1872.69005909703
2433.74155094439,1872.70005909703
2419.80350495942,1872.71005909703
2402.51082352453,1872.72005909703
2382.98143110546,1872.73005909703
2365.71249390976,1872.74005909703
2347.46383763501,1872.75005909703
2330.90014353835,1872.76005909703
2309.86819100688,1872.77005909703
2288.26131231918,1872.78005909703
2262.96481879046,1872.79005909703
2230.74395042322,1872.80005909703
2200.43781256618,1872.81005909703
2167.24085155526,1872.82005909703
2141.94630273352,1872.83005909703
2111.50880405991,1872.84005909703
2084.24541584309,1872.85005909703
2057.63679021485,1872.86005909703
2028.26671015753,1872.87005909703
1998.62726727943,1872.88005909703
1965.95137632928,1872.89005909703
1932.88379950465,1872.90005909703
1902.98627238659,1872.91005909703
1878.36689174655,1872.92005909703
1857.86731655248,1872.93005909703
1838.08899648896,1872.94005909703
1817.19911681798,1872.95005909703
1795.94878120309,1872.96005909703
1776.03178193276,1872.97005909703
1758.22101364861,1872.98005909703
1740.14512862425,1872.99005909703
1719.72679169429,1873.00005909703
1696.18319348903,1873.01005909703
1674.35705202976,1873.02005909703
1659.45119503607,1873.03005909703
1650.3525282473,1873.04005909703
1638.85173190147,1873.05005909703
1624.38075696906,1873.06005909703
1613.19908931607,1873.07005909703
1599.5708119167,1873.08005909703
1590.46162892756,1873.09005909703
1578.56376360165,1873.10005909703
1570.36077140802,1873.11005909703
1563.35816910003,1873.12005909703
1552.89084647602,1873.13005909703
1545.26400031094,1873.14005909703
1537.19815205473,1873.15005909703
1527.22047922105,1873.16005909703
1523.65292057811,1873.17005909703
1520.84442202859,1873.18005909703
1516.67064478198,1873.19005909703
1516.31880333903,1873.20005909703
1512.75507426123,1873.21005909703
1507.56779898704,1873.22005909703
1498.91808580787,1873.23005909703
1489.7022250092,1873.24005909703
1483.49891801588,1873.25005909703
1476.98631055653,1873.26005909703
1475.77254580563,1873.27005909703
1478.24282541378,1873.28005909703
1477.84956497301,1873.29005909703
1477.07164101459,1873.30005909703
1471.89703076416,1873.31005909703
1472.06662516018,1873.32005909703
1473.60235903943,1873.33005909703
1482.52264338994,1873.34005909703
1497.97817943516,1873.35005909703
1515.94439609408,1873.36005909703
1544.56861697049,1873.37005909703
1598.16350708732,1873.38005909703
1677.44314634818,1873.39005909703
1786.93800316191,1873.40005909703
1918.29754707603,1873.41005909703
2067.21873549633,1873.42005909703
2229.3571780046,1873.43005909703
2391.07144280066,1873.44005909703
2550.59988607183,1873.45005909703
2695.75328425631,1873.46005909703
2829.17545223544,1873.47005909703
2943.95539855364,1873.48005909703
3029.67986876623,1873.49005909703
3088.44328343984,1873.50005909703
3117.84773264245,1873.51005909703
3123.1996804051,1873.52005909703
3112.58192143369,1873.53005909703
3089.03070610204,1873.54005909703
3054.71571053779,1873.55005909703
3016.5278163297,1873.56005909703
2974.59011422262,1873.57005909703
2925.17244263984,1873.58005909703
2877.60469171802,1873.59005909703
2828.1129656018,1873.60005909703
2778.09711282072,1873.61005909703
2730.14757457848,1873.62005909703
2684.6916582441,1873.63005909703
2634.62234025726,1873.64005909703
2584.4160365799,1873.65005909703
2538.91814616852,1873.66005909703
2498.21225724783,1873.67005909703
2468.54059702827,1873.68005909703
2443.6631338184,1873.69005909703
2428.12371913268,1873.70005909703
2415.46622481972,1873.71005909703
2406.99363596393,1873.72005909703
2404.6598820099,1873.73005909703
2410.63539388318,1873.74005909703
2421.25314439139,1873.75005909703
2432.45975094965,1873.76005909703
2440.20865150835,1873.77005909703
2441.37392894984,1873.78005909703
2436.9946470454,1873.79005909703
2422.0467648025,1873.80005909703
2407.94712615716,1873.81005909703
2386.94551292898,1873.82005909703
2357.96603014121,1873.83005909703
2328.06254628497,1873.84005909703
2298.25631207008,1873.85005909703
2269.28949088422,1873.86005909703
2241.91429252363,1873.87005909703
2217.59952982021,1873.88005909703
2191.23483191333,1873.89005909703
2165.58651993925,1873.90005909703
2139.07434586759,1873.91005909703
2114.57911761164,1873.92005909703
2089.78900551562,1873.93005909703
2062.38377905904,1873.94005909703
2035.61426554557,1873.95005909703
2009.07449340722,1873.96005909703
1986.87336612875,1873.97005909703
1966.94834150016,1873.98005909703
1949.52462661864,1873.99005909703
1929.96412313364,1874.00005909703
1910.28014153211,1874.01005909703
1888.06288671036,1874.02005909703
1863.20194256137,1874.03005909703
1843.01081799746,1874.04005909703
1822.96373433096,1874.05005909703
1805.36411754842,1874.06005909703
1789.26339927933,1874.07005909703
1771.74918672741,1874.08005909703
1753.7199374636,1874.09005909703
1739.7877528086,1874.10005909703
1724.56228418231,1874.11005909703
1710.62549053975,1874.12005909703
1698.83953493157,1874.13005909703
1686.7442134405,1874.14005909703
1674.83418265153,1874.15005909703
1667.49325310748,1874.16005909703
1660.50408455016,1874.17005909703
1651.17408964324,1874.18005909703
1637.73640445137,1874.19005909703
1625.81398992344,1874.20005909703
1618.47647454568,1874.21005909703
1609.6987001216,1874.22005909703
1601.87122437691,1874.23005909703
1599.86026517566,1874.24005909703
1597.73198243833,1874.25005909703
1595.81378497806,1874.26005909703
1593.82676950379,1874.27005909703
1591.07898833064,1874.28005909703
1587.72283609394,1874.29005909703
1585.26601808382,1874.30005909703
1580.57022882029,1874.31005909703
1571.86209334049,1874.32005909703
1564.78678663508,1874.33005909703
1558.90160445654,1874.34005909703
1558.72924871724,1874.35005909703
1557.07479137836,1874.36005909703
1559.58150533764,1874.37005909703
1568.8964679792,1874.38005909703
1594.86644731452,1874.39005909703
1636.55128290804,1874.40005909703
1705.71033321982,1874.41005909703
1800.31649344085,1874.42005909703
1914.34301029417,1874.43005909703
2052.168446586,1874.44005909703
2208.16311609413,1874.45005909703
2380.39217711353,1874.46005909703
2556.80628119123,1874.47005909703
2729.04189782878,1874.48005909703
2886.79316025958,1874.49005909703
3015.70491079476,1874.50005909703
3125.13120663852,1874.51005909703
3210.05078324351,1874.52005909703
3270.19671455921,1874.53005909703
3308.19962845874,1874.54005909703
3321.01863685045,1874.55005909703
3318.67845625903,1874.56005909703
3305.61172515608,1874.57005909703
3284.34707667326,1874.58005909703
3262.7954850991,1874.59005909703
3235.43758957261,1874.60005909703
3209.86841510568,1874.61005909703
3182.4453476399,1874.62005909703
3151.3393951828,1874.63005909703
3114.55691252472,1874.64005909703
