PPG,time
0.0295819277409268,1582.84034504214
0.0508459805192795,1582.85034504214
0.0340117510499683,1582.86034504214
0.0289471835889241,1582.87034504214
0.01693841638521,1582.88034504214
0.00921292344184164,1582.89034504214
-0.000984524935400334,1582.90034504214
-0.0087816961713705,1582.91034504214
-0.0167600605826516,1582.92034504214
-0.0237312728062093,1582.93034504214
-0.0301324658065324,1582.94034504214
-0.0369667759809522,1582.95034504214
-0.044309794189065,1582.96034504214
-0.0517336191177378,1582.97034504214
-0.059820520394778,1582.98034504214
-0.0694141042214783,1582.99034504214
-0.0782429811128951,1583.00034504214
-0.0855011356085244,1583.01034504214
-0.0893102642451448,1583.02034504214
-0.0849849451140507,1583.03034504214
-0.0689285079136009,1583.04034504214
-0.0378537524796972,1583.05034504214
0.00951951337801147,1583.06034504214
0.0700460236362581,1583.07034504214
0.137387543392239,1583.08034504214
0.205058488375275,1583.09034504214
0.2676088456934,1583.10034504214
0.321768803519949,1583.11034504214
0.366601695008266,1583.12034504214
0.40181334424337,1583.13034504214
0.42655186926366,1583.14034504214
0.442838241142439,1583.15034504214
0.452011135193287,1583.16034504214
0.45550073352367,1583.17034504214
0.454061192232977,1583.18034504214
0.450417067837822,1583.19034504214
0.444718079100209,1583.20034504214
0.438446375973808,1583.21034504214
0.432220036287671,1583.22034504214
0.425933289494956,1583.23034504214
0.419686567104261,1583.24034504214
0.413436685143551,1583.25034504214
0.407245594675395,1583.26034504214
0.401238018416928,1583.27034504214
0.394516147124187,1583.28034504214
0.387640540164794,1583.29034504214
0.379706027813561,1583.30034504214
0.370594880150248,1583.31034504214
0.360028926458934,1583.32034504214
0.348669905535857,1583.33034504214
0.336962183864301,1583.34034504214
0.326160479331259,1583.35034504214
0.317121941253493,1583.36034504214
0.309888100235795,1583.37034504214
0.305742280858262,1583.38034504214
0.305138717933927,1583.39034504214
0.308731516230715,1583.40034504214
0.315601267253297,1583.41034504214
0.324383291217803,1583.42034504214
0.334509978622531,1583.43034504214
0.344941848229546,1583.44034504214
0.354491775971698,1583.45034504214
0.36217230300587,1583.46034504214
0.36724555075343,1583.47034504214
0.369585349710664,1583.48034504214
0.368933148497243,1583.49034504214
0.365603488421256,1583.50034504214
0.359812746644811,1583.51034504214
0.351414074701774,1583.52034504214
0.341202323995176,1583.53034504214
0.329435524912777,1583.54034504214
0.316096367994292,1583.55034504214
0.301770864216688,1583.56034504214
0.286632169364209,1583.57034504214
0.271939282153035,1583.58034504214
0.258306559578434,1583.59034504214
0.245268517321579,1583.60034504214
0.233469763728356,1583.61034504214
0.223142764802854,1583.62034504214
0.21404851635001,1583.63034504214
0.205776581547999,1583.64034504214
0.198004511469744,1583.65034504214
0.190929018338068,1583.66034504214
0.183115880506158,1583.67034504214
0.174894199000874,1583.68034504214
0.165793125332214,1583.69034504214
0.156044771234584,1583.70034504214
0.146350876481974,1583.71034504214
0.137215215060628,1583.72034504214
0.128292186718793,1583.73034504214
0.119685262233572,1583.74034504214
0.110989439035163,1583.75034504214
0.103254886574746,1583.76034504214
0.0953350572059318,1583.77034504214
0.0875448720865646,1583.78034504214
0.0804259712150468,1583.79034504214
0.0737036157407371,1583.80034504214
0.0667012580999169,1583.81034504214
0.0590532057699782,1583.82034504214
0.0510481562470651,1583.83034504214
0.042786510284598,1583.84034504214
0.0350242389293157,1583.85034504214
0.0286637765155769,1583.86034504214
0.0270795746572719,1583.87034504214
0.0334723185850391,1583.88034504214
0.0533463162216627,1583.89034504214
0.0906961097756139,1583.90034504214
0.145511429650424,1583.91034504214
0.213998900915359,1583.92034504214
0.287898979757993,1583.93034504214
0.359484654333499,1583.94034504214
0.422239381753364,1583.95034504214
0.472626798313478,1583.96034504214
0.510544960316888,1583.97034504214
0.536947936761747,1583.98034504214
0.553100508310562,1583.99034504214
0.560119145148024,1584.00034504214
0.561172181817716,1584.01034504214
0.558061007999209,1584.02034504214
0.552842616628259,1584.03034504214
0.546063065884113,1584.04034504214
0.538267750769964,1584.05034504214
0.530141021568752,1584.06034504214
0.521778782571053,1584.07034504214
0.512219817186429,1584.08034504214
0.502788152900798,1584.09034504214
0.493447993216799,1584.10034504214
0.484419368449022,1584.11034504214
0.476001710990699,1584.12034504214
0.467021741113946,1584.13034504214
0.457484299906003,1584.14034504214
0.446745955778973,1584.15034504214
0.434418778664564,1584.16034504214
0.420419488645652,1584.17034504214
0.404412757320612,1584.18034504214
0.387853146819405,1584.19034504214
0.370980492255167,1584.20034504214
0.355863607745048,1584.21034504214
0.343979147234285,1584.22034504214
0.335969631826319,1584.23034504214
0.33212014661433,1584.24034504214
0.331629712226371,1584.25034504214
0.334878940698218,1584.26034504214
0.33984452738903,1584.27034504214
0.347720662757759,1584.28034504214
0.356493078770583,1584.29034504214
0.365348854468893,1584.30034504214
0.372250789762926,1584.31034504214
0.375673528203821,1584.32034504214
0.376083855739305,1584.33034504214
0.373374250730427,1584.34034504214
0.368624192744248,1584.35034504214
0.362411607291543,1584.36034504214
0.355072936747175,1584.37034504214
0.347410279208474,1584.38034504214
0.339121627496347,1584.39034504214
0.330160922300795,1584.40034504214
0.320691431253649,1584.41034504214
0.310274396157619,1584.42034504214
0.299428952756633,1584.43034504214
0.288660347148638,1584.44034504214
0.277176395972403,1584.45034504214
0.265520580941833,1584.46034504214
0.253820709611817,1584.47034504214
0.242071398134744,1584.48034504214
0.231186200161703,1584.49034504214
0.22085658662435,1584.50034504214
0.211391651152809,1584.51034504214
0.201690180178409,1584.52034504214
0.19256408077528,1584.53034504214
0.183363256817551,1584.54034504214
0.174053644460898,1584.55034504214
0.164827993894738,1584.56034504214
0.155739192337647,1584.57034504214
0.14687333148576,1584.58034504214
0.138326600415313,1584.59034504214
0.129752652108445,1584.60034504214
0.121249656686045,1584.61034504214
0.112783546851834,1584.62034504214
0.105225019471104,1584.63034504214
0.0974241965362455,1584.64034504214
0.0895960780414667,1584.65034504214
0.0820419618276682,1584.66034504214
0.074172355664641,1584.67034504214
0.0664709926186007,1584.68034504214
0.0581979573672996,1584.69034504214
0.0496670227550469,1584.70034504214
0.0417524964226179,1584.71034504214
0.0348177994917792,1584.72034504214
0.0306973310410647,1584.73034504214
0.0321858331298848,1584.74034504214
0.0432007837657982,1584.75034504214
0.0690812798208343,1584.76034504214
0.112392775955022,1584.77034504214
0.172498747977304,1584.78034504214
0.244093515218441,1584.79034504214
0.318677938462636,1584.80034504214
0.389127878033519,1584.81034504214
0.450291185514531,1584.82034504214
0.499324364547544,1584.83034504214
0.535723869847504,1584.84034504214
0.560031943552238,1584.85034504214
0.574519000062858,1584.86034504214
0.580755534101919,1584.87034504214
0.580830756252046,1584.88034504214
0.576687206609064,1584.89034504214
0.569963896544432,1584.90034504214
0.561877927045276,1584.91034504214
0.553546614006679,1584.92034504214
0.544698482627038,1584.93034504214
0.535633965323162,1584.94034504214
0.526196777246833,1584.95034504214
0.516971852128502,1584.96034504214
0.507786022699423,1584.97034504214
0.499500936170787,1584.98034504214
0.491277022548755,1584.99034504214
0.483012368281726,1585.00034504214
0.473719889831509,1585.01034504214
0.463038331080145,1585.02034504214
0.450089236031574,1585.03034504214
0.435414622981712,1585.04034504214
0.419235973502912,1585.05034504214
0.401907915731044,1585.06034504214
0.38481075774901,1585.07034504214
0.369233143817277,1585.08034504214
0.356804261972367,1585.09034504214
0.348383687293872,1585.10034504214
0.343594611239829,1585.11034504214
0.342885016551178,1585.12034504214
0.345682844432719,1585.13034504214
0.351124366658089,1585.14034504214
0.358361028759912,1585.15034504214
0.365486079654969,1585.16034504214
0.371951126669208,1585.17034504214
0.376943223769488,1585.18034504214
0.379474860594287,1585.19034504214
0.379445259046564,1585.20034504214
0.377513281368446,1585.21034504214
0.373398143177682,1585.22034504214
0.368401404656171,1585.23034504214
0.362034118276255,1585.24034504214
0.355328423982531,1585.25034504214
0.347926120541399,1585.26034504214
0.33948515809957,1585.27034504214
0.330034638103011,1585.28034504214
0.319856771738543,1585.29034504214
0.308886193017476,1585.30034504214
0.297335761055523,1585.31034504214
0.286327461065363,1585.32034504214
0.275357780525527,1585.33034504214
0.264622257853768,1585.34034504214
0.253653161714714,1585.35034504214
0.242503234628816,1585.36034504214
0.231334170681517,1585.37034504214
0.220661356051218,1585.38034504214
0.210073403399219,1585.39034504214
0.200200949509125,1585.40034504214
0.190701389995615,1585.41034504214
0.181607840128954,1585.42034504214
0.172439734333955,1585.43034504214
0.16343173278201,1585.44034504214
0.154346097078791,1585.45034504214
0.144811920281332,1585.46034504214
0.135562472240858,1585.47034504214
0.126086704276485,1585.48034504214
0.117208016729138,1585.49034504214
0.108162565846321,1585.50034504214
0.100153584765256,1585.51034504214
0.0927617689454956,1585.52034504214
0.0856061426805461,1585.53034504214
0.0791244641522127,1585.54034504214
0.0721513632709329,1585.55034504214
0.0652219435402166,1585.56034504214
0.0579740630088706,1585.57034504214
0.0509277352514644,1585.58034504214
0.0442676925072318,1585.59034504214
0.038263260249309,1585.60034504214
0.0324118593348413,1585.61034504214
0.0265655771041068,1585.62034504214
0.0202374416490348,1585.63034504214
0.0133730661873112,1585.64034504214
0.00593276086909964,1585.65034504214
-0.00214294465643082,1585.66034504214
-0.00984490161218816,1585.67034504214
-0.0162008446561304,1585.68034504214
-0.0189546389213705,1585.69034504214
-0.0142798291560489,1585.70034504214
0.00227006357812772,1585.71034504214
0.0364220850555256,1585.72034504214
0.0886653428783922,1585.73034504214
0.156401948795081,1585.74034504214
0.232566577845808,1585.75034504214
0.307636417855748,1585.76034504214
0.375836908608746,1585.77034504214
0.432368127375657,1585.78034504214
0.476068371176259,1585.79034504214
0.506776065686843,1585.80034504214
0.525649693254862,1585.81034504214
0.535348049661032,1585.82034504214
0.537918119480762,1585.83034504214
0.535512105267438,1585.84034504214
0.529872436881249,1585.85034504214
0.522295107309918,1585.86034504214
0.513291995494447,1585.87034504214
0.503715768274898,1585.88034504214
0.493661216271058,1585.89034504214
0.483360551339268,1585.90034504214
0.47353169599188,1585.91034504214
0.46369611812366,1585.92034504214
0.453966861678797,1585.93034504214
0.444496969229364,1585.94034504214
0.43465778416824,1585.95034504214
0.424493334334755,1585.96034504214
0.412672500187958,1585.97034504214
0.400279767955341,1585.98034504214
0.385933352419935,1585.99034504214
0.37035099764029,1586.00034504214
0.353778934434383,1586.01034504214
0.336733134602071,1586.02034504214
0.321164310898482,1586.03034504214
0.308425282290282,1586.04034504214
0.299903645608321,1586.05034504214
0.29563309547733,1586.06034504214
0.29515798084308,1586.07034504214
0.29892927510727,1586.08034504214
0.305712895467138,1586.09034504214
0.314385004243336,1586.10034504214
0.323086441274539,1586.11034504214
0.331829699660643,1586.12034504214
0.338823567338414,1586.13034504214
0.343236922145111,1586.14034504214
0.345082141291072,1586.15034504214
0.343863171658666,1586.16034504214
0.340007144381645,1586.17034504214
0.334605906578768,1586.18034504214
0.327419678701278,1586.19034504214
0.319627996708002,1586.20034504214
0.311999753129916,1586.21034504214
0.303583255881907,1586.22034504214
0.294982671941828,1586.23034504214
0.285489038912181,1586.24034504214
0.275522719738237,1586.25034504214
0.265192426662116,1586.26034504214
0.254671390168068,1586.27034504214
0.243938865039053,1586.28034504214
0.232346094394041,1586.29034504214
0.220903314465901,1586.30034504214
0.209447900056021,1586.31034504214
0.198068253443983,1586.32034504214
0.187468129089494,1586.33034504214
0.177058934555105,1586.34034504214
0.167565303293795,1586.35034504214
0.158231048286323,1586.36034504214
0.14902197704321,1586.37034504214
0.140238235440215,1586.38034504214
0.131495322770345,1586.39034504214
0.122851656173375,1586.40034504214
0.114126063624792,1586.41034504214
0.105269666351918,1586.42034504214
0.096479726603075,1586.43034504214
0.0876851394516394,1586.44034504214
0.079162175134005,1586.45034504214
0.0712120010092787,1586.46034504214
0.0631167896298854,1586.47034504214
0.0557144026760176,1586.48034504214
0.0491069329300112,1586.49034504214
0.042405248659532,1586.50034504214
0.0362610503693018,1586.51034504214
0.0303315602703533,1586.52034504214
0.0250036400372093,1586.53034504214
0.020165296129883,1586.54034504214
0.0154940230592265,1586.55034504214
0.0104094259213471,1586.56034504214
0.00442963100588716,1586.57034504214
-0.00207555048082694,1586.58034504214
-0.0093126527492896,1586.59034504214
-0.0164486910696137,1586.60034504214
-0.0240907238728386,1586.61034504214
-0.0313701688242707,1586.62034504214
-0.0377744546825499,1586.63034504214
-0.0421856992086617,1586.64034504214
-0.0429385664619008,1586.65034504214
-0.036686432498253,1586.66034504214
-0.0191068740368514,1586.67034504214
0.0143985085343112,1586.68034504214
0.0647248336856341,1586.69034504214
0.128992804757403,1586.70034504214
0.201419163788795,1586.71034504214
0.273245912535593,1586.72034504214
0.337975628870435,1586.73034504214
0.392384387287457,1586.74034504214
0.434691372419199,1586.75034504214
0.464706969941051,1586.76034504214
0.483114294977532,1586.77034504214
0.491639195972932,1586.78034504214
0.492731115720866,1586.79034504214
0.488316137057446,1586.80034504214
0.480293832240858,1586.81034504214
0.470781584277968,1586.82034504214
0.459929907693537,1586.83034504214
0.449113745939837,1586.84034504214
0.437791700897247,1586.85034504214
0.426815242943281,1586.86034504214
0.416153776703604,1586.87034504214
0.405215261743075,1586.88034504214
0.394740385851407,1586.89034504214
0.38368659136217,1586.90034504214
0.372170563981483,1586.91034504214
0.35958841122915,1586.92034504214
0.34576935293251,1586.93034504214
0.330029909043669,1586.94034504214
0.312642520337336,1586.95034504214
0.294381063210679,1586.96034504214
0.27623977921404,1586.97034504214
0.259789293413323,1586.98034504214
0.246026479584151,1586.99034504214
0.236461856810027,1587.00034504214
0.231416863052045,1587.01034504214
0.230721146092138,1587.02034504214
0.234313659142413,1587.03034504214
0.241837933243575,1587.04034504214
0.251883906937491,1587.05034504214
0.2627778581384,1587.06034504214
0.273691579369662,1587.07034504214
0.283019096156681,1587.08034504214
0.289654305443628,1587.09034504214
0.293473791515983,1587.10034504214
0.294090840292248,1587.11034504214
0.292124506366165,1587.12034504214
0.287220234798965,1587.13034504214
0.280548527621633,1587.14034504214
0.272411223606984,1587.15034504214
0.263190545700862,1587.16034504214
0.253295794589386,1587.17034504214
0.242797793447931,1587.18034504214
0.231959682810892,1587.19034504214
0.221128693137326,1587.20034504214
0.210262023693022,1587.21034504214
0.199374586469553,1587.22034504214
0.188809529536082,1587.23034504214
0.178311975577986,1587.24034504214
0.167893697689629,1587.25034504214
0.157702492254324,1587.26034504214
0.147601271713449,1587.27034504214
0.137296486612275,1587.28034504214
0.127318691244633,1587.29034504214
0.116865971157643,1587.30034504214
0.106685264207336,1587.31034504214
0.0967450872394959,1587.32034504214
0.087129109792573,1587.33034504214
0.0778627647211121,1587.34034504214
0.068764332491787,1587.35034504214
0.0598538658670451,1587.36034504214
0.0512826308798933,1587.37034504214
0.0426662835870257,1587.38034504214
0.0343427189328449,1587.39034504214
0.0269841155429327,1587.40034504214
0.0197005920577843,1587.41034504214
0.0129889270352076,1587.42034504214
0.00618470502306643,1587.43034504214
-0.000275908873059208,1587.44034504214
-0.006760913661427,1587.45034504214
-0.0126933117540301,1587.46034504214
-0.0179133065200642,1587.47034504214
-0.0234281533742979,1587.48034504214
-0.0287600619708779,1587.49034504214
-0.0343944778684635,1587.50034504214
-0.0401523516553251,1587.51034504214
-0.046305864069563,1587.52034504214
-0.0528734782986441,1587.53034504214
-0.0595026348033114,1587.54034504214
-0.0665224468910117,1587.55034504214
-0.0728954405062967,1587.56034504214
-0.0796280012987795,1587.57034504214
-0.0855692195331878,1587.58034504214
-0.0898101078524284,1587.59034504214
-0.091270186301927,1587.60034504214
-0.0856090820584218,1587.61034504214
-0.0680911565387929,1587.62034504214
-0.0344123033824394,1587.63034504214
0.0166418695200288,1587.64034504214
0.0827525650936924,1587.65034504214
0.156913971268328,1587.66034504214
0.231303245370169,1587.67034504214
0.298977420032466,1587.68034504214
0.355550338518357,1587.69034504214
0.399880537587976,1587.70034504214
0.431273925630986,1587.71034504214
0.450982407270885,1587.72034504214
0.461299202289261,1587.73034504214
0.463664357643523,1587.74034504214
0.461102367562264,1587.75034504214
0.454938905093429,1587.76034504214
0.446663848928175,1587.77034504214
0.437813235476034,1587.78034504214
0.427906221956012,1587.79034504214
0.418359529622312,1587.80034504214
0.409126279190849,1587.81034504214
0.400238564029861,1587.82034504214
0.391268567764979,1587.83034504214
0.381936257244804,1587.84034504214
0.372748688513369,1587.85034504214
0.363426240691194,1587.86034504214
0.353625341449981,1587.87034504214
0.342994520809374,1587.88034504214
0.33100111500885,1587.89034504214
0.316626837042101,1587.90034504214
0.29981615283713,1587.91034504214
0.281910602333956,1587.92034504214
0.264038999004455,1587.93034504214
0.247697660213407,1587.94034504214
0.234055642331769,1587.95034504214
0.224247466810415,1587.96034504214
0.218689450145992,1587.97034504214
0.217020938857734,1587.98034504214
0.219095357518327,1587.99034504214
0.225062529409104,1588.00034504214
0.233010534329847,1588.01034504214
0.242432743683729,1588.02034504214
0.251405072095295,1588.03034504214
0.259128531436527,1588.04034504214
0.264699191577806,1588.05034504214
0.267444132029381,1588.06034504214
0.26742360225808,1588.07034504214
0.264978660668049,1588.08034504214
0.260199386846723,1588.09034504214
0.253996419488653,1588.10034504214
0.245902327809512,1588.11034504214
0.237345665187595,1588.12034504214
0.22789552131926,1588.13034504214
0.218152275580257,1588.14034504214
0.208479742040636,1588.15034504214
0.198697851661145,1588.16034504214
0.18832646337403,1588.17034504214
0.177669095358457,1588.18034504214
0.166757162057772,1588.19034504214
0.156069851936052,1588.20034504214
0.145801177649382,1588.21034504214
0.136269391792281,1588.22034504214
0.126540682047872,1588.23034504214
0.11739409450662,1588.24034504214
0.107758795393946,1588.25034504214
0.0979288341769066,1588.26034504214
0.0882854878336933,1588.27034504214
0.0784554444547339,1588.28034504214
0.0689268364621871,1588.29034504214
0.0593640082841803,1588.30034504214
0.0498522494657406,1588.31034504214
0.0405909120101401,1588.32034504214
0.0318420133479994,1588.33034504214
0.0236662568298783,1588.34034504214
0.0156297300869792,1588.35034504214
0.00760710755164456,1588.36034504214
-0.000142029973470556,1588.37034504214
-0.00768820446819285,1588.38034504214
-0.0151995527614824,1588.39034504214
-0.023247716250322,1588.40034504214
-0.0310300110889929,1588.41034504214
-0.0387806142018838,1588.42034504214
-0.0465932014627597,1588.43034504214
-0.0537364641406884,1588.44034504214
-0.0598784902847016,1588.45034504214
-0.0650014402281619,1588.46034504214
-0.0697788105992972,1588.47034504214
-0.0735065234923545,1588.48034504214
-0.0780023613086893,1588.49034504214
-0.0825639501810541,1588.50034504214
-0.0874869538475044,1588.51034504214
-0.0928093375866768,1588.52034504214
-0.0987385436106614,1588.53034504214
-0.104701384651244,1588.54034504214
-0.111254166954291,1588.55034504214
-0.118100259902464,1588.56034504214
-0.12486187456974,1588.57034504214
-0.130796973196459,1588.58034504214
-0.134483453121862,1588.59034504214
-0.133578781546941,1588.60034504214
-0.123258195054294,1588.61034504214
-0.0977419128111047,1588.62034504214
-0.0543851185275535,1588.63034504214
0.00703117124729671,1588.64034504214
0.0810044511418127,1588.65034504214
0.159082595885206,1588.66034504214
0.23324829256493,1588.67034504214
0.297826658379718,1588.68034504214
0.349767402784822,1588.69034504214
0.388832796867901,1588.70034504214
0.415038422066105,1588.71034504214
0.430423716846679,1588.72034504214
0.437176522315691,1588.73034504214
0.437642375765329,1588.74034504214
0.433833632209191,1588.75034504214
0.427297345327861,1588.76034504214
0.419040812487824,1588.77034504214
0.410762638956369,1588.78034504214
0.40179454326322,1588.79034504214
0.392829089363566,1588.80034504214
0.383776665227211,1588.81034504214
0.37476869088991,1588.82034504214
0.3659226048845,1588.83034504214
0.357279893892273,1588.84034504214
0.348846502951518,1588.85034504214
0.340513254444241,1588.86034504214
0.331417206800523,1588.87034504214
0.32140339743089,1588.88034504214
0.309008549773208,1588.89034504214
0.29461002156818,1588.90034504214
0.278115881587193,1588.91034504214
0.260873036530491,1588.92034504214
0.243866313860988,1588.93034504214
0.228471999484507,1588.94034504214
0.216321066186894,1588.95034504214
0.20758779674319,1588.96034504214
0.202591209217994,1588.97034504214
0.201500358836619,1588.98034504214
0.203748665243337,1588.99034504214
0.20884606452135,1589.00034504214
0.216103921889665,1589.01034504214
0.224086149093511,1589.02034504214
0.231417014738651,1589.03034504214
0.237486899590322,1589.04034504214
0.241057497755971,1589.05034504214
0.241648631624676,1589.06034504214
0.240255498634389,1589.07034504214
0.236734129545829,1589.08034504214
0.230934577567512,1589.09034504214
0.223900414193186,1589.10034504214
0.215274215300643,1589.11034504214
0.205794504159844,1589.12034504214
0.195918769940196,1589.13034504214
0.186712907818289,1589.14034504214
0.177604073211574,1589.15034504214
0.168893080771158,1589.16034504214
0.16025384768493,1589.17034504214
0.151033016525329,1589.18034504214
0.141656588824843,1589.19034504214
0.132489539241679,1589.20034504214
0.123292262630208,1589.21034504214
0.11361040446096,1589.22034504214
0.104326316497447,1589.23034504214
0.0953490326244747,1589.24034504214
0.0857274649812437,1589.25034504214
0.0769307830490065,1589.26034504214
0.0683800264315117,1589.27034504214
0.0601104927830926,1589.28034504214
0.052054322275346,1589.29034504214
0.0444466232829252,1589.30034504214
0.0366474580585788,1589.31034504214
0.0289091420408609,1589.32034504214
0.0210346188186083,1589.33034504214
0.0134515872549699,1589.34034504214
0.00572731542598177,1589.35034504214
-0.00210984428163094,1589.36034504214
-0.00907371020892125,1589.37034504214
-0.0162200873498153,1589.38034504214
-0.0229306720636043,1589.39034504214
-0.0297051544862257,1589.40034504214
-0.0367614074965081,1589.41034504214
-0.0437355973187047,1589.42034504214
-0.050623579523409,1589.43034504214
-0.0578580463580084,1589.44034504214
-0.064865076181872,1589.45034504214
-0.0723549839139714,1589.46034504214
-0.0801080133455304,1589.47034504214
-0.0874215618090449,1589.48034504214
-0.0953129714449601,1589.49034504214
-0.103052192235037,1589.50034504214
-0.111157729400809,1589.51034504214
-0.119866991167831,1589.52034504214
-0.128363283212538,1589.53034504214
-0.137332662062185,1589.54034504214
-0.1457303699649,1589.55034504214
-0.152884051989857,1589.56034504214
-0.15618368012971,1589.57034504214
-0.152550053404624,1589.58034504214
-0.137134064229904,1589.59034504214
-0.105382959136298,1589.60034504214
-0.0543199699586868,1589.61034504214
0.0133615175255477,1589.62034504214
0.0905576547635817,1589.63034504214
0.168774765958632,1589.64034504214
0.240477496284414,1589.65034504214
0.300427035691877,1589.66034504214
0.347017715998351,1589.67034504214
0.380412578950022,1589.68034504214
0.401986319289171,1589.69034504214
0.413820852378551,1589.70034504214
0.417945801496834,1589.71034504214
0.415760959805241,1589.72034504214
0.409636757336667,1589.73034504214
0.401207707917543,1589.74034504214
0.391231040330663,1589.75034504214
0.380566734913945,1589.76034504214
0.369287378527964,1589.77034504214
0.3582986802392,1589.78034504214
0.347058676409351,1589.79034504214
0.336450735274372,1589.80034504214
0.325968321654385,1589.81034504214
0.314987576780225,1589.82034504214
0.304563883749656,1589.83034504214
0.292627860452168,1589.84034504214
0.279644790744681,1589.85034504214
0.265262666667998,1589.86034504214
0.24883839818493,1589.87034504214
0.230902553308882,1589.88034504214
0.212276279162669,1589.89034504214
0.194241203439903,1589.90034504214
0.177973042701614,1589.91034504214
0.164946765588267,1589.92034504214
0.155502674803035,1589.93034504214
0.150754350111872,1589.94034504214
0.149609605130021,1589.95034504214
0.15247310439847,1589.96034504214
0.158472732606792,1589.97034504214
0.166754150124052,1589.98034504214
0.175330783575568,1589.99034504214
0.183294037024622,1590.00034504214
0.190179393572728,1590.01034504214
0.194529163365648,1590.02034504214
0.196209550215617,1590.03034504214
0.195431558686149,1590.04034504214
0.192366176836128,1590.05034504214
0.187596691589874,1590.06034504214
0.181540371611433,1590.07034504214
0.174474531595347,1590.08034504214
0.16673423530228,1590.09034504214
0.158800214198472,1590.10034504214
0.150177707551755,1590.11034504214
0.141072472978413,1590.12034504214
0.13163533263288,1590.13034504214
0.121909530339331,1590.14034504214
0.112461620962933,1590.15034504214
0.10346881716532,1590.16034504214
0.0946091694609854,1590.17034504214
0.086340119173242,1590.18034504214
0.078773069991218,1590.19034504214
0.0713269773524256,1590.20034504214
0.064383239707526,1590.21034504214
0.0576935918194956,1590.22034504214
0.0513919112599012,1590.23034504214
0.0454618976934318,1590.24034504214
0.0401488522480391,1590.25034504214
0.034726703953623,1590.26034504214
0.0291861830307411,1590.27034504214
0.0236958363200854,1590.28034504214
0.0177086635450393,1590.29034504214
0.0117492480143576,1590.30034504214
0.00572975209308197,1590.31034504214
2.40755293344076e-05,1590.32034504214
-0.00493253324489481,1590.33034504214
-0.00968852727236804,1590.34034504214
-0.0138542921252126,1590.35034504214
-0.0178682726295862,1590.36034504214
-0.0217607769657575,1590.37034504214
-0.0257113543718501,1590.38034504214
-0.0301001390416809,1590.39034504214
-0.0346215352133405,1590.40034504214
-0.0397309845526004,1590.41034504214
-0.0454861558834242,1590.42034504214
-0.0517966390827981,1590.43034504214
-0.0580229619316941,1590.44034504214
-0.0640642966832505,1590.45034504214
-0.06971352532398,1590.46034504214
-0.0744970272140399,1590.47034504214
-0.0763466914849696,1590.48034504214
-0.0731372504415808,1590.49034504214
-0.0608093002925639,1590.50034504214
-0.034479873963487,1590.51034504214
0.00817595916711573,1590.52034504214
0.0652310149642267,1590.53034504214
0.13185187427301,1590.54034504214
0.200973890157982,1590.55034504214
0.266274691688413,1590.56034504214
0.323080198235879,1590.57034504214
0.369621652272093,1590.58034504214
0.40510105864668,1590.59034504214
0.429504610084979,1590.60034504214
0.44331209521176,1590.61034504214
0.449229532061003,1590.62034504214
0.448472083859793,1590.63034504214
0.443464189943016,1590.64034504214
0.436441220731616,1590.65034504214
0.427790878616054,1590.66034504214
0.419151793594835,1590.67034504214
0.409724880451984,1590.68034504214
0.400045912874755,1590.69034504214
0.390451261795445,1590.70034504214
0.380581668220227,1590.71034504214
0.37140835865853,1590.72034504214
0.362184094805807,1590.73034504214
0.352720923873671,1590.74034504214
0.342785938572295,1590.75034504214
0.331670617298135,1590.76034504214
0.318864055944381,1590.77034504214
0.30365940102704,1590.78034504214
0.286587069450956,1590.79034504214
0.268719836608193,1590.80034504214
0.251841517299027,1590.81034504214
0.236546137739442,1590.82034504214
0.223822981972544,1590.83034504214
0.214942751152251,1590.84034504214
0.210447151919751,1590.85034504214
0.209867983367317,1590.86034504214
0.212620897370741,1590.87034504214
0.218722412566024,1590.88034504214
0.22713952717188,1590.89034504214
0.236565563359398,1590.90034504214
0.245078652577228,1590.91034504214
0.251866923985311,1590.92034504214
0.256138698745753,1590.93034504214
0.257291784780706,1590.94034504214
0.255802889125147,1590.95034504214
0.251945521284572,1590.96034504214
0.245884140495127,1590.97034504214
0.238393966988871,1590.98034504214
0.229993890500879,1590.99034504214
0.22143125352032,1591.00034504214
0.212313582149545,1591.01034504214
0.202987975382957,1591.02034504214
0.192887687262048,1591.03034504214
0.182966675879958,1591.04034504214
0.173132003089036,1591.05034504214
0.163678699667392,1591.06034504214
0.15437131150512,1591.07034504214
0.145030688718335,1591.08034504214
0.135148328845946,1591.09034504214
0.125322005954519,1591.10034504214
0.115311742983571,1591.11034504214
0.105962736145571,1591.12034504214
0.0971543678583303,1591.13034504214
0.0880948110884739,1591.14034504214
0.0793057274327375,1591.15034504214
0.0703793131940315,1591.16034504214
0.0616731891139646,1591.17034504214
0.0538504533629013,1591.18034504214
0.0463307804787729,1591.19034504214
0.0399243961086053,1591.20034504214
0.0333940867002926,1591.21034504214
0.0268505692341615,1591.22034504214
0.0206233409694115,1591.23034504214
0.0141488258354907,1591.24034504214
0.00779679765650385,1591.25034504214
0.00124090150962213,1591.26034504214
-0.00508738651979753,1591.27034504214
-0.0118033938072331,1591.28034504214
-0.0184833168890411,1591.29034504214
-0.0254803110056066,1591.30034504214
-0.0320764287278027,1591.31034504214
-0.0389556010305094,1591.32034504214
-0.0448802613271837,1591.33034504214
-0.0483570210721445,1591.34034504214
-0.0463750307221134,1591.35034504214
-0.0341143997214519,1591.36034504214
-0.00709614413652954,1591.37034504214
0.0367510399059425,1591.38034504214
0.0955103203620063,1591.39034504214
0.163768428014335,1591.40034504214
0.234414318431421,1591.41034504214
0.301035066902295,1591.42034504214
0.359549510884825,1591.43034504214
0.40715500395942,1591.44034504214
0.443053638988736,1591.45034504214
0.467945850692377,1591.46034504214
0.482556231885735,1591.47034504214
0.489080344044783,1591.48034504214
0.489653179478156,1591.49034504214
0.485863277538014,1591.50034504214
0.479676968080803,1591.51034504214
0.472399138709363,1591.52034504214
0.464091607291485,1591.53034504214
0.456114726276994,1591.54034504214
0.447589896528977,1591.55034504214
0.439450384847405,1591.56034504214
0.430727648904694,1591.57034504214
0.422581805302383,1591.58034504214
0.414497083535475,1591.59034504214
0.405709025988068,1591.60034504214
0.39702530571849,1591.61034504214
0.386924249266074,1591.62034504214
0.375045087899399,1591.63034504214
0.361011075288615,1591.64034504214
0.344265209985228,1591.65034504214
0.32604425195872,1591.66034504214
0.307272626939591,1591.67034504214
0.289831823929338,1591.68034504214
0.274156667295142,1591.69034504214
0.261631634681454,1591.70034504214
0.253077041787711,1591.71034504214
0.247895231356715,1591.72034504214
0.24643460856192,1591.73034504214
0.248185091170475,1591.74034504214
0.252087903112217,1591.75034504214
0.257490054212611,1591.76034504214
0.263816880002772,1591.77034504214
0.270033998272461,1591.78034504214
0.275234115538326,1591.79034504214
0.279579218118475,1591.80034504214
0.281350021619078,1591.81034504214
0.281595160612654,1591.82034504214
0.279411552434746,1591.83034504214
0.275269920452843,1591.84034504214
0.269850299444378,1591.85034504214
0.263356695302956,1591.86034504214
0.255868724575585,1591.87034504214
0.247158025691374,1591.88034504214
0.23813557748201,1591.89034504214
0.228349936572319,1591.90034504214
0.219299703624224,1591.91034504214
0.210466635775344,1591.92034504214
0.201991245661299,1591.93034504214
0.193187370358503,1591.94034504214
0.184343325302055,1591.95034504214
0.175318113150711,1591.96034504214
0.166529722129672,1591.97034504214
0.158281861612382,1591.98034504214
0.149586259039177,1591.99034504214
0.140920350135027,1592.00034504214
0.132357385336498,1592.01034504214
0.123224321960298,1592.02034504214
0.114339126176576,1592.03034504214
0.106090478665066,1592.04034504214
0.0983873238185401,1592.05034504214
0.0910186238261531,1592.06034504214
0.0835341450988974,1592.07034504214
0.0761799329582044,1592.08034504214
0.0684068044499535,1592.09034504214
0.0611833833275938,1592.10034504214
0.0539125333452932,1592.11034504214
0.0467058083568587,1592.12034504214
0.0395026987524808,1592.13034504214
0.031876102191878,1592.14034504214
0.0243518047280409,1592.15034504214
0.0165595562546855,1592.16034504214
0.00961115208551613,1592.17034504214
0.00298883938672735,1592.18034504214
-0.000538303238113076,1592.19034504214
0.00112581917587074,1592.20034504214
0.0120218038896588,1592.21034504214
0.0377690263528883,1592.22034504214
0.0796512004337518,1592.23034504214
0.136394322130998,1592.24034504214
0.202897476928756,1592.25034504214
0.271683571010383,1592.26034504214
0.336731775417434,1592.27034504214
0.394198037593594,1592.28034504214
0.440996729036594,1592.29034504214
0.476224500243216,1592.30034504214
0.500010190281667,1592.31034504214
0.513183807592138,1592.32034504214
0.518147338429424,1592.33034504214
0.517542808109161,1592.34034504214
0.512798168722635,1592.35034504214
0.505894672302112,1592.36034504214
0.497530377525673,1592.37034504214
0.487935650398198,1592.38034504214
0.478444310119046,1592.39034504214
0.46842445800534,1592.40034504214
0.457986955779706,1592.41034504214
0.447813898148093,1592.42034504214
0.437545150910221,1592.43034504214
0.427594738534349,1592.44034504214
0.417141729970383,1592.45034504214
0.406166184708154,1592.46034504214
0.394782162690324,1592.47034504214
0.381216751318494,1592.48034504214
0.365480828297681,1592.49034504214
0.348064028899811,1592.50034504214
0.329014727336587,1592.51034504214
0.309737090329986,1592.52034504214
0.2918661993906,1592.53034504214
0.277014740223544,1592.54034504214
0.265744598373358,1592.55034504214
0.258625413992395,1592.56034504214
0.256027704329952,1592.57034504214
0.25703370784063,1592.58034504214
0.261102284868661,1592.59034504214
0.266942112752794,1592.60034504214
0.273803578808402,1592.61034504214
0.280461498199242,1592.62034504214
0.286012819920741,1592.63034504214
0.288984095491112,1592.64034504214
0.290147095676932,1592.65034504214
0.289301446219479,1592.66034504214
0.286761837026419,1592.67034504214
0.282738498227351,1592.68034504214
0.277620852016262,1592.69034504214
0.271304649866159,1592.70034504214
0.264021970558813,1592.71034504214
0.256504529393364,1592.72034504214
0.248479463600485,1592.73034504214
0.240402740418668,1592.74034504214
0.232785928346308,1592.75034504214
0.225284142583423,1592.76034504214
0.218747060513504,1592.77034504214
0.211961526916143,1592.78034504214
0.205111056827907,1592.79034504214
0.198319257839517,1592.80034504214
0.191871691374467,1592.81034504214
0.185842184922584,1592.82034504214
0.180290167169096,1592.83034504214
0.175746749014293,1592.84034504214
0.171511206999708,1592.85034504214
0.167505352999693,1592.86034504214
0.164052308815662,1592.87034504214
0.160629544111577,1592.88034504214
0.156392215827843,1592.89034504214
0.151771736618854,1592.90034504214
0.146318580524169,1592.91034504214
0.140011241595936,1592.92034504214
0.13350004173522,1592.93034504214
0.126005574987422,1592.94034504214
0.11810463685629,1592.95034504214
0.110245780011729,1592.96034504214
0.102752151482747,1592.97034504214
0.0957197878604778,1592.98034504214
0.0902473422343222,1592.99034504214
0.0879407074888741,1593.00034504214
0.0916109458091917,1593.01034504214
0.105401686002534,1593.02034504214
0.132100162163557,1593.03034504214
0.172348817296529,1593.04034504214
0.223512779138332,1593.05034504214
0.280129193179118,1593.06034504214
0.338545847854544,1593.07034504214
0.394235513389644,1593.08034504214
0.443037917883327,1593.09034504214
0.483253037137751,1593.10034504214
0.51240816771219,1593.11034504214
0.530821785454006,1593.12034504214
0.540642731986327,1593.13034504214
0.54366909191948,1593.14034504214
0.542310057864751,1593.15034504214
0.538375862480083,1593.16034504214
0.532924543567431,1593.17034504214
0.526411087524843,1593.18034504214
0.518958621272063,1593.19034504214
0.510971965519983,1593.20034504214
0.501889390290324,1593.21034504214
0.492348671933952,1593.22034504214
0.482137131516662,1593.23034504214
0.470969174322565,1593.24034504214
0.459074431065527,1593.25034504214
0.446248021561877,1593.26034504214
0.431959936889857,1593.27034504214
0.416314812691079,1593.28034504214
0.398752773358445,1593.29034504214
0.37951560844265,1593.30034504214
0.359421564037351,1593.31034504214
0.339595721384731,1593.32034504214
0.321429495675983,1593.33034504214
0.305698426483719,1593.34034504214
0.293092465032247,1593.35034504214
0.285348953083568,1593.36034504214
0.281086973714594,1593.37034504214
0.281466870043712,1593.38034504214
0.285466492852927,1593.39034504214
0.292160926463664,1593.40034504214
0.301006097857195,1593.41034504214
0.310898916072854,1593.42034504214
0.320145838449402,1593.43034504214
0.327732830114374,1593.44034504214
0.333802294522725,1593.45034504214
0.337425092010054,1593.46034504214
0.338707637731368,1593.47034504214
0.337819771798473,1593.48034504214
0.33464737811255,1593.49034504214
0.329844941340328,1593.50034504214
0.323794226519827,1593.51034504214
0.316879236714007,1593.52034504214
0.309192460856437,1593.53034504214
0.301096035968122,1593.54034504214
0.292416869630776,1593.55034504214
0.28320873325513,1593.56034504214
0.273277498837376,1593.57034504214
0.26363665651133,1593.58034504214
0.25353235352239,1593.59034504214
0.243846956544076,1593.60034504214
0.234125480891218,1593.61034504214
0.2247221431947,1593.62034504214
0.215631981514672,1593.63034504214
0.206476108903809,1593.64034504214
0.197723755366632,1593.65034504214
0.189440217120213,1593.66034504214
0.181570461334934,1593.67034504214
0.173627995681264,1593.68034504214
0.165074870217326,1593.69034504214
0.155813295051103,1593.70034504214
0.145810698058638,1593.71034504214
0.135586648824819,1593.72034504214
0.124927798697094,1593.73034504214
0.114374205776275,1593.74034504214
0.104282638859042,1593.75034504214
0.0958357724552623,1593.76034504214
0.0899457003973409,1593.77034504214
0.0885840304179446,1593.78034504214
0.0948071780053303,1593.79034504214
0.112626762204172,1593.80034504214
0.144469714726643,1593.81034504214
0.190197645638649,1593.82034504214
0.245739809255929,1593.83034504214
0.306295927544006,1593.84034504214
0.367149633509783,1593.85034504214
0.423185489283433,1593.86034504214
0.470462174429786,1593.87034504214
0.506825850256964,1593.88034504214
0.531774551870005,1593.89034504214
0.546371981988978,1593.90034504214
0.552768281180946,1593.91034504214
0.553084237162217,1593.92034504214
0.549215315857532,1593.93034504214
0.542519076790356,1593.94034504214
0.534902733750408,1593.95034504214
0.527052837399912,1593.96034504214
0.51879629921887,1593.97034504214
0.510275632636884,1593.98034504214
0.501805325528296,1593.99034504214
0.493032183602586,1594.00034504214
0.48404648463373,1594.01034504214
0.474871032292969,1594.02034504214
0.464400024312089,1594.03034504214
0.452929929456975,1594.04034504214
0.43979511811993,1594.05034504214
0.424202694415048,1594.06034504214
0.406591343978524,1594.07034504214
0.386720052201244,1594.08034504214
0.366104521807997,1594.09034504214
0.346039144280299,1594.10034504214
0.328036369050822,1594.11034504214
0.313635268196675,1594.12034504214
0.303353657260571,1594.13034504214
0.297250679241361,1594.14034504214
0.295526529039888,1594.15034504214
0.29739345039733,1594.16034504214
0.302044509809867,1594.17034504214
0.308920789634913,1594.18034504214
0.317539619855876,1594.19034504214
0.325692433941789,1594.20034504214
0.332819269932402,1594.21034504214
0.338231206063593,1594.22034504214
0.34145061140564,1594.23034504214
0.342775972102614,1594.24034504214
0.341495349698762,1594.25034504214
0.338301501874354,1594.26034504214
0.33362607210678,1594.27034504214
0.327639823007119,1594.28034504214
0.320082711494413,1594.29034504214
0.311716585325386,1594.30034504214
0.302246354877847,1594.31034504214
0.292338580493902,1594.32034504214
0.282277044769231,1594.33034504214
0.27198047645007,1594.34034504214
0.262135950453083,1594.35034504214
0.252250471363656,1594.36034504214
0.242567728271428,1594.37034504214
0.232728726212235,1594.38034504214
0.222413977398973,1594.39034504214
0.212959279734051,1594.40034504214
0.203358722935102,1594.41034504214
0.19400104540378,1594.42034504214
0.184838737243939,1594.43034504214
0.175202539856278,1594.44034504214
0.165190407145182,1594.45034504214
0.154315708420839,1594.46034504214
0.143596809100598,1594.47034504214
0.132236613272134,1594.48034504214
0.120866061228292,1594.49034504214
0.109962718089415,1594.50034504214
0.0997481492465277,1594.51034504214
0.0910982681528413,1594.52034504214
0.084852433522093,1594.53034504214
0.0832507043336126,1594.54034504214
0.0902045746458829,1594.55034504214
0.109684420544916,1594.56034504214
0.143598113951703,1594.57034504214
0.1908247209043,1594.58034504214
0.247536764925902,1594.59034504214
0.30852997905684,1594.60034504214
0.369390230563528,1594.61034504214
0.424469676869291,1594.62034504214
0.469267670047137,1594.63034504214
0.501578987766427,1594.64034504214
0.521544820577826,1594.65034504214
0.531199747287548,1594.66034504214
0.532944289353561,1594.67034504214
0.53020043200913,1594.68034504214
0.524605563671066,1594.69034504214
0.517507101615165,1594.70034504214
0.509668039519255,1594.71034504214
0.501570348032815,1594.72034504214
0.493595925031953,1594.73034504214
0.484620893817751,1594.74034504214
0.475596638182202,1594.75034504214
0.466565821787115,1594.76034504214
0.457057938909295,1594.77034504214
0.446606548763327,1594.78034504214
0.435869801813791,1594.79034504214
0.423560979825785,1594.80034504214
0.409880466988199,1594.81034504214
0.394311653492825,1594.82034504214
0.377014081936907,1594.83034504214
0.357838647609138,1594.84034504214
0.337611665077484,1594.85034504214
0.317610573766599,1594.86034504214
0.299807564582046,1594.87034504214
0.28445907843368,1594.88034504214
0.272784558193548,1594.89034504214
0.264461082191671,1594.90034504214
0.259266232056607,1594.91034504214
0.257168373987216,1594.92034504214
0.257550899355105,1594.93034504214
0.259672126310685,1594.94034504214
0.262958684993891,1594.95034504214
0.266192218303399,1594.96034504214
0.269027788584092,1594.97034504214
0.270674766566546,1594.98034504214
0.270359038477518,1594.99034504214
0.268364128555374,1595.00034504214
0.264181181019324,1595.01034504214
0.258607037004603,1595.02034504214
0.25173436277413,1595.03034504214
0.244138539790346,1595.04034504214
0.23574862191452,1595.05034504214
0.227003039398088,1595.06034504214
0.217469389488071,1595.07034504214
0.207361622665017,1595.08034504214
0.196862963521565,1595.09034504214
0.18645441360065,1595.10034504214
0.175850076379769,1595.11034504214
0.165919697031242,1595.12034504214
0.156104645480757,1595.13034504214
0.146973409755109,1595.14034504214
0.138227539379702,1595.15034504214
0.13013741176363,1595.16034504214
0.122648612360176,1595.17034504214
0.114962712319016,1595.18034504214
0.107804154387855,1595.19034504214
0.100885332105875,1595.20034504214
0.0937162649033724,1595.21034504214
0.0869098342871236,1595.22034504214
0.0795406588390587,1595.23034504214
0.0723491357287199,1595.24034504214
0.0644189000000055,1595.25034504214
0.0565064058893304,1595.26034504214
0.0480828716645109,1595.27034504214
0.0396329267468026,1595.28034504214
0.0321833898454254,1595.29034504214
0.0264515467134837,1595.30034504214
0.0258617597369609,1595.31034504214
0.0335946548227846,1595.32034504214
0.0535405475909389,1595.33034504214
0.0868966985395869,1595.34034504214
0.132821743724765,1595.35034504214
0.187898132122397,1595.36034504214
0.247276760249209,1595.37034504214
0.305591806653948,1595.38034504214
0.357343276127351,1595.39034504214
0.39827476744541,1595.40034504214
0.426790628300155,1595.41034504214
0.443397356083218,1595.42034504214
0.449701330262586,1595.43034504214
0.449396578665134,1595.44034504214
0.444490856367723,1595.45034504214
0.436852446855537,1595.46034504214
0.428634094967259,1595.47034504214
0.420160439386073,1595.48034504214
0.411429619243863,1595.49034504214
0.402744570928323,1595.50034504214
0.393338675570507,1595.51034504214
0.383175782520705,1595.52034504214
0.372891821842171,1595.53034504214
0.362590820787898,1595.54034504214
0.352753613328012,1595.55034504214
0.342515189388611,1595.56034504214
0.331111634723101,1595.57034504214
0.318160869993155,1595.58034504214
0.303575279303984,1595.59034504214
0.286279979593041,1595.60034504214
0.267104177967633,1595.61034504214
0.246838260941264,1595.62034504214
0.226283145474209,1595.63034504214
0.20689485850798,1595.64034504214
0.190156795175728,1595.65034504214
0.17651922296349,1595.66034504214
0.166033738836683,1595.67034504214
0.159259210136322,1595.68034504214
0.155928649708073,1595.69034504214
0.155961900373068,1595.70034504214
0.15797979141018,1595.71034504214
0.160924772274518,1595.72034504214
0.16414629711973,1595.73034504214
0.166465418797722,1595.74034504214
0.167411897915249,1595.75034504214
0.166772774565587,1595.76034504214
0.164492002494381,1595.77034504214
0.160780958201916,1595.78034504214
0.155112949083792,1595.79034504214
0.14858769932734,1595.80034504214
0.141381337799239,1595.81034504214
0.1333800856303,1595.82034504214
0.124376620656373,1595.83034504214
0.115020810562492,1595.84034504214
0.105624822504529,1595.85034504214
0.0954627526675403,1595.86034504214
0.0856538260206382,1595.87034504214
0.0758268239320537,1595.88034504214
0.0662537289276245,1595.89034504214
0.056978016755911,1595.90034504214
0.0484186861907194,1595.91034504214
0.0404833365936627,1595.92034504214
0.0325718833330479,1595.93034504214
0.0251337044408188,1595.94034504214
0.0176887691565799,1595.95034504214
0.0109974015141039,1595.96034504214
0.00425251248000321,1595.97034504214
-0.00224958889316959,1595.98034504214
-0.0090142118628659,1595.99034504214
-0.015842738453045,1596.00034504214
-0.0230462554288369,1596.01034504214
-0.0310374806627551,1596.02034504214
-0.0392368661610784,1596.03034504214
-0.0479653706820783,1596.04034504214
-0.0564512969700179,1596.05034504214
-0.0652783706344871,1596.06034504214
-0.0737398023139186,1596.07034504214
-0.0809992308180309,1596.08034504214
-0.0852192759595057,1596.09034504214
-0.0832725301017688,1596.10034504214
-0.0713240899970457,1596.11034504214
-0.0454497000942414,1596.12034504214
-0.00575449703066149,1596.13034504214
0.0467221949484207,1596.14034504214
0.106996773622333,1596.15034504214
0.170474995436432,1596.16034504214
0.230412086806226,1596.17034504214
0.281049772251228,1596.18034504214
0.318261476506666,1596.19034504214
0.342510320444402,1596.20034504214
0.354031773595438,1596.21034504214
0.355917590964114,1596.22034504214
0.351084654976035,1596.23034504214
0.342708112868716,1596.24034504214
0.331945439595056,1596.25034504214
0.320306288709792,1596.26034504214
0.308525557265803,1596.27034504214
0.29661387964776,1596.28034504214
0.284435087939764,1596.29034504214
0.272146135256327,1596.30034504214
0.259636505443649,1596.31034504214
0.247260219119667,1596.32034504214
0.235539879022083,1596.33034504214
0.224076923937102,1596.34034504214
0.213192482706988,1596.35034504214
0.20184274203014,1596.36034504214
0.189291703950659,1596.37034504214
0.174953961057298,1596.38034504214
0.157955039946674,1596.39034504214
0.138968579182329,1596.40034504214
0.119008752111194,1596.41034504214
0.0989139959368941,1596.42034504214
0.0799466181153344,1596.43034504214
0.0628129161102967,1596.44034504214
0.0488146387449183,1596.45034504214
0.0386733056026226,1596.46034504214
0.0322584856263288,1596.47034504214
0.0294502320219816,1596.48034504214
0.0287922478253997,1596.49034504214
0.0297813066991288,1596.50034504214
0.0318096320960765,1596.51034504214
0.0333935729219161,1596.52034504214
0.034680413710156,1596.53034504214
0.0348659411938933,1596.54034504214
0.0333203437947835,1596.55034504214
0.0308965099152015,1596.56034504214
0.0265189886262964,1596.57034504214
0.020558929192423,1596.58034504214
0.0129248933350543,1596.59034504214
0.00448876282199159,1596.60034504214
-0.00485315866839053,1596.61034504214
-0.0147618887384551,1596.62034504214
-0.0248885098690318,1596.63034504214
-0.0354338616911611,1596.64034504214
-0.0460066174139668,1596.65034504214
-0.0564137740470853,1596.66034504214
-0.0661944349710262,1596.67034504214
-0.0755663903501778,1596.68034504214
-0.0843412590591256,1596.69034504214
-0.0921657386226349,1596.70034504214
-0.0995046208920588,1596.71034504214
-0.10667271915656,1596.72034504214
-0.114010099072198,1596.73034504214
-0.121848671067249,1596.74034504214
-0.130161447490741,1596.75034504214
-0.138230071367625,1596.76034504214
-0.146639685044142,1596.77034504214
-0.1551901339273,1596.78034504214
-0.163735871853854,1596.79034504214
-0.172331172188364,1596.80034504214
-0.180418054355817,1596.81034504214
-0.18825204721131,1596.82034504214
-0.196107164302064,1596.83034504214
-0.203585351611603,1596.84034504214
-0.211457831223508,1596.85034504214
-0.21916156460807,1596.86034504214
-0.225749636512571,1596.87034504214
-0.22897725321891,1596.88034504214
-0.225974806149249,1596.89034504214
-0.212323842662898,1596.90034504214
-0.184475231973874,1596.91034504214
-0.142262642172096,1596.92034504214
-0.0882519689856694,1596.93034504214
-0.0278357078364512,1596.94034504214
0.0334986971228691,1596.95034504214
0.0893393714972597,1596.96034504214
0.134534686603134,1596.97034504214
0.166277877925487,1596.98034504214
0.184334252447166,1596.99034504214
0.190775698195177,1597.00034504214
0.188551755910297,1597.01034504214
0.180401118563405,1597.02034504214
0.169754380944715,1597.03034504214
0.156845418737156,1597.04034504214
0.142882563308378,1597.05034504214
0.129102868597558,1597.06034504214
0.115053842976737,1597.07034504214
0.101099295184919,1597.08034504214
0.0875920080284701,1597.09034504214
0.0744631001959111,1597.10034504214
0.062096293752027,1597.11034504214
0.0504265436393079,1597.12034504214
0.038644010315466,1597.13034504214
0.0265488407309292,1597.14034504214
0.0136855335861355,1597.15034504214
-0.000389404422851744,1597.16034504214
-0.0163198730917141,1597.17034504214
-0.0337627603066426,1597.18034504214
-0.0528274280324822,1597.19034504214
-0.0723053035457043,1597.20034504214
-0.0915202515478665,1597.21034504214
-0.109058755639805,1597.22034504214
-0.124143385212219,1597.23034504214
-0.136469608377946,1597.24034504214
-0.145382598952277,1597.25034504214
-0.151250317268426,1597.26034504214
-0.153997450304391,1597.27034504214
-0.154344563761224,1597.28034504214
-0.153043181329698,1597.29034504214
-0.150471600231294,1597.30034504214
-0.147748827215845,1597.31034504214
-0.145930874384314,1597.32034504214
-0.145321757592775,1597.33034504214
-0.146989586317345,1597.34034504214
-0.150296833989028,1597.35034504214
-0.155607946371294,1597.36034504214
-0.162067098118588,1597.37034504214
-0.169707036909919,1597.38034504214
-0.177908858671002,1597.39034504214
-0.187139372011935,1597.40034504214
-0.19691190411979,1597.41034504214
-0.206858353639693,1597.42034504214
-0.217260841549256,1597.43034504214
-0.227316167505957,1597.44034504214
-0.236824867700314,1597.45034504214
-0.246326164583117,1597.46034504214
-0.256053071058556,1597.47034504214
-0.265348672737596,1597.48034504214
-0.275002145507442,1597.49034504214
-0.284959506500988,1597.50034504214
-0.294576246301085,1597.51034504214
-0.304203546532664,1597.52034504214
-0.312486962892977,1597.53034504214
-0.320451044400333,1597.54034504214
-0.328209171634937,1597.55034504214
-0.335131965800294,1597.56034504214
-0.342426332551477,1597.57034504214
-0.349281076854709,1597.58034504214
-0.356024760136102,1597.59034504214
-0.363053979680963,1597.60034504214
-0.370136651732225,1597.61034504214
-0.377873414994631,1597.62034504214
-0.385795265554475,1597.63034504214
-0.39412294192992,1597.64034504214
-0.402093934415883,1597.65034504214
-0.409181771708427,1597.66034504214
-0.415239967686188,1597.67034504214
-0.417609808999749,1597.68034504214
-0.413977405244433,1597.69034504214
-0.400363973653024,1597.70034504214
-0.372630486637224,1597.71034504214
-0.330489296345071,1597.72034504214
-0.275916735607922,1597.73034504214
-0.213724048593676,1597.74034504214
-0.150685742010597,1597.75034504214
-0.0919069933786283,1597.76034504214
-0.0434175612843734,1597.77034504214
-0.00819060367019117,1597.78034504214
0.0127674618032418,1597.79034504214
0.020821170489514,1597.80034504214
0.0183839006677959,1597.81034504214
0.00930353004515277,1597.82034504214
-0.00394728147838022,1597.83034504214
-0.0192227876325404,1597.84034504214
-0.034899627560587,1597.85034504214
-0.0513137202326418,1597.86034504214
-0.067073328387458,1597.87034504214
-0.082878070236839,1597.88034504214
-0.0982911522646174,1597.89034504214
-0.112476260443525,1597.90034504214
-0.12611230117032,1597.91034504214
-0.138432198294396,1597.92034504214
-0.151260519689286,1597.93034504214
-0.163653013366973,1597.94034504214
-0.177254307770759,1597.95034504214
-0.191969246191657,1597.96034504214
-0.208028520062325,1597.97034504214
-0.225413181875454,1597.98034504214
-0.244347300534316,1597.99034504214
-0.263204665159045,1598.00034504214
-0.28118788336452,1598.01034504214
-0.296843622919652,1598.02034504214
-0.309355040737079,1598.03034504214
-0.318385511515668,1598.04034504214
-0.323583969078134,1598.05034504214
-0.325361767940934,1598.06034504214
-0.324053214010619,1598.07034504214
-0.320583441880445,1598.08034504214
-0.316144704457793,1598.09034504214
-0.311115710168004,1598.10034504214
-0.306646296324191,1598.11034504214
-0.303576505568731,1598.12034504214
-0.301993773324582,1598.13034504214
-0.302701326137514,1598.14034504214
-0.305327057357966,1598.15034504214
-0.309711833569419,1598.16034504214
-0.315550681986107,1598.17034504214
-0.322705802812116,1598.18034504214
-0.330487042027072,1598.19034504214
-0.33845605557589,1598.20034504214
-0.346691861228831,1598.21034504214
-0.355356799510738,1598.22034504214
-0.363886974900832,1598.23034504214
-0.372309074031335,1598.24034504214
-0.380068157588215,1598.25034504214
-0.388036986522141,1598.26034504214
-0.39587673423054,1598.27034504214
-0.403375885588538,1598.28034504214
-0.411342991251469,1598.29034504214
-0.419087108490651,1598.30034504214
-0.426852497432993,1598.31034504214
-0.433855667795439,1598.32034504214
-0.440798429443114,1598.33034504214
-0.446797698670878,1598.34034504214
-0.452700425477273,1598.35034504214
-0.458687868037064,1598.36034504214
-0.465284274915263,1598.37034504214
-0.472160617765752,1598.38034504214
-0.479534111065604,1598.39034504214
-0.486294266231045,1598.40034504214
-0.492546304464245,1598.41034504214
-0.499114642733557,1598.42034504214
-0.505553201560616,1598.43034504214
-0.51209513631972,1598.44034504214
-0.517940761422121,1598.45034504214
-0.521571719809872,1598.46034504214
-0.520728478047848,1598.47034504214
-0.51131066527915,1598.48034504214
-0.489269231911381,1598.49034504214
-0.45199332741661,1598.50034504214
-0.401243045918424,1598.51034504214
-0.341711840448412,1598.52034504214
-0.278623426517621,1598.53034504214
-0.2184433137214,1598.54034504214
-0.167169898006869,1598.55034504214
-0.128225811476171,1598.56034504214
-0.103514194794916,1598.57034504214
-0.0914747752106994,1598.58034504214
-0.0901726901668886,1598.59034504214
-0.096586196160909,1598.60034504214
-0.107666358471088,1598.61034504214
-0.121488739185827,1598.62034504214
-0.136574177021616,1598.63034504214
-0.151790151588506,1598.64034504214
-0.16677346088509,1598.65034504214
-0.181726777507746,1598.66034504214
-0.196044606175317,1598.67034504214
-0.210167061875592,1598.68034504214
-0.22350879938267,1598.69034504214
-0.236468377100905,1598.70034504214
-0.24920329715481,1598.71034504214
-0.26189672946783,1598.72034504214
-0.27540455820449,1598.73034504214
-0.290318676985833,1598.74034504214
-0.306025907972593,1598.75034504214
-0.323114096475395,1598.76034504214
-0.341548605572716,1598.77034504214
-0.360153745119225,1598.78034504214
-0.378129449974016,1598.79034504214
-0.395068637406617,1598.80034504214
-0.409552474152116,1598.81034504214
-0.420710040145568,1598.82034504214
-0.428154471358164,1598.83034504214
-0.432201574403067,1598.84034504214
-0.432963955132622,1598.85034504214
-0.431047730694112,1598.86034504214
-0.427260884607286,1598.87034504214
-0.422315048061929,1598.88034504214
-0.417261829996204,1598.89034504214
-0.412871357736099,1598.90034504214
-0.410000977381299,1598.91034504214
-0.408469570871972,1598.92034504214
-0.409534463855636,1598.93034504214
-0.412419132810852,1598.94034504214
-0.416790801040871,1598.95034504214
-0.422812567730735,1598.96034504214
-0.430114106205536,1598.97034504214
-0.437452069573083,1598.98034504214
-0.445893857777748,1598.99034504214
-0.454367410182471,1599.00034504214
-0.462981845038747,1599.01034504214
-0.471804977970014,1599.02034504214
-0.480171883676131,1599.03034504214
-0.488911833507531,1599.04034504214
-0.497329933776813,1599.05034504214
-0.504691630968859,1599.06034504214
-0.511120785803936,1599.07034504214
-0.516675251767563,1599.08034504214
-0.522294549720483,1599.09034504214
-0.527737609184041,1599.10034504214
-0.533309234610041,1599.11034504214
-0.539256357818805,1599.12034504214
-0.545610539030699,1599.13034504214
-0.552128792206364,1599.14034504214
-0.558466038573645,1599.15034504214
-0.564806819121224,1599.16034504214
-0.57054964680977,1599.17034504214
-0.576516614729525,1599.18034504214
-0.581979323236497,1599.19034504214
-0.587876130751082,1599.20034504214
-0.593340861647735,1599.21034504214
-0.598314691903633,1599.22034504214
-0.603860013122558,1599.23034504214
-0.609750762721401,1599.24034504214
-0.615981194519587,1599.25034504214
-0.621881448187311,1599.26034504214
-0.626576290737205,1599.27034504214
-0.629547600883708,1599.28034504214
-0.62758518031302,1599.29034504214
-0.616795912709958,1599.30034504214
-0.593012880783274,1599.31034504214
-0.55352147956247,1599.32034504214
-0.499577850804467,1599.33034504214
-0.436255578114305,1599.34034504214
-0.369248733897389,1599.35034504214
-0.305378003130653,1599.36034504214
-0.249613038379567,1599.37034504214
-0.207233973510114,1599.38034504214
-0.179520097950295,1599.39034504214
-0.165744413628978,1599.40034504214
-0.163177333198479,1599.41034504214
-0.169203241528288,1599.42034504214
-0.180205471045408,1599.43034504214
-0.193918976655158,1599.44034504214
-0.208756398405461,1599.45034504214
-0.224640246362022,1599.46034504214
-0.240318937463847,1599.47034504214
-0.255724325080568,1599.48034504214
-0.270779851661742,1599.49034504214
-0.285039229160641,1599.50034504214
-0.29890426363775,1599.51034504214
-0.31195843164947,1599.52034504214
-0.32478082804018,1599.53034504214
-0.336846974312091,1599.54034504214
-0.349364986186701,1599.55034504214
-0.361884653103207,1599.56034504214
-0.375491115766454,1599.57034504214
-0.391345542576732,1599.58034504214
-0.408666613036217,1599.59034504214
-0.426616623725639,1599.60034504214
-0.444819067987397,1599.61034504214
-0.462493064603104,1599.62034504214
-0.478356780523847,1599.63034504214
-0.491869372075716,1599.64034504214
-0.501944538396313,1599.65034504214
-0.508172572903808,1599.66034504214
-0.511220632354292,1599.67034504214
-0.510402086997691,1599.68034504214
-0.507574549905799,1599.69034504214
-0.503030833329229,1599.70034504214
-0.497571260656812,1599.71034504214
-0.492630929020959,1599.72034504214
-0.488086795191888,1599.73034504214
-0.484632252376807,1599.74034504214
-0.483517564882935,1599.75034504214
-0.484656060057177,1599.76034504214
-0.487126060426796,1599.77034504214
-0.491375975576888,1599.78034504214
-0.496612479236871,1599.79034504214
-0.502945992541247,1599.80034504214
-0.509589881101475,1599.81034504214
-0.517294539589856,1599.82034504214
-0.524940204869979,1599.83034504214
-0.533039682929138,1599.84034504214
-0.540759541821958,1599.85034504214
-0.548226962991307,1599.86034504214
-0.555288066705144,1599.87034504214
-0.561920488383975,1599.88034504214
-0.568351485877078,1599.89034504214
-0.574314791993458,1599.90034504214
-0.580286629330642,1599.91034504214
-0.586002507274056,1599.92034504214
-0.591610318416984,1599.93034504214
-0.59719776291932,1599.94034504214
-0.60295161607587,1599.95034504214
-0.608914436662643,1599.96034504214
-0.614685918385991,1599.97034504214
-0.620949640170275,1599.98034504214
-0.627012239762741,1599.99034504214
-0.63278378221814,1600.00034504214
-0.638204447195403,1600.01034504214
-0.643308957957905,1600.02034504214
-0.647977341748286,1600.03034504214
-0.652524589367474,1600.04034504214
-0.656950723032737,1600.05034504214
-0.661720971676332,1600.06034504214
-0.666392212747845,1600.07034504214
-0.671666745041175,1600.08034504214
-0.676329367114412,1600.09034504214
-0.681929352328111,1600.10034504214
-0.687353108594351,1600.11034504214
-0.692417975771453,1600.12034504214
-0.694735588242245,1600.13034504214
-0.691007141304842,1600.14034504214
-0.678077518596211,1600.15034504214
-0.651206936612322,1600.16034504214
-0.609012307898152,1600.17034504214
-0.552576238712844,1600.18034504214
-0.487631515887194,1600.19034504214
-0.42048714185717,1600.20034504214
-0.356506696533845,1600.21034504214
-0.301609773586992,1600.22034504214
-0.259840585250237,1600.23034504214
-0.231619684998214,1600.24034504214
-0.217005531403414,1600.25034504214
-0.213830623585024,1600.26034504214
-0.218965048466256,1600.27034504214
-0.22923153025134,1600.28034504214
-0.242695943350417,1600.29034504214
-0.258140596367549,1600.30034504214
-0.274119518424252,1600.31034504214
-0.289895876185934,1600.32034504214
-0.305379064332736,1600.33034504214
-0.319600776490391,1600.34034504214
-0.333935062669659,1600.35034504214
-0.347772033488778,1600.36034504214
-0.360981949579316,1600.37034504214
-0.374442310660512,1600.38034504214
-0.388004378432547,1600.39034504214
-0.402486629680867,1600.40034504214
-0.416830211184855,1600.41034504214
-0.432195864452043,1600.42034504214
-0.448657643951288,1600.43034504214
-0.466935169614775,1600.44034504214
-0.485803851547434,1600.45034504214
-0.504479051269422,1600.46034504214
-0.521395764229637,1600.47034504214
-0.535650206013094,1600.48034504214
-0.546552974257903,1600.49034504214
-0.553815810804263,1600.50034504214
-0.556805608914759,1600.51034504214
-0.556943171562312,1600.52034504214
-0.553709701619501,1600.53034504214
-0.548373498101625,1600.54034504214
-0.541653595276747,1600.55034504214
-0.534491166984207,1600.56034504214
-0.528264492621684,1600.57034504214
-0.523442705581155,1600.58034504214
-0.520492940003724,1600.59034504214
-0.519296032242131,1600.60034504214
-0.519768120540595,1600.61034504214
-0.521894825726428,1600.62034504214
-0.525552170077811,1600.63034504214
-0.53070022319998,1600.64034504214
-0.53653808941607,1600.65034504214
-0.542472721064403,1600.66034504214
-0.54849222117881,1600.67034504214
-0.553931423070765,1600.68034504214
-0.559226100720204,1600.69034504214
-0.565038804943407,1600.70034504214
-0.570579151178011,1600.71034504214
-0.576769621809712,1600.72034504214
-0.583046414086809,1600.73034504214
-0.589718396821942,1600.74034504214
-0.596093917087331,1600.75034504214
-0.602803593526083,1600.76034504214
-0.609064993479882,1600.77034504214
-0.614981749309576,1600.78034504214
-0.620723300852895,1600.79034504214
-0.626120882239106,1600.80034504214
-0.631656848902842,1600.81034504214
-0.636692095824399,1600.82034504214
-0.641312134662793,1600.83034504214
-0.645785544158728,1600.84034504214
-0.650293789302409,1600.85034504214
-0.654776882957714,1600.86034504214
-0.659582660692204,1600.87034504214
-0.664741181674718,1600.88034504214
-0.670095329967768,1600.89034504214
-0.675729529737081,1600.90034504214
-0.681385881414876,1600.91034504214
-0.687140980062497,1600.92034504214
-0.692251420994128,1600.93034504214
-0.695369643226251,1600.94034504214
-0.694674746079495,1600.95034504214
-0.686472493022188,1600.96034504214
-0.666808272214922,1600.97034504214
-0.632761796217015,1600.98034504214
-0.584623303398365,1600.99034504214
-0.525671642555017,1601.00034504214
-0.4617604318697,1601.01034504214
-0.398238108724544,1601.02034504214
-0.340474055300443,1601.03034504214
-0.293349038359298,1601.04034504214
-0.259199142832131,1601.05034504214
-0.238851101191607,1601.06034504214
-0.230609848821463,1601.07034504214
-0.231753028200878,1601.08034504214
-0.239992453512828,1601.09034504214
-0.252417779927724,1601.10034504214
-0.267385697938478,1601.11034504214
-0.283367728926459,1601.12034504214
-0.299797124966819,1601.13034504214
-0.315657689886922,1601.14034504214
-0.330904784602901,1601.15034504214
-0.345768302679496,1601.16034504214
-0.360308416351657,1601.17034504214
-0.374582368861729,1601.18034504214
-0.388720635659137,1601.19034504214
-0.403282150704209,1601.20034504214
-0.417918860262068,1601.21034504214
-0.433432895769193,1601.22034504214
-0.449636748139594,1601.23034504214
-0.466600678010466,1601.24034504214
-0.484250696919919,1601.25034504214
-0.502202418213286,1601.26034504214
-0.519921935072197,1601.27034504214
-0.536265915941092,1601.28034504214
-0.550013220309035,1601.29034504214
-0.56022448121479,1601.30034504214
-0.56607614268267,1601.31034504214
-0.567955275761735,1601.32034504214
-0.566070814307585,1601.33034504214
-0.561529523824216,1601.34034504214
-0.555208922599465,1601.35034504214
-0.548012216129325,1601.36034504214
-0.540696354466738,1601.37034504214
-0.534075913394426,1601.38034504214
-0.529002658496854,1601.39034504214
-0.525619967391303,1601.40034504214
-0.523682742567708,1601.41034504214
-0.523720808414785,1601.42034504214
-0.525963460099257,1601.43034504214
-0.529795723606585,1601.44034504214
-0.534580985187558,1601.45034504214
-0.540395298255939,1601.46034504214
-0.546886225976139,1601.47034504214
-0.55370882252602,1601.48034504214
-0.560636341171658,1601.49034504214
-0.567116807558951,1601.50034504214
-0.573013623284561,1601.51034504214
-0.578559858708478,1601.52034504214
-0.583689698334803,1601.53034504214
-0.588760925287191,1601.54034504214
-0.593614520189204,1601.55034504214
-0.598164378556327,1601.56034504214
-0.602849106195904,1601.57034504214
-0.607733997151638,1601.58034504214
-0.61246213577884,1601.59034504214
-0.617921938381754,1601.60034504214
-0.62281428184313,1601.61034504214
-0.628279291897683,1601.62034504214
-0.633869680452834,1601.63034504214
-0.639356406801858,1601.64034504214
-0.64563595157177,1601.65034504214
-0.65160098579031,1601.66034504214
-0.657904578674032,1601.67034504214
-0.663280579113958,1601.68034504214
-0.668030322295441,1601.69034504214
-0.671960305790552,1601.70034504214
-0.675404246896021,1601.71034504214
-0.678861847962055,1601.72034504214
-0.68267399940273,1601.73034504214
-0.686638826354433,1601.74034504214
-0.691787657151697,1601.75034504214
-0.696500290410077,1601.76034504214
-0.700633776695601,1601.77034504214
-0.702235697316695,1601.78034504214
-0.697324463664057,1601.79034504214
-0.682439830908214,1601.80034504214
-0.653090726402472,1601.81034504214
-0.607916245504589,1601.82034504214
-0.550068450499455,1601.83034504214
-0.484782139474119,1601.84034504214
-0.417196123353497,1601.85034504214
-0.353435041018578,1601.86034504214
-0.298373128803424,1601.87034504214
-0.255084896503901,1601.88034504214
-0.224997593178211,1601.89034504214
-0.20834697564838,1601.90034504214
-0.20218869863114,1601.91034504214
-0.20353357119109,1601.92034504214
-0.210527319960753,1601.93034504214
-0.220466660237697,1601.94034504214
-0.232222302354009,1601.95034504214
-0.245211119210294,1601.96034504214
-0.258553393620956,1601.97034504214
-0.271731520410407,1601.98034504214
-0.284880191764175,1601.99034504214
-0.297138629718881,1602.00034504214
-0.308609232728048,1602.01034504214
-0.319740620050004,1602.02034504214
-0.330782974839065,1602.03034504214
-0.342111079559804,1602.04034504214
-0.353629339002774,1602.05034504214
-0.365600053153104,1602.06034504214
-0.378544510076503,1602.07034504214
-0.392525521149536,1602.08034504214
-0.407525562144047,1602.09034504214
-0.423506810022315,1602.10034504214
-0.439051539582725,1602.11034504214
-0.453631819963787,1602.12034504214
-0.46634575598256,1602.13034504214
-0.476059921588443,1602.14034504214
-0.482483125179549,1602.15034504214
-0.485355723281536,1602.16034504214
-0.48487637094009,1602.17034504214
-0.482155797170646,1602.18034504214
-0.47741336430266,1602.19034504214
-0.471719168702194,1602.20034504214
-0.465627261119945,1602.21034504214
-0.460051861981114,1602.22034504214
-0.455047708425411,1602.23034504214
-0.451642226082789,1602.24034504214
-0.449559806271276,1602.25034504214
-0.449221240529385,1602.26034504214
-0.450259243914384,1602.27034504214
-0.452788266058549,1602.28034504214
-0.45684495509386,1602.29034504214
-0.461556976259987,1602.30034504214
-0.467306919278099,1602.31034504214
-0.473863346648302,1602.32034504214
-0.480778870665986,1602.33034504214
-0.487359155294424,1602.34034504214
-0.493663069507053,1602.35034504214
-0.499253144170965,1602.36034504214
-0.504840543402959,1602.37034504214
-0.51017184786702,1602.38034504214
-0.514856526036563,1602.39034504214
-0.519182899685104,1602.40034504214
-0.523857912535386,1602.41034504214
-0.528635800453744,1602.42034504214
-0.533585744268926,1602.43034504214
-0.538398211964403,1602.44034504214
-0.542959736385802,1602.45034504214
-0.547657819018126,1602.46034504214
-0.552564000674158,1602.47034504214
-0.557490000004068,1602.48034504214
-0.562399209353391,1602.49034504214
-0.567904799939053,1602.50034504214
-0.572912961180848,1602.51034504214
-0.577889606845561,1602.52034504214
-0.582570791325867,1602.53034504214
-0.586883975068222,1602.54034504214
-0.590970743988828,1602.55034504214
-0.595014215111561,1602.56034504214
-0.598869481270975,1602.57034504214
-0.603229909473601,1602.58034504214
-0.608185265485013,1602.59034504214
-0.61327449841261,1602.60034504214
-0.618023600530976,1602.61034504214
-0.622467703537181,1602.62034504214
-0.625530308781515,1602.63034504214
-0.624505971065728,1602.64034504214
-0.616203638457916,1602.65034504214
-0.596321730645779,1602.66034504214
-0.562030271369884,1602.67034504214
-0.512996753740797,1602.68034504214
-0.453535045270861,1602.69034504214
-0.38826234514639,1602.70034504214
-0.321985327227108,1602.71034504214
-0.261549242367923,1602.72034504214
-0.210591503695043,1602.73034504214
-0.172563571028635,1602.74034504214
-0.148258193725257,1602.75034504214
-0.135603670073147,1602.76034504214
-0.133037966524354,1602.77034504214
-0.13648841339695,1602.78034504214
-0.144512208783308,1602.79034504214
-0.155164588540969,1602.80034504214
-0.167024351941687,1602.81034504214
-0.180178809027434,1602.82034504214
-0.192926102620968,1602.83034504214
-0.206227859500568,1602.84034504214
-0.218863528894575,1602.85034504214
-0.230379977140965,1602.86034504214
-0.241417796456872,1602.87034504214
-0.250963226732362,1602.88034504214
-0.260468823842395,1602.89034504214
-0.270427296860809,1602.90034504214
-0.281335740619023,1602.91034504214
-0.293214348948806,1602.92034504214
-0.306187247086951,1602.93034504214
-0.320292252161172,1602.94034504214
-0.335686437558791,1602.95034504214
-0.351197502650212,1602.96034504214
-0.365880200316876,1602.97034504214
-0.37940865645116,1602.98034504214
-0.390002896490875,1602.99034504214
-0.397600411747545,1603.00034504214
-0.40064829585523,1603.01034504214
-0.400694702564302,1603.02034504214
-0.39800070046295,1603.03034504214
-0.393160356973848,1603.04034504214
-0.386818402061302,1603.05034504214
-0.38004134385599,1603.06034504214
-0.373665289813681,1603.07034504214
-0.368648060448501,1603.08034504214
-0.364970559499048,1603.09034504214
-0.36308577411585,1603.10034504214
-0.36306153045279,1603.11034504214
-0.364879103265693,1603.12034504214
-0.368074564419435,1603.13034504214
-0.372343754293145,1603.14034504214
-0.377413520950333,1603.15034504214
-0.382886739628188,1603.16034504214
-0.388736357369233,1603.17034504214
-0.395010948550559,1603.18034504214
-0.40101143106879,1603.19034504214
-0.406108089838279,1603.20034504214
-0.411121661002751,1603.21034504214
-0.415549604864618,1603.22034504214
-0.420022017997692,1603.23034504214
-0.42504004627451,1603.24034504214
-0.429968847838872,1603.25034504214
-0.435427270894961,1603.26034504214
-0.440620748687983,1603.27034504214
-0.446045116815138,1603.28034504214
-0.451942445802436,1603.29034504214
-0.457948132802964,1603.30034504214
-0.463532564408428,1603.31034504214
-0.469553281035222,1603.32034504214
-0.475561305510274,1603.33034504214
-0.481579208777267,1603.34034504214
-0.486602730400048,1603.35034504214
-0.49172820612901,1603.36034504214
-0.496630345580523,1603.37034504214
-0.500891691847161,1603.38034504214
-0.505503243016115,1603.39034504214
-0.509880259880125,1603.40034504214
-0.514186523541327,1603.41034504214
-0.518350206474183,1603.42034504214
-0.521814638391708,1603.43034504214
-0.524710928402583,1603.44034504214
-0.527816391492655,1603.45034504214
-0.530527593731541,1603.46034504214
-0.533423186412945,1603.47034504214
-0.536129958910657,1603.48034504214
-0.53736533494856,1603.49034504214
-0.534363050021915,1603.50034504214
-0.523820223170279,1603.51034504214
-0.501846825295595,1603.52034504214
-0.465983274069764,1603.53034504214
-0.416504639671238,1603.54034504214
-0.357261828313488,1603.55034504214
-0.293013880524817,1603.56034504214
-0.227983224118432,1603.57034504214
-0.168341438124744,1603.58034504214
-0.118885165846297,1603.59034504214
-0.0821186809180899,1603.60034504214
-0.0584082416202652,1603.61034504214
-0.0466050855431851,1603.62034504214
-0.0440591403154508,1603.63034504214
-0.0479144291004428,1603.64034504214
-0.056074315416308,1603.65034504214
-0.0667929795312457,1603.66034504214
-0.0791136562746805,1603.67034504214
-0.092106306423685,1603.68034504214
-0.105202380682097,1603.69034504214
-0.118277448008511,1603.70034504214
-0.131106717982424,1603.71034504214
-0.143249286194328,1603.72034504214
-0.15511454028209,1603.73034504214
-0.166405234531614,1603.74034504214
-0.177586404056614,1603.75034504214
-0.188909463090736,1603.76034504214
-0.200956995946752,1603.77034504214
-0.21441625034123,1603.78034504214
-0.229132975184592,1603.79034504214
-0.245130631805998,1603.80034504214
-0.261148253951058,1603.81034504214
-0.276473303280718,1603.82034504214
-0.289815023672928,1603.83034504214
-0.299994964926515,1603.84034504214
-0.307157559874997,1603.85034504214
-0.310708899256873,1603.86034504214
-0.310021922002616,1603.87034504214
-0.306196254629458,1603.88034504214
-0.299284070077512,1603.89034504214
-0.290615446803231,1603.90034504214
-0.281637858598737,1603.91034504214
-0.273273680639811,1603.92034504214
-0.266355481983213,1603.93034504214
-0.261231312282031,1603.94034504214
-0.258950706966103,1603.95034504214
-0.259014386670782,1603.96034504214
-0.260542949499155,1603.97034504214
-0.264144994566362,1603.98034504214
-0.269091505721328,1603.99034504214
-0.274719592443189,1604.00034504214
-0.280415316575419,1604.01034504214
-0.285845540566412,1604.02034504214
-0.291158455203413,1604.03034504214
-0.296761608071048,1604.04034504214
-0.302496815292571,1604.05034504214
-0.308314727081073,1604.06034504214
-0.314393704616137,1604.07034504214
-0.320581727212459,1604.08034504214
-0.326839067499679,1604.09034504214
-0.333133015450372,1604.10034504214
-0.339392626273258,1604.11034504214
-0.34555025711675,1604.12034504214
-0.3512868496338,1604.13034504214
-0.356935756749301,1604.14034504214
-0.361991079216391,1604.15034504214
-0.366486230989715,1604.16034504214
-0.370889483822101,1604.17034504214
-0.375563403525579,1604.18034504214
-0.380245746742226,1604.19034504214
-0.385159898748178,1604.20034504214
-0.390405071453021,1604.21034504214
-0.395569201933956,1604.22034504214
-0.400612909104891,1604.23034504214
-0.405411028634283,1604.24034504214
-0.410219132719443,1604.25034504214
-0.414619490333965,1604.26034504214
-0.419480271814047,1604.27034504214
-0.423798674196541,1604.28034504214
-0.426393138818268,1604.29034504214
-0.425147908117494,1604.30034504214
-0.416636894453767,1604.31034504214
-0.39742646147147,1604.32034504214
-0.364930627830142,1604.33034504214
-0.318768275758297,1604.34034504214
-0.26257025081233,1604.35034504214
-0.19976435986386,1604.36034504214
-0.135758341270173,1604.37034504214
-0.0764624747246632,1604.38034504214
-0.0263718893887174,1604.39034504214
0.0113114291066932,1604.40034504214
0.0358581052391266,1604.41034504214
0.0486204032461638,1604.42034504214
0.0522846923952857,1604.43034504214
0.049287833042122,1604.44034504214
0.0415948063325022,1604.45034504214
0.0314031988359213,1604.46034504214
0.0199517392585516,1604.47034504214
0.00789857021158395,1604.48034504214
-0.00427171951702738,1604.49034504214
-0.0163782523327331,1604.50034504214
-0.028171744016676,1604.51034504214
-0.0396589855170297,1604.52034504214
-0.0516493569363155,1604.53034504214
-0.0633304974402592,1604.54034504214
-0.0762562040072215,1604.55034504214
-0.0900844158414275,1604.56034504214
-0.10477746320407,1604.57034504214
-0.12035539098597,1604.58034504214
-0.136802727461401,1604.59034504214
-0.152366329831744,1604.60034504214
-0.167146778648673,1604.61034504214
-0.180205810670394,1604.62034504214
-0.190182704702781,1604.63034504214
-0.196985948181575,1604.64034504214
-0.199872514104763,1604.65034504214
-0.199172296534868,1604.66034504214
-0.195329639606856,1604.67034504214
-0.189181062559815,1604.68034504214
-0.181059181250432,1604.69034504214
-0.172460537585976,1604.70034504214
-0.164198161008515,1604.71034504214
-0.156815516018916,1604.72034504214
-0.151180157461119,1604.73034504214
-0.147025280194605,1604.74034504214
-0.144998266400467,1604.75034504214
-0.145032271942578,1604.76034504214
-0.14710629890661,1604.77034504214
-0.150979351413729,1604.78034504214
-0.156327608972562,1604.79034504214
-0.162133537458238,1604.80034504214
-0.168397557660911,1604.81034504214
-0.174236482692087,1604.82034504214
-0.179955228673622,1604.83034504214
-0.186088870414209,1604.84034504214
-0.191872114175388,1604.85034504214
-0.197606805389439,1604.86034504214
-0.203447756735087,1604.87034504214
-0.209264777057403,1604.88034504214
-0.215311738070658,1604.89034504214
-0.220483788021963,1604.90034504214
-0.226430862016508,1604.91034504214
-0.231844869663591,1604.92034504214
-0.236973613969016,1604.93034504214
-0.242127097354203,1604.94034504214
-0.247254892091859,1604.95034504214
-0.252582286511527,1604.96034504214
-0.257769723020678,1604.97034504214
-0.263473707475632,1604.98034504214
-0.268918559801758,1604.99034504214
-0.273755387648037,1605.00034504214
-0.2787946804009,1605.01034504214
-0.283618270282331,1605.02034504214
-0.288763874191887,1605.03034504214
-0.294536728426136,1605.04034504214
-0.300439904775918,1605.05034504214
-0.305676558195949,1605.06034504214
-0.309447649160892,1605.07034504214
-0.309196290841915,1605.08034504214
-0.301575809645634,1605.09034504214
-0.281911836706738,1605.10034504214
-0.248156117303082,1605.11034504214
-0.200019784390344,1605.12034504214
-0.140476875824766,1605.13034504214
-0.0733381221686877,1605.14034504214
-0.00456178703041583,1605.15034504214
0.0585502309942297,1605.16034504214
0.111243544186599,1605.17034504214
0.150350767187774,1605.18034504214
0.176804948859448,1605.19034504214
0.191076212780173,1605.20034504214
0.196964879230892,1605.21034504214
0.197249800754781,1605.22034504214
0.193412437634739,1605.23034504214
0.187934126150803,1605.24034504214
0.181465319558432,1605.25034504214
0.174802468484968,1605.26034504214
0.167565386220655,1605.27034504214
0.160350956831644,1605.28034504214
0.152464129977782,1605.29034504214
0.145012817315972,1605.30034504214
0.137691053356772,1605.31034504214
0.130327449344911,1605.32034504214
0.122799416854281,1605.33034504214
0.115017789272795,1605.34034504214
0.106687637496282,1605.35034504214
0.0968280633098859,1605.36034504214
0.085513988136239,1605.37034504214
0.0729222406112639,1605.38034504214
0.059332473410591,1605.39034504214
0.0464083422290639,1605.40034504214
0.0350874698759497,1605.41034504214
0.0269460524672571,1605.42034504214
0.0218499522883341,1605.43034504214
0.0202676688936478,1605.44034504214
0.0218171654922865,1605.45034504214
0.0258019825247844,1605.46034504214
0.0318506181907134,1605.47034504214
0.0396635947969678,1605.48034504214
0.0477236441774493,1605.49034504214
0.0552176713132663,1605.50034504214
0.0613469435842834,1605.51034504214
0.065469471031949,1605.52034504214
0.0671299376408647,1605.53034504214
0.066407861851003,1605.54034504214
0.0634503654727925,1605.55034504214
0.0591461405544627,1605.56034504214
0.0532246750379233,1605.57034504214
0.0468437480994256,1605.58034504214
0.0398180877519384,1605.59034504214
0.031961034106444,1605.60034504214
0.0243183561484147,1605.61034504214
0.0165033503691433,1605.62034504214
0.00892265041832438,1605.63034504214
0.00182917031978179,1605.64034504214
-0.00467678947668736,1605.65034504214
-0.0105044747300153,1605.66034504214
-0.015773367382131,1605.67034504214
-0.0211755174494863,1605.68034504214
-0.026872000066671,1605.69034504214
-0.0325736591169255,1605.70034504214
-0.0387951281968449,1605.71034504214
-0.0448885727438231,1605.72034504214
-0.0512806830392141,1605.73034504214
-0.0576925850953327,1605.74034504214
-0.0639188006098807,1605.75034504214
-0.0699717156930215,1605.76034504214
-0.07580920604806,1605.77034504214
-0.0816215958315284,1605.78034504214
-0.0873353632979164,1605.79034504214
-0.0926997613534565,1605.80034504214
-0.0976826011055879,1605.81034504214
-0.10242306338282,1605.82034504214
-0.106943169995533,1605.83034504214
-0.110862625803389,1605.84034504214
-0.115362596014295,1605.85034504214
-0.120255726235031,1605.86034504214
-0.126192574809433,1605.87034504214
-0.132002566264417,1605.88034504214
-0.137738447425104,1605.89034504214
-0.141471544814408,1605.90034504214
-0.14077236846325,1605.91034504214
-0.130925371859338,1605.92034504214
-0.108813836495242,1605.93034504214
-0.0711704771331505,1605.94034504214
-0.0189786698311381,1605.95034504214
0.0446231022566349,1605.96034504214
0.115040450989197,1605.97034504214
0.186142886892509,1605.98034504214
0.250414926544092,1605.99034504214
0.303291161287457,1606.00034504214
0.341692133494061,1606.01034504214
0.366935024464844,1606.02034504214
0.380988548509151,1606.03034504214
0.386987153081651,1606.04034504214
0.387562318689094,1606.05034504214
0.384630996610868,1606.06034504214
0.380448982156336,1606.07034504214
0.375628894792606,1606.08034504214
0.370587572717574,1606.09034504214
0.365035172682429,1606.10034504214
0.359326440552433,1606.11034504214
0.353570931603208,1606.12034504214
0.347723056386531,1606.13034504214
0.341635549178462,1606.14034504214
0.335208529408628,1606.15034504214
0.328603761107736,1606.16034504214
0.321115990680748,1606.17034504214
0.311966905443343,1606.18034504214
0.300788066727731,1606.19034504214
0.288169233210157,1606.20034504214
0.273904030823351,1606.21034504214
0.258944865358744,1606.22034504214
0.244009461662683,1606.23034504214
0.23072481869828,1606.24034504214
0.219930097714657,1606.25034504214
0.212467475016867,1606.26034504214
0.208320101930246,1606.27034504214
0.208030071865722,1606.28034504214
0.210948769304627,1606.29034504214
0.216245307571847,1606.30034504214
0.222821684875083,1606.31034504214
0.229404382721808,1606.32034504214
0.236118943742465,1606.33034504214
0.24174838900166,1606.34034504214
0.246769470698601,1606.35034504214
0.249528060712955,1606.36034504214
0.250560793863603,1606.37034504214
0.250267531846335,1606.38034504214
0.248341447233849,1606.39034504214
0.245195055586733,1606.40034504214
0.240410306167845,1606.41034504214
0.234855380632438,1606.42034504214
0.228234699487133,1606.43034504214
0.221156384206109,1606.44034504214
0.214166287337914,1606.45034504214
0.207127543097508,1606.46034504214
0.199962673738541,1606.47034504214
0.192731173613311,1606.48034504214
0.1858976501186,1606.49034504214
0.179164606379957,1606.50034504214
0.17285453377358,1606.51034504214
0.166253210948501,1606.52034504214
0.160134074330766,1606.53034504214
0.15364284378246,1606.54034504214
0.147237846696727,1606.55034504214
0.140100977413218,1606.56034504214
0.133027232912428,1606.57034504214
0.125721228374057,1606.58034504214
0.11853185762467,1606.59034504214
0.111694771722748,1606.60034504214
0.105113239118634,1606.61034504214
0.0990606179894915,1606.62034504214
0.0926286781213265,1606.63034504214
0.0869540204659792,1606.64034504214
0.0816158475044427,1606.65034504214
0.0765010257374584,1606.66034504214
0.0712055202558078,1606.67034504214
0.0657724374511162,1606.68034504214
0.0601630820063231,1606.69034504214
0.0538623265533737,1606.70034504214
0.0469931196178025,1606.71034504214
0.0399065978207281,1606.72034504214
0.03251112398455,1606.73034504214
0.0275443768673207,1606.74034504214
0.0260405527413584,1606.75034504214
0.0319560593340406,1606.76034504214
0.0499549502648482,1606.77034504214
0.0824741193698189,1606.78034504214
0.130426746431612,1606.79034504214
0.19134346447822,1606.80034504214
0.261402957354122,1606.81034504214
0.333537096783864,1606.82034504214
0.401381097325758,1606.83034504214
0.458454463250433,1606.84034504214
0.501660170995034,1606.85034504214
0.531079652987532,1606.86034504214
0.54823464095799,1606.87034504214
0.556287000993255,1606.88034504214
0.558302748885387,1606.89034504214
0.556263806572985,1606.90034504214
0.552053159737864,1606.91034504214
0.546537722175795,1606.92034504214
0.540116631310763,1606.93034504214
0.533458202715362,1606.94034504214
0.526701905544147,1606.95034504214
0.520293437902882,1606.96034504214
0.514525260663692,1606.97034504214
0.508615344314416,1606.98034504214
0.501861288261839,1606.99034504214
0.494877762926097,1607.00034504214
0.486479031650732,1607.01034504214
0.476938808117889,1607.02034504214
0.46523210344987,1607.03034504214
0.452059225357363,1607.04034504214
0.437045356911046,1607.05034504214
0.42128190773735,1607.06034504214
0.405878988805863,1607.07034504214
0.391521933205173,1607.08034504214
0.380376114924175,1607.09034504214
0.372467780822712,1607.10034504214
0.368251464158684,1607.11034504214
0.367949727862316,1607.12034504214
0.37044571156912,1607.13034504214
0.375789938462833,1607.14034504214
0.382477389263634,1607.15034504214
0.39011984521153,1607.16034504214
0.396916306136637,1607.17034504214
0.401655495624816,1607.18034504214
0.405004198086135,1607.19034504214
0.406165186337203,1607.20034504214
0.405314118635531,1607.21034504214
0.40316041489069,1607.22034504214
0.40023592935928,1607.23034504214
0.395491562985587,1607.24034504214
0.390288950226118,1607.25034504214
0.384000604743904,1607.26034504214
0.377418044971655,1607.27034504214
0.369888584434618,1607.28034504214
0.362286005482608,1607.29034504214
0.354431622731332,1607.30034504214
0.34699613734783,1607.31034504214
0.339405975707178,1607.32034504214
0.33185811696133,1607.33034504214
0.324350406679533,1607.34034504214
0.316236358987546,1607.35034504214
0.308551752350953,1607.36034504214
0.30119526571779,1607.37034504214
0.293249788991842,1607.38034504214
0.285673360720709,1607.39034504214
0.278179683495934,1607.40034504214
0.270947020269616,1607.41034504214
0.263949162333888,1607.42034504214
0.257734735783551,1607.43034504214
0.251465084664571,1607.44034504214
0.245173132826641,1607.45034504214
0.239387092098917,1607.46034504214
0.232804041481552,1607.47034504214
0.2262525130351,1607.48034504214
0.219724563663889,1607.49034504214
0.213447263087113,1607.50034504214
0.206265767473471,1607.51034504214
0.199285658576575,1607.52034504214
0.192656577790467,1607.53034504214
0.186534101699465,1607.54034504214
0.183258811826468,1607.55034504214
0.185457520742913,1607.56034504214
0.197253140789128,1607.57034504214
0.222141789772786,1607.58034504214
0.261366499216191,1607.59034504214
0.315160129383595,1607.60034504214
0.379910806237498,1607.61034504214
0.449763360440442,1607.62034504214
0.517230707005108,1607.63034504214
0.575353954794083,1607.64034504214
0.621303273463575,1607.65034504214
0.653134621281091,1607.66034504214
0.672794647238288,1607.67034504214
0.683094554057666,1607.68034504214
0.686610308222459,1607.69034504214
0.686488960679841,1607.70034504214
0.683734476733773,1607.71034504214
0.680041872272626,1607.72034504214
0.676295383278676,1607.73034504214
0.671734149066817,1607.74034504214
0.667624370023434,1607.75034504214
0.66351104053017,1607.76034504214
0.658578909632457,1607.77034504214
0.653510362495578,1607.78034504214
0.64804331386125,1607.79034504214
0.641946945114531,1607.80034504214
0.634959989971605,1607.81034504214
0.626277402016433,1607.82034504214
0.615160021720884,1607.83034504214
0.601668998871056,1607.84034504214
0.585999490971575,1607.85034504214
0.569187440710705,1607.86034504214
0.553060799676196,1607.87034504214
0.538359153481933,1607.88034504214
0.526667647208352,1607.89034504214
0.518890924893987,1607.90034504214
0.514292732264305,1607.91034504214
0.513867350345215,1607.92034504214
0.516738022502035,1607.93034504214
0.521468750886961,1607.94034504214
0.527768906420643,1607.95034504214
0.534032100675221,1607.96034504214
0.539616252938378,1607.97034504214
0.544431503679874,1607.98034504214
0.547488895726711,1607.99034504214
0.549215601316456,1608.00034504214
0.548636328418287,1608.01034504214
0.547220969875891,1608.02034504214
0.54374697246153,1608.03034504214
0.539073504329846,1608.04034504214
0.532593107099213,1608.05034504214
0.525817499089339,1608.06034504214
0.517998108624697,1608.07034504214
0.510325002473272,1608.08034504214
0.502740693958809,1608.09034504214
0.494589417065788,1608.10034504214
0.486891571840031,1608.11034504214
0.479118702693818,1608.12034504214
0.471272388200158,1608.13034504214
0.463237834109714,1608.14034504214
0.456088398803221,1608.15034504214
0.448472897201423,1608.16034504214
0.441509723888407,1608.17034504214
0.434252084441306,1608.18034504214
0.42724223602661,1608.19034504214
0.420291326322283,1608.20034504214
0.413180265523888,1608.21034504214
0.406703697920977,1608.22034504214
0.400542512761924,1608.23034504214
0.394256728343829,1608.24034504214
0.387785997491116,1608.25034504214
0.380896034268839,1608.26034504214
0.373930589912372,1608.27034504214
0.366931249391411,1608.28034504214
0.359081091189345,1608.29034504214
0.351026900075826,1608.30034504214
0.342417273434761,1608.31034504214
0.334176204746482,1608.32034504214
0.327892576443364,1608.33034504214
0.325681314892925,1608.34034504214
0.330591704743516,1608.35034504214
0.346574070232252,1608.36034504214
0.376347021348857,1608.37034504214
0.419951386780687,1608.38034504214
0.476072535503094,1608.39034504214
0.541041803301697,1608.40034504214
0.608613930845924,1608.41034504214
0.671440972883479,1608.42034504214
0.723901534968492,1608.43034504214
0.763104033809801,1608.44034504214
0.789142826758449,1608.45034504214
0.8042578740621,1608.46034504214
0.810942611376183,1608.47034504214
0.812295286503555,1608.48034504214
0.810780556149741,1608.49034504214
0.807595780425909,1608.50034504214
0.80322082037543,1608.51034504214
0.797974763928608,1608.52034504214
0.792409084715657,1608.53034504214
0.786298853744506,1608.54034504214
0.780199225414441,1608.55034504214
0.773684161182136,1608.56034504214
0.76678748914697,1608.57034504214
0.759035697364648,1608.58034504214
0.750602095248177,1608.59034504214
0.741030292318677,1608.60034504214
0.72998771946043,1608.61034504214
0.71695826962102,1608.62034504214
0.702090333893728,1608.63034504214
0.686187082576003,1608.64034504214
0.670206020899837,1608.65034504214
0.655069894816427,1608.66034504214
0.6429217104538,1608.67034504214
0.634276038592444,1608.68034504214
0.629845904889426,1608.69034504214
0.628903221604537,1608.70034504214
0.631868005229562,1608.71034504214
0.636768247634056,1608.72034504214
0.642975478500351,1608.73034504214
0.650219185404773,1608.74034504214
0.656506385066695,1608.75034504214
0.661592592142077,1608.76034504214
0.66510150962355,1608.77034504214
0.666913242934587,1608.78034504214
0.666612383656386,1608.79034504214
0.664727161975442,1608.80034504214
0.661155433312371,1608.81034504214
0.656691386727606,1608.82034504214
0.651193415497473,1608.83034504214
0.64457344069327,1608.84034504214
0.637119600331583,1608.85034504214
0.629420427814963,1608.86034504214
0.621458818433609,1608.87034504214
0.613581181396023,1608.88034504214
0.606140868972187,1608.89034504214
0.598807355056237,1608.90034504214
0.592076650854038,1608.91034504214
0.585011984825815,1608.92034504214
0.578688763555299,1608.93034504214
0.573261746737875,1608.94034504214
0.568491053097027,1608.95034504214
0.564437469918151,1608.96034504214
0.560762718938228,1608.97034504214
0.557120808909285,1608.98034504214
0.554027472804151,1608.99034504214
0.550208056015505,1609.00034504214
0.544842785720221,1609.01034504214
0.53911163672589,1609.02034504214
0.532714594046704,1609.03034504214
0.525894762479799,1609.04034504214
0.518585981492369,1609.05034504214
0.510838540258091,1609.06034504214
0.502615420727639,1609.07034504214
0.494087155439882,1609.08034504214
0.484575900712434,1609.09034504214
0.475386690974446,1609.10034504214
0.465469747217922,1609.11034504214
0.455620648052819,1609.12034504214
0.445875239486038,1609.13034504214
0.436025762480912,1609.14034504214
0.426887612001407,1609.15034504214
0.418540571876971,1609.16034504214
0.412554843309145,1609.17034504214
0.410504727939268,1609.18034504214
0.417130626704733,1609.19034504214
0.435908621144741,1609.20034504214
0.46929636063029,1609.21034504214
0.517870623323298,1609.22034504214
0.579442308934042,1609.23034504214
0.649714225182873,1609.24034504214
0.721140009335238,1609.25034504214
0.785957798640448,1609.26034504214
0.839645470606565,1609.27034504214
0.87918638491728,1609.28034504214
0.905426997722668,1609.29034504214
0.920469321606087,1609.30034504214
0.926943190994081,1609.31034504214
0.928278484675292,1609.32034504214
0.925931561643499,1609.33034504214
0.922406540049396,1609.34034504214
0.917762088728682,1609.35034504214
0.912379396279149,1609.36034504214
0.906939863206331,1609.37034504214
0.901113398604381,1609.38034504214
0.895254958709027,1609.39034504214
0.889246153105412,1609.40034504214
0.883534577930755,1609.41034504214
0.877341191573237,1609.42034504214
0.870609215768348,1609.43034504214
0.862587490354705,1609.44034504214
0.85289600857349,1609.45034504214
0.840626662886546,1609.46034504214
0.826967390894961,1609.47034504214
0.811943787010467,1609.48034504214
0.796447796770973,1609.49034504214
0.782726768016839,1609.50034504214
0.771419072649857,1609.51034504214
0.763551686985355,1609.52034504214
0.759462717031621,1609.53034504214
0.758680741499544,1609.54034504214
0.761617743409107,1609.55034504214
0.766508975889165,1609.56034504214
0.772822807604256,1609.57034504214
0.780138137569442,1609.58034504214
0.78655949648951,1609.59034504214
0.791443010928399,1609.60034504214
0.795165843595471,1609.61034504214
0.796823545241341,1609.62034504214
0.796632579058432,1609.63034504214
0.794695612740271,1609.64034504214
0.791224605483716,1609.65034504214
0.786203328889297,1609.66034504214
0.779523159072771,1609.67034504214
0.772094957597519,1609.68034504214
0.764446077605527,1609.69034504214
0.756326522374615,1609.70034504214
0.748742816864497,1609.71034504214
0.74110941899227,1609.72034504214
0.73347469742964,1609.73034504214
0.726062624766028,1609.74034504214
0.718142478497183,1609.75034504214
0.710247029848224,1609.76034504214
0.701308319799388,1609.77034504214
0.692203582963998,1609.78034504214
0.683099298659362,1609.79034504214
0.673797460606916,1609.80034504214
0.665482881661101,1609.81034504214
0.657223348762308,1609.82034504214
0.648856076235081,1609.83034504214
0.641044715292606,1609.84034504214
0.633207463058901,1609.85034504214
0.625314942267673,1609.86034504214
0.617541163840283,1609.87034504214
0.609382699565186,1609.88034504214
0.601414902402276,1609.89034504214
0.592965672956055,1609.90034504214
0.583915850762827,1609.91034504214
0.574539913137168,1609.92034504214
0.564652119991315,1609.93034504214
0.554906358812273,1609.94034504214
0.545189759745462,1609.95034504214
0.535938538929915,1609.96034504214
0.527842958872401,1609.97034504214
0.521552114567326,1609.98034504214
0.519125239221496,1609.99034504214
0.523741091047046,1610.00034504214
0.539035233765875,1610.01034504214
0.568634730518274,1610.02034504214
0.61302918647101,1610.03034504214
0.671282514359498,1610.04034504214
0.73887400471938,1610.05034504214
0.808932836435613,1610.06034504214
0.874575410630666,1610.07034504214
0.929208292591551,1610.08034504214
0.97051555996065,1610.09034504214
0.997452850964394,1610.10034504214
1.01236521067914,1610.11034504214
1.01848583439768,1610.12034504214
1.01833392381832,1610.13034504214
1.01470637579629,1610.14034504214
1.00938114961769,1610.15034504214
1.00327758326281,1610.16034504214
0.997016887074017,1610.17034504214
0.991133067508175,1610.18034504214
0.985821092645681,1610.19034504214
0.980070005548707,1610.20034504214
0.974109830287569,1610.21034504214
0.967701100953451,1610.22034504214
0.961292059549108,1610.23034504214
0.954140120025344,1610.24034504214
0.945835822065913,1610.25034504214
0.936146442569713,1610.26034504214
0.923858811938485,1610.27034504214
0.909324169932512,1610.28034504214
0.893079430384182,1610.29034504214
0.876129281571868,1610.30034504214
0.858939094217122,1610.31034504214
0.84353177903133,1610.32034504214
0.831137356752413,1610.33034504214
0.821862851793003,1610.34034504214
0.816511030174666,1610.35034504214
0.81542712182152,1610.36034504214
0.817754173964615,1610.37034504214
0.822287135449374,1610.38034504214
0.827526287862164,1610.39034504214
0.832824668209358,1610.40034504214
0.83705857806655,1610.41034504214
0.839151888960186,1610.42034504214
0.839586336193645,1610.43034504214
0.838038182577985,1610.44034504214
0.834739327664652,1610.45034504214
0.829248489002394,1610.46034504214
0.822580067322673,1610.47034504214
0.814063889516837,1610.48034504214
0.804940020398538,1610.49034504214
0.795487266394151,1610.50034504214
0.785699449757284,1610.51034504214
0.775669683986166,1610.52034504214
0.765576902873458,1610.53034504214
0.755701003605163,1610.54034504214
0.745202131087202,1610.55034504214
0.735179566740249,1610.56034504214
0.724884210893588,1610.57034504214
0.714695746658912,1610.58034504214
0.704712571823648,1610.59034504214
0.694976805203389,1610.60034504214
0.684919980602121,1610.61034504214
0.674870982440192,1610.62034504214
0.664940158963928,1610.63034504214
0.654877955480732,1610.64034504214
0.645378843742456,1610.65034504214
0.63628657072027,1610.66034504214
0.628016067015862,1610.67034504214
0.619661187449402,1610.68034504214
0.611827998978629,1610.69034504214
0.603732222888796,1610.70034504214
0.595817239852536,1610.71034504214
0.587390935880106,1610.72034504214
0.579213890096826,1610.73034504214
0.570579189096573,1610.74034504214
0.561407168425299,1610.75034504214
0.552581347456548,1610.76034504214
0.543612025635786,1610.77034504214
0.534718829983085,1610.78034504214
0.525502403204566,1610.79034504214
0.516883306425213,1610.80034504214
0.5097735891107,1610.81034504214
0.505982624396697,1610.82034504214
0.508729601996429,1610.83034504214
0.522463202565347,1610.84034504214
0.550440946985827,1610.85034504214
0.593824137350718,1610.86034504214
0.650777536621856,1610.87034504214
0.71654283954265,1610.88034504214
0.785266463532372,1610.89034504214
0.850269732973471,1610.90034504214
0.905806093529569,1610.91034504214
0.948336067794994,1610.92034504214
0.977370209901956,1610.93034504214
0.993470481826405,1610.94034504214
0.999865638265538,1610.95034504214
0.998901477903687,1610.96034504214
0.993549266793176,1610.97034504214
0.986449524090207,1610.98034504214
0.978487398255498,1610.99034504214
0.970624157723979,1611.00034504214
0.962887642589497,1611.01034504214
0.95491402472157,1611.02034504214
0.947249135809184,1611.03034504214
0.93917264997577,1611.04034504214
0.930552577175796,1611.05034504214
0.921860324815371,1611.06034504214
0.912325515422621,1611.07034504214
0.901948688198804,1611.08034504214
0.889358999928724,1611.09034504214
0.874763940434914,1611.10034504214
0.858020360501091,1611.11034504214
0.839576626571104,1611.12034504214
0.820493547064555,1611.13034504214
0.802602487367652,1611.14034504214
0.787202801813978,1611.15034504214
0.775213120711661,1611.16034504214
0.767481446571043,1611.17034504214
0.763524362063634,1611.18034504214
0.763508457874093,1611.19034504214
0.766608143052545,1611.20034504214
0.77155340761301,1611.21034504214
0.777378343436065,1611.22034504214
0.782618341419786,1611.23034504214
0.787072611153229,1611.24034504214
0.789493103530958,1611.25034504214
0.789150986638843,1611.26034504214
0.78695447385655,1611.27034504214
0.78260983933431,1611.28034504214
0.776734891298146,1611.29034504214
0.769745447815539,1611.30034504214
0.762245805614785,1611.31034504214
0.753728409241535,1611.32034504214
0.745493375186411,1611.33034504214
0.736773032418915,1611.34034504214
0.72754161114928,1611.35034504214
0.718270126976227,1611.36034504214
0.708516022079651,1611.37034504214
0.698032809652435,1611.38034504214
0.687400049105022,1611.39034504214
0.676819489444604,1611.40034504214
0.666175169647674,1611.41034504214
0.65578501148043,1611.42034504214
0.645596256930353,1611.43034504214
0.636089837160474,1611.44034504214
0.626593178888365,1611.45034504214
0.616760457038561,1611.46034504214
0.607173757858669,1611.47034504214
0.597167607474816,1611.48034504214
0.587303466283868,1611.49034504214
0.577438012405767,1611.50034504214
0.568164500276064,1611.51034504214
0.558925903265571,1611.52034504214
0.550411589276221,1611.53034504214
0.541683048904946,1611.54034504214
0.533278629487189,1611.55034504214
0.525176116633182,1611.56034504214
0.517927426659176,1611.57034504214
0.511018173914907,1611.58034504214
0.504600241290737,1611.59034504214
0.498198968034743,1611.60034504214
0.49202161937589,1611.61034504214
0.485580219902505,1611.62034504214
0.478869431100229,1611.63034504214
0.471540550000521,1611.64034504214
0.463702176786462,1611.65034504214
0.455643083242465,1611.66034504214
0.447052014665448,1611.67034504214
0.43803109940799,1611.68034504214
0.429235681774803,1611.69034504214
0.420785175612917,1611.70034504214
0.414895463040876,1611.71034504214
0.413585608087437,1611.72034504214
0.421744126334525,1611.73034504214
0.443188725671464,1611.74034504214
0.480212218438401,1611.75034504214
0.532466895004002,1611.76034504214
0.596653311649061,1611.77034504214
0.666859414055332,1611.78034504214
0.735775218903517,1611.79034504214
0.797167089604921,1611.80034504214
0.845347248895395,1611.81034504214
0.878738375429892,1611.82034504214
0.89843316742025,1611.83034504214
0.90629497989522,1611.84034504214
0.905505957513741,1611.85034504214
0.899441834402185,1611.86034504214
0.889825245934588,1611.87034504214
0.878679053094901,1611.88034504214
0.867197452640201,1611.89034504214
0.855600474792552,1611.90034504214
0.844397853302525,1611.91034504214
0.833554019520824,1611.92034504214
0.82307645177988,1611.93034504214
0.81305457479687,1611.94034504214
0.802877160182074,1611.95034504214
0.792463175320838,1611.96034504214
0.78121955641686,1611.97034504214
0.768292352770338,1611.98034504214
0.75372050115732,1611.99034504214
0.737656287229402,1612.00034504214
0.719984224843879,1612.01034504214
0.701538548068831,1612.02034504214
0.684236670950296,1612.03034504214
0.669210063351696,1612.04034504214
0.657809591939053,1612.05034504214
0.6508638429718,1612.06034504214
0.648073457352857,1612.07034504214
0.649311674496039,1612.08034504214
0.654304908141894,1612.09034504214
0.661083833692406,1612.10034504214
0.669024531971264,1612.11034504214
0.676872130307906,1612.12034504214
0.683357863275817,1612.13034504214
0.687745881024269,1612.14034504214
0.689665710039155,1612.15034504214
0.688570315941145,1612.16034504214
0.684859848053249,1612.17034504214
0.67900514325805,1612.18034504214
0.671296126924718,1612.19034504214
0.662834268324202,1612.20034504214
0.653545781937818,1612.21034504214
0.644048350649623,1612.22034504214
0.6345883082426,1612.23034504214
0.625102561698845,1612.24034504214
0.615299604402371,1612.25034504214
0.604988739391116,1612.26034504214
0.594570112516155,1612.27034504214
0.58433627327573,1612.28034504214
0.574245371512464,1612.29034504214
0.563963124447339,1612.30034504214
0.554290246596506,1612.31034504214
0.544409596058778,1612.32034504214
0.534278345724438,1612.33034504214
0.524778897488952,1612.34034504214
0.515270201416262,1612.35034504214
0.50574075274102,1612.36034504214
0.496410991549279,1612.37034504214
0.487049805767274,1612.38034504214
0.477405851582442,1612.39034504214
0.467728505529505,1612.40034504214
0.458159653615469,1612.41034504214
0.44865518831088,1612.42034504214
0.439707911774919,1612.43034504214
0.431325007933052,1612.44034504214
0.423208226539608,1612.45034504214
0.415704000006533,1612.46034504214
0.40861933330821,1612.47034504214
0.401748227000824,1612.48034504214
0.395300980703118,1612.49034504214
0.388714887664686,1612.50034504214
0.381691502906095,1612.51034504214
0.375083506525715,1612.52034504214
0.367318728829472,1612.53034504214
0.359658717725409,1612.54034504214
0.351314508184603,1612.55034504214
0.342828664390774,1612.56034504214
0.334445161629886,1612.57034504214
0.326509128016851,1612.58034504214
0.319902098403134,1612.59034504214
0.316653598156766,1612.60034504214
0.321068457675565,1612.61034504214
0.336399029535924,1612.62034504214
0.366454653005132,1612.63034504214
0.411167039150437,1612.64034504214
0.468008268067825,1612.65034504214
0.532467163906703,1612.66034504214
0.597519703598409,1612.67034504214
0.656118114339782,1612.68034504214
0.702975996673794,1612.69034504214
0.735460401111588,1612.70034504214
0.753806567454683,1612.71034504214
0.760631630654286,1612.72034504214
0.759528932267687,1612.73034504214
0.752772495366715,1612.74034504214
0.742921420221445,1612.75034504214
0.731585563619232,1612.76034504214
0.719849035674119,1612.77034504214
0.708124759204763,1612.78034504214
0.696857589954712,1612.79034504214
0.685645949123478,1612.80034504214
0.674845215203321,1612.81034504214
0.664355426862109,1612.82034504214
0.654061694542809,1612.83034504214
0.644000279548005,1612.84034504214
0.633279296459408,1612.85034504214
0.621558982643573,1612.86034504214
0.609062832822878,1612.87034504214
0.594811178722684,1612.88034504214
0.578256641846449,1612.89034504214
0.560509960320643,1612.90034504214
0.542439704503226,1612.91034504214
0.525485514886693,1612.92034504214
0.510681695582979,1612.93034504214
0.499642842321374,1612.94034504214
0.492814857615966,1612.95034504214
0.489542533638021,1612.96034504214
0.489826161027838,1612.97034504214
0.492328468515382,1612.98034504214
0.496272987271378,1612.99034504214
0.500639649394015,1613.00034504214
0.504636205579581,1613.01034504214
0.507381008471693,1613.02034504214
0.508525079617947,1613.03034504214
0.508142587007241,1613.04034504214
0.505495905034014,1613.05034504214
0.501067990795503,1613.06034504214
0.494319670127742,1613.07034504214
0.485967973881033,1613.08034504214
0.476287343255003,1613.09034504214
0.465988175964267,1613.10034504214
0.45576491229933,1613.11034504214
0.445673638671348,1613.12034504214
0.43541379918317,1613.13034504214
0.424722788025283,1613.14034504214
0.41418324125683,1613.15034504214
0.40399169905041,1613.16034504214
0.393789360824299,1613.17034504214
0.383324724072766,1613.18034504214
0.373493059553855,1613.19034504214
0.364412974247092,1613.20034504214
0.355149041721163,1613.21034504214
0.345555087615722,1613.22034504214
0.335911453865111,1613.23034504214
0.326195880009405,1613.24034504214
0.316365506086342,1613.25034504214
0.30668391968502,1613.26034504214
0.297292333774384,1613.27034504214
0.287973269861782,1613.28034504214
0.27865250841778,1613.29034504214
0.269132558343691,1613.30034504214
0.260530493539535,1613.31034504214
0.252056560328527,1613.32034504214
0.243608330581927,1613.33034504214
0.2351849529152,1613.34034504214
0.226865001878911,1613.35034504214
0.218622593819086,1613.36034504214
0.210259431203306,1613.37034504214
0.202514935755727,1613.38034504214
0.19474478428684,1613.39034504214
0.18712028690453,1613.40034504214
0.179594760410358,1613.41034504214
0.172286785385836,1613.42034504214
0.165184807418457,1613.43034504214
0.158341826053156,1613.44034504214
0.150712335438161,1613.45034504214
0.143753278579608,1613.46034504214
0.136939685453964,1613.47034504214
0.130708783176313,1613.48034504214
0.124688305982091,1613.49034504214
0.118654139663362,1613.50034504214
0.111639889141701,1613.51034504214
0.104854228960465,1613.52034504214
0.0972437625947126,1613.53034504214
0.0893049544237233,1613.54034504214
0.081748820269569,1613.55034504214
0.0747987745051678,1613.56034504214
0.0700702406038474,1613.57034504214
0.0711667986169969,1613.58034504214
0.0815351894305422,1613.59034504214
0.105396418700094,1613.60034504214
0.143875292072524,1613.61034504214
0.196151577058651,1613.62034504214
0.257355095767965,1613.63034504214
0.321934672174006,1613.64034504214
0.382824261045281,1613.65034504214
0.433690076915479,1613.66034504214
0.470679323808583,1613.67034504214
0.49288967054196,1613.68034504214
0.502063475061911,1613.69034504214
0.50107164291226,1613.70034504214
0.494010677552672,1613.71034504214
0.483164230078679,1613.72034504214
0.471115452458248,1613.73034504214
0.458909681837333,1613.74034504214
0.446870736979374,1613.75034504214
0.435466400234473,1613.76034504214
0.424576355016257,1613.77034504214
0.41411164693328,1613.78034504214
0.404137301040997,1613.79034504214
0.394572083301788,1613.80034504214
0.385037328119369,1613.81034504214
0.375360825020152,1613.82034504214
0.365317298052164,1613.83034504214
0.354534222449137,1613.84034504214
0.34267659923264,1613.85034504214
0.329265157495291,1613.86034504214
0.313483417892153,1613.87034504214
0.297030532149063,1613.88034504214
0.279667095944302,1613.89034504214
0.263686962974235,1613.90034504214
0.250371340322094,1613.91034504214
0.239871191723462,1613.92034504214
0.232959161710635,1613.93034504214
0.229281209216154,1613.94034504214
0.228899850501904,1613.95034504214
0.231430787684939,1613.96034504214
0.235339127547492,1613.97034504214
0.240392376323373,1613.98034504214
0.244338447912621,1613.99034504214
0.247892910360674,1614.00034504214
0.249793957089199,1614.01034504214
0.249778529869234,1614.02034504214
0.24759780103137,1614.03034504214
0.243890592899043,1614.04034504214
0.238288708830562,1614.05034504214
0.23127988889744,1614.06034504214
0.223612210496869,1614.07034504214
0.215277470436078,1614.08034504214
0.206216859447053,1614.09034504214
0.196814098888464,1614.10034504214
0.187138082894402,1614.11034504214
0.177309503361673,1614.12034504214
0.167182545862663,1614.13034504214
0.157193632997209,1614.14034504214
0.146914877782456,1614.15034504214
0.136756855878601,1614.16034504214
0.12659663510649,1614.17034504214
0.116670004688336,1614.18034504214
0.107768964772859,1614.19034504214
0.0983825793425631,1614.20034504214
0.0895102174860401,1614.21034504214
0.0810951830166042,1614.22034504214
0.0729456156459729,1614.23034504214
0.0648972603889657,1614.24034504214
0.0563605175790181,1614.25034504214
0.0481837605673649,1614.26034504214
0.0400605890615798,1614.27034504214
0.0318941951741665,1614.28034504214
0.0235837469151753,1614.29034504214
0.0157988316383222,1614.30034504214
0.00787697797191683,1614.31034504214
0.000461679917759273,1614.32034504214
-0.00709669877740416,1614.33034504214
-0.0145244843753678,1614.34034504214
-0.0215676496508556,1614.35034504214
-0.0286074291608454,1614.36034504214
-0.0351509381182676,1614.37034504214
-0.0420832232831555,1614.38034504214
-0.0484015618193245,1614.39034504214
-0.0544945130267761,1614.40034504214
-0.0604987946523844,1614.41034504214
-0.066519485417278,1614.42034504214
-0.0725748568625713,1614.43034504214
-0.0790560695513241,1614.44034504214
-0.0855298029279368,1614.45034504214
-0.0916350883014163,1614.46034504214
-0.098110749934655,1614.47034504214
-0.103932331060908,1614.48034504214
-0.10989305699384,1614.49034504214
-0.115738263438709,1614.50034504214
-0.120965372126993,1614.51034504214
-0.126209145689704,1614.52034504214
-0.131761976549004,1614.53034504214
-0.137555490343491,1614.54034504214
-0.143697999382518,1614.55034504214
-0.150455427580414,1614.56034504214
-0.15762829930523,1614.57034504214
-0.164683491124851,1614.58034504214
-0.171758979947045,1614.59034504214
-0.178532641938461,1614.60034504214
-0.183601380771815,1614.61034504214
-0.184740752757945,1614.62034504214
-0.178480543461137,1614.63034504214
-0.160999621357244,1614.64034504214
-0.128915594791463,1614.65034504214
-0.0829706122619958,1614.66034504214
-0.0260264910790704,1614.67034504214
0.037358424852504,1614.68034504214
0.0988635062062289,1614.69034504214
0.152808297239942,1614.70034504214
0.194036768646292,1614.71034504214
0.220720835371394,1614.72034504214
0.234211036307432,1614.73034504214
0.236189923948161,1614.74034504214
0.230165164953072,1614.75034504214
0.219649267621427,1614.76034504214
0.206908654855855,1614.77034504214
0.193539598128529,1614.78034504214
0.180447726096505,1614.79034504214
0.167730561759222,1614.80034504214
0.155321667896567,1614.81034504214
0.143327090113128,1614.82034504214
0.132304972401976,1614.83034504214
0.121660420252733,1614.84034504214
0.111609024030043,1614.85034504214
0.102134259754078,1614.86034504214
0.0931636442422019,1614.87034504214
0.0842548050173279,1614.88034504214
0.0743562295757942,1614.89034504214
0.063084523535228,1614.90034504214
0.0496937726108738,1614.91034504214
0.0350757347823059,1614.92034504214
0.0198478133108255,1614.93034504214
0.00506244599520242,1614.94034504214
-0.00726060272415732,1614.95034504214
-0.0164743651516036,1614.96034504214
-0.0220246637881222,1614.97034504214
-0.0236620388719029,1614.98034504214
-0.0220356077927557,1614.99034504214
-0.0172143199306234,1615.00034504214
-0.0112239364711091,1615.01034504214
-0.00483734117154123,1615.02034504214
0.00193431199262037,1615.03034504214
0.00688584836585773,1615.04034504214
0.0104778616683503,1615.05034504214
0.011940527293509,1615.06034504214
0.0116515578774115,1615.07034504214
0.00873196442531345,1615.08034504214
0.00443368434590277,1615.09034504214
-0.00171880048980281,1615.10034504214
-0.00908633921404746,1615.11034504214
-0.0174114649895686,1615.12034504214
-0.0257090017015289,1615.13034504214
-0.0337356857917922,1615.14034504214
-0.0418118306557191,1615.15034504214
-0.0501252199703258,1615.16034504214
-0.0584813821490974,1615.17034504214
-0.0669929395096591,1615.18034504214
-0.0756848747622017,1615.19034504214
-0.0844775034083102,1615.20034504214
-0.093069494406405,1615.21034504214
-0.101906362783867,1615.22034504214
-0.110286954622753,1615.23034504214
-0.118842882424591,1615.24034504214
-0.127239422464248,1615.25034504214
-0.135604470039459,1615.26034504214
-0.143513297773173,1615.27034504214
-0.151106604650632,1615.28034504214
-0.158082952924746,1615.29034504214
-0.164997045730458,1615.30034504214
-0.171865170951263,1615.31034504214
-0.178830292865951,1615.32034504214
-0.186055950494861,1615.33034504214
-0.193089157639501,1615.34034504214
-0.200005195565024,1615.35034504214
-0.206032743787631,1615.36034504214
-0.211788813064458,1615.37034504214
-0.21760302389712,1615.38034504214
-0.223416730691325,1615.39034504214
-0.22918537581732,1615.40034504214
-0.235220516939672,1615.41034504214
-0.240803807948493,1615.42034504214
-0.246569225086141,1615.43034504214
-0.252094298356795,1615.44034504214
-0.257469944554955,1615.45034504214
-0.262326060769379,1615.46034504214
-0.26741343086046,1615.47034504214
-0.271553569993317,1615.48034504214
-0.275578336681011,1615.49034504214
-0.279639795993744,1615.50034504214
-0.283964160256488,1615.51034504214
-0.288349679414681,1615.52034504214
-0.29346185780046,1615.53034504214
-0.298993520877048,1615.54034504214
-0.304719086228596,1615.55034504214
-0.310633006004545,1615.56034504214
-0.316501101443693,1615.57034504214
-0.322114481078497,1615.58034504214
-0.327277711048653,1615.59034504214
-0.331004930809962,1615.60034504214
-0.331711952052338,1615.61034504214
-0.326554451458553,1615.62034504214
-0.311529799747511,1615.63034504214
-0.283611987765755,1615.64034504214
-0.242174793049715,1615.65034504214
-0.18924931689432,1615.66034504214
-0.129709050414644,1615.67034504214
-0.0685106122158014,1615.68034504214
-0.013004912157944,1615.69034504214
0.031666841092071,1615.70034504214
0.0626893370522151,1615.71034504214
0.0801288268354526,1615.72034504214
0.0865064570791331,1615.73034504214
0.0842246676233297,1615.74034504214
0.0773312980559556,1615.75034504214
0.0674473004991367,1615.76034504214
0.0564469475866329,1615.77034504214
0.0449090484390969,1615.78034504214
0.0333614252718632,1615.79034504214
0.0220166666274384,1615.80034504214
0.0107231042166053,1615.81034504214
-7.314072719882e-05,1615.82034504214
-0.0104306104071442,1615.83034504214
-0.0199457277052917,1615.84034504214
-0.0291158797435411,1615.85034504214
-0.0375037624636603,1615.86034504214
-0.0459492233381883,1615.87034504214
-0.0553029754706092,1615.88034504214
-0.0656117985925669,1615.89034504214
-0.0778233359575645,1615.90034504214
-0.0919707408027402,1615.91034504214
-0.106816339526437,1615.92034504214
-0.121162954482068,1615.93034504214
-0.134450810063765,1615.94034504214
-0.144556169603669,1615.95034504214
-0.151320397944337,1615.96034504214
-0.154452421257635,1615.97034504214
-0.154073595454731,1615.98034504214
-0.150981030856836,1615.99034504214
-0.145696894545188,1616.00034504214
-0.139176552345554,1616.01034504214
-0.132133058266644,1616.02034504214
-0.125721078408321,1616.03034504214
-0.120824092912623,1616.04034504214
-0.11794342921162,1616.05034504214
-0.117085506152075,1616.06034504214
-0.118164285047367,1616.07034504214
-0.120520930661192,1616.08034504214
-0.124645588416617,1616.09034504214
-0.130353282981431,1616.10034504214
-0.137223034362137,1616.11034504214
-0.144797556859493,1616.12034504214
-0.152673558542145,1616.13034504214
-0.160285176353377,1616.14034504214
-0.167999986833187,1616.15034504214
-0.175793893824371,1616.16034504214
-0.183575572796828,1616.17034504214
-0.191298894208262,1616.18034504214
-0.199415880321766,1616.19034504214
-0.207495222400811,1616.20034504214
-0.215564088839248,1616.21034504214
-0.223493552047959,1616.22034504214
-0.231005708247585,1616.23034504214
-0.238643803032215,1616.24034504214
-0.245712624208883,1616.25034504214
-0.252708907246648,1616.26034504214
-0.260203886363636,1616.27034504214
-0.267499829563272,1616.28034504214
-0.274916307438249,1616.29034504214
-0.282297167723867,1616.30034504214
-0.289315269075493,1616.31034504214
-0.296093617579046,1616.32034504214
-0.302623911257569,1616.33034504214
-0.309173439922562,1616.34034504214
-0.315694347257879,1616.35034504214
-0.321777144915408,1616.36034504214
-0.327448442600706,1616.37034504214
-0.333325693305096,1616.38034504214
-0.338844198519734,1616.39034504214
-0.344805932513663,1616.40034504214
-0.350620360095213,1616.41034504214
-0.356691290217427,1616.42034504214
-0.362712438647708,1616.43034504214
-0.368687967516673,1616.44034504214
-0.375063284080168,1616.45034504214
-0.381026933334129,1616.46034504214
-0.386428052840565,1616.47034504214
-0.392025030127591,1616.48034504214
-0.396781637341985,1616.49034504214
-0.401060644512055,1616.50034504214
-0.404704305701749,1616.51034504214
-0.408023131263644,1616.52034504214
-0.411397065289946,1616.53034504214
-0.415003961569915,1616.54034504214
-0.418832788042307,1616.55034504214
-0.422943746014538,1616.56034504214
-0.427422758635641,1616.57034504214
-0.432313609586978,1616.58034504214
-0.437343581516374,1616.59034504214
-0.442916849533738,1616.60034504214
-0.44897739624542,1616.61034504214
-0.45454385725104,1616.62034504214
-0.45846813114088,1616.63034504214
-0.459556446499862,1616.64034504214
-0.454916434795036,1616.65034504214
-0.440670058254351,1616.66034504214
-0.413417909674167,1616.67034504214
-0.371950862272291,1616.68034504214
