PPG,time
0.695600800205045,2789.15197548499
1.37672872578809,2789.16197548499
1.21319316378392,2789.17197548499
1.30401630338829,2789.18197548499
1.24968790399143,2789.19197548499
1.28579445928643,2789.20197548499
1.26345453860612,2789.21197548499
1.27624878655513,2789.22197548499
1.26533560387528,2789.23197548499
1.2636819337798,2789.24197548499
1.25323424722718,2789.25197548498
1.24118765413116,2789.26197548499
1.22779998661664,2789.27197548498
1.21370047292205,2789.28197548499
1.20040273947141,2789.29197548498
1.18954225250916,2789.30197548499
1.18196059676808,2789.31197548498
1.17841673395808,2789.32197548499
1.17905274571981,2789.33197548498
1.18340445055749,2789.34197548499
1.19001561021045,2789.35197548498
1.1980689648102,2789.36197548499
1.20648132393003,2789.37197548498
1.21388129582302,2789.38197548499
1.22012032504431,2789.39197548498
1.22362605950236,2789.40197548499
1.22453002467692,2789.41197548499
1.22235326589189,2789.42197548499
1.21697826416119,2789.43197548499
1.20887477622983,2789.44197548499
1.19816367686512,2789.45197548499
1.18583899020986,2789.46197548499
1.17227010893601,2789.47197548499
1.15755973328467,2789.48197548499
1.14232592854812,2789.49197548499
1.12660402325338,2789.50197548498
1.1105226398959,2789.51197548499
1.09446302717421,2789.52197548498
1.0786964793015,2789.53197548499
1.06315588296757,2789.54197548498
1.04743668250973,2789.55197548499
1.03128766875491,2789.56197548498
1.01405460156135,2789.57197548499
0.996738732890017,2789.58197548498
0.980327321154537,2789.59197548499
0.965027231036796,2789.60197548498
0.951249663917055,2789.61197548499
0.93950703451468,2789.62197548498
0.929204725042806,2789.63197548499
0.919736340174269,2789.64197548498
0.910646905430865,2789.65197548499
0.901179720275207,2789.66197548499
0.890683668140209,2789.67197548499
0.878820256320249,2789.68197548499
0.866300194511586,2789.69197548499
0.852255248954232,2789.70197548499
0.837164023127381,2789.71197548499
0.821731295607306,2789.72197548499
0.806294315824105,2789.73197548499
0.791025446317179,2789.74197548499
0.775519908025492,2789.75197548498
0.76026440411439,2789.76197548499
0.745499344134317,2789.77197548498
0.730389809516395,2789.78197548499
0.714940211526501,2789.79197548498
0.699680826360085,2789.80197548499
0.684532019247297,2789.81197548498
0.669488931354497,2789.82197548499
0.654618051867099,2789.83197548498
0.640231647029904,2789.84197548499
0.625524105970601,2789.85197548498
0.611256077985435,2789.86197548499
0.596579301719803,2789.87197548498
0.581959868507888,2789.88197548499
0.567271498094923,2789.89197548498
0.55275193695612,2789.90197548499
0.539191099614291,2789.91197548499
0.525657021354338,2789.92197548499
0.512187267276444,2789.93197548499
0.498797782079573,2789.94197548499
0.484881956834108,2789.95197548499
0.470485742893602,2789.96197548499
0.455875424959078,2789.97197548499
0.441861247625908,2789.98197548499
0.42801791203324,2789.99197548499
0.414112070100167,2790.00197548498
0.400740703404736,2790.01197548499
0.387579582368849,2790.02197548498
0.374305504055962,2790.03197548499
0.361346020850057,2790.04197548498
0.34844976423947,2790.05197548499
0.334997250236034,2790.06197548498
0.321635374870037,2790.07197548499
0.307786089683138,2790.08197548498
0.294603063553995,2790.09197548499
0.281996171656243,2790.10197548498
0.269078968638045,2790.11197548499
0.255807426082504,2790.12197548498
0.242311007789345,2790.13197548499
0.230388563529077,2790.14197548498
0.22566550641879,2790.15197548499
0.235628513659579,2790.16197548499
0.267863447497819,2790.17197548499
0.325613353729479,2790.18197548499
0.405325354329885,2790.19197548499
0.498142536116517,2790.20197548499
0.59507583396019,2790.21197548499
0.689262741754876,2790.22197548499
0.777054723459448,2790.23197548499
0.856411532846639,2790.24197548499
0.927851453368431,2790.25197548498
0.991100679932552,2790.26197548499
1.04585128290312,2790.27197548498
1.09151658163495,2790.28197548499
1.12783449351201,2790.29197548498
1.15457314622764,2790.30197548499
1.17233917488537,2790.31197548498
1.1820217990968,2790.32197548499
1.18517563432056,2790.33197548498
1.18349017167715,2790.34197548499
1.17849322289309,2790.35197548498
1.17181388007332,2790.36197548499
1.16420714820318,2790.37197548498
1.15607474039038,2790.38197548499
1.14662501474582,2790.39197548498
1.1362099006223,2790.40197548499
1.12484950102463,2790.41197548499
1.11285696326418,2790.42197548499
1.09981541683266,2790.43197548499
1.08479588847912,2790.44197548499
1.06803376103721,2790.45197548499
1.04875817961976,2790.46197548499
1.02856252208545,2790.47197548499
1.00883688706577,2790.48197548499
0.990484819571123,2790.49197548499
0.976022378122203,2790.50197548498
0.966107363824719,2790.51197548499
0.961180041276526,2790.52197548498
0.961308827611742,2790.53197548499
0.965341528544648,2790.54197548498
0.972330001774334,2790.55197548499
0.981159205711025,2790.56197548498
0.989989711315805,2790.57197548499
0.998334182998983,2790.58197548498
1.00418879756608,2790.59197548499
1.00771950503812,2790.60197548498
1.00885573000624,2790.61197548499
1.00695035383172,2790.62197548498
1.00239045796154,2790.63197548499
0.994221655237082,2790.64197548498
0.983371064303725,2790.65197548499
0.970683217781315,2790.66197548499
0.957187330337961,2790.67197548499
0.942384168835399,2790.68197548499
0.926771564807961,2790.69197548499
0.910762326736945,2790.70197548499
0.894791204959047,2790.71197548499
0.878333445524108,2790.72197548499
0.861781433957262,2790.73197548499
0.844857084486487,2790.74197548499
0.827982547170331,2790.75197548498
0.810694516359241,2790.76197548499
0.793900176066439,2790.77197548498
0.776793363987958,2790.78197548499
0.759783026552533,2790.79197548498
0.74242296132788,2790.80197548499
0.724908628629765,2790.81197548498
0.707590912281533,2790.82197548499
0.689918436063838,2790.83197548498
0.671985445185254,2790.84197548499
0.654363911844105,2790.85197548498
0.63632303452396,2790.86197548499
0.617944806022478,2790.87197548498
0.600239591621322,2790.88197548499
0.581866315408221,2790.89197548498
0.564363738542491,2790.90197548499
0.546906037694408,2790.91197548499
0.529308403130993,2790.92197548499
0.511294669122505,2790.93197548499
0.493285733998155,2790.94197548499
0.47465133393898,2790.95197548499
0.455956825688229,2790.96197548499
0.436968664230755,2790.97197548499
0.418108751788433,2790.98197548499
0.400095725133778,2790.99197548499
0.381947286148037,2791.00197548498
0.363954009212709,2791.01197548499
0.345864022549389,2791.02197548498
0.32784477143872,2791.03197548499
0.309926661610444,2791.04197548498
0.291040034768535,2791.05197548499
0.272235429271452,2791.06197548498
0.253181758772784,2791.07197548499
0.234032578512161,2791.08197548498
0.215360666973224,2791.09197548499
0.197176479882727,2791.10197548498
0.179814568858613,2791.11197548499
0.16313360128448,2791.12197548498
0.146255268704463,2791.13197548499
0.129663334078045,2791.14197548498
0.112985168905638,2791.15197548499
0.0955707569831589,2791.16197548499
0.0777866664770376,2791.17197548499
0.0600426190932266,2791.18197548499
0.0422125501754168,2791.19197548499
0.0243861421548153,2791.20197548499
0.00689198542712437,2791.21197548499
-0.0103461305317256,2791.22197548499
-0.0271905633659851,2791.23197548499
-0.043943698069115,2791.24197548499
-0.0602788217492685,2791.25197548498
-0.0761137571649215,2791.26197548499
-0.091725292906532,2791.27197548498
-0.107194347452826,2791.28197548499
-0.122758563027667,2791.29197548498
-0.138218381259582,2791.30197548499
-0.15403285137385,2791.31197548498
-0.169846142600465,2791.32197548499
-0.184290735039926,2791.33197548498
-0.196383311816269,2791.34197548499
-0.201599234254944,2791.35197548498
-0.191673598815609,2791.36197548499
-0.15736059995843,2791.37197548498
-0.0914781627204515,2791.38197548499
0.00221973992699009,2791.39197548498
0.112145250081503,2791.40197548499
0.225978857632086,2791.41197548499
0.332625888036489,2791.42197548499
0.425953929882187,2791.43197548499
0.505565027351734,2791.44197548499
0.572385292946203,2791.45197548499
0.628455707779111,2791.46197548499
0.675328848677499,2791.47197548499
0.713194933448874,2791.48197548499
0.742316860034699,2791.49197548499
0.761986462438365,2791.50197548498
0.773246272419144,2791.51197548499
0.776708517332938,2791.52197548498
0.773697379102403,2791.53197548499
0.765625559676222,2791.54197548498
0.753997578894381,2791.55197548499
0.740660189182229,2791.56197548498
0.725463550425082,2791.57197548499
0.709753406181586,2791.58197548498
0.694163517878412,2791.59197548499
0.678412082704025,2791.60197548498
0.663517106852519,2791.61197548499
0.649016179145659,2791.62197548498
0.633993905554376,2791.63197548499
0.617561940990494,2791.64197548498
0.598855065661389,2791.65197548499
0.577177237888904,2791.66197548499
0.553212078986061,2791.67197548499
0.528497159885293,2791.68197548499
0.505017098812006,2791.69197548499
0.48404483764101,2791.70197548499
0.467953410148439,2791.71197548499
0.457151131843115,2791.72197548499
0.451671483263011,2791.73197548499
0.45134030834911,2791.74197548499
0.455440526263624,2791.75197548498
0.463413585973093,2791.76197548499
0.473635698300113,2791.77197548498
0.484041006314567,2791.78197548499
0.493348645821011,2791.79197548498
0.500362424128104,2791.80197548499
0.50365870048557,2791.81197548498
0.503666449004078,2791.82197548499
0.500070928302894,2791.83197548498
0.492925934974416,2791.84197548499
0.483115677641909,2791.85197548498
0.471362917731215,2791.86197548499
0.457768067941601,2791.87197548498
0.443451734136505,2791.88197548499
0.428395074053943,2791.89197548498
0.412670850412161,2791.90197548499
0.396416358003956,2791.91197548499
0.379784212279117,2791.92197548499
0.362670773574736,2791.93197548499
0.345712317955131,2791.94197548499
0.32789272347535,2791.95197548499
0.309993004015923,2791.96197548499
0.292266433495354,2791.97197548499
0.274513800187977,2791.98197548499
0.257331591467002,2791.99197548499
0.24034508047991,2792.00197548498
0.222750466963265,2792.01197548499
0.204591415841907,2792.02197548498
0.186033969023904,2792.03197548499
0.167426719841554,2792.04197548498
0.148930855534281,2792.05197548499
0.131116749377842,2792.06197548498
0.113462942216302,2792.07197548499
0.0959236634232394,2792.08197548498
0.0779244180663072,2792.09197548499
0.0598316909791659,2792.10197548498
0.0420650163502906,2792.11197548499
0.0242001541012571,2792.12197548498
0.00718071093357611,2792.13197548499
-0.00948894370481941,2792.14197548498
-0.0259818690214033,2792.15197548499
-0.0424737622203209,2792.16197548499
-0.0586632719623028,2792.17197548499
-0.0744964142204585,2792.18197548499
-0.0913574764119895,2792.19197548499
-0.108136016872534,2792.20197548499
-0.125679512004242,2792.21197548499
-0.143209060719046,2792.22197548499
-0.160752236502309,2792.23197548499
-0.177728454398105,2792.24197548499
-0.194138356616763,2792.25197548498
-0.209408189579333,2792.26197548499
-0.224155970882793,2792.27197548498
-0.23871734495001,2792.28197548499
-0.252915633552631,2792.29197548498
-0.267853508529626,2792.30197548499
-0.282869990283577,2792.31197548498
-0.297591350610484,2792.32197548499
-0.312568797876178,2792.33197548498
-0.327594958884407,2792.34197548499
-0.342382573049057,2792.35197548498
-0.357193521545405,2792.36197548499
-0.371878487019493,2792.37197548498
-0.385981041624855,2792.38197548499
-0.400193323585169,2792.39197548498
-0.414001684170213,2792.40197548499
-0.427446830089073,2792.41197548499
-0.440957186673989,2792.42197548499
-0.454184688662146,2792.43197548499
-0.467075195333375,2792.44197548499
-0.480273790106219,2792.45197548499
-0.492784619759177,2792.46197548499
-0.505258055808824,2792.47197548499
-0.517178771026843,2792.48197548499
-0.529278675452279,2792.49197548499
-0.541873026483733,2792.50197548498
-0.55419903020963,2792.51197548499
-0.563825993014609,2792.52197548498
-0.56608512794142,2792.53197548499
-0.551587211232809,2792.54197548498
-0.509268474098536,2792.55197548499
-0.431580889014968,2792.56197548498
-0.323307124115612,2792.57197548499
-0.198652439009027,2792.58197548498
-0.0743229183236919,2792.59197548499
0.0379866075301935,2792.60197548498
0.131662627000195,2792.61197548499
0.206637584258882,2792.62197548498
0.26607924969589,2792.63197548499
0.313046785442943,2792.64197548498
0.350443985145721,2792.65197548499
0.379599206077483,2792.66197548499
0.401211270412753,2792.67197548499
0.415523862661879,2792.68197548499
0.422732299586515,2792.69197548499
0.423549112088613,2792.70197548499
0.419331411812986,2792.71197548499
0.410766087227788,2792.72197548499
0.399141187332502,2792.73197548499
0.385319742186387,2792.74197548499
0.370176827030797,2792.75197548498
0.354927412197294,2792.76197548499
0.339686050958913,2792.77197548498
0.325074447366628,2792.78197548499
0.311398291392686,2792.79197548498
0.298071706219344,2792.80197548499
0.28440403793254,2792.81197548498
0.269568284782565,2792.82197548499
0.252989153274202,2792.83197548498
0.233927972306926,2792.84197548499
0.213096321400819,2792.85197548498
0.192576255333768,2792.86197548499
0.17325819603851,2792.87197548498
0.156864699764208,2792.88197548499
0.144183728726577,2792.89197548498
0.136334262082163,2792.90197548499
0.13343356772681,2792.91197548499
0.135819110613079,2792.92197548499
0.142893676519595,2792.93197548499
0.15366567485647,2792.94197548499
0.16624185475099,2792.95197548499
0.17899843561812,2792.96197548499
0.190796555953345,2792.97197548499
0.200047254383045,2792.98197548499
0.206447797392072,2792.99197548499
0.208892318353579,2793.00197548498
0.207102165256697,2793.01197548499
0.202342796635101,2793.02197548498
0.195129912515348,2793.03197548499
0.185468282457881,2793.04197548498
0.174782674184344,2793.05197548499
0.16287439571562,2793.06197548498
0.1501683763638,2793.07197548499
0.137287022943188,2793.08197548498
0.124076458678902,2793.09197548499
0.110659180837495,2793.10197548498
0.0973825686539916,2793.11197548499
0.0833484677142668,2793.12197548498
0.0688235329985375,2793.13197548499
0.0542535907249674,2793.14197548498
0.0395297564336986,2793.15197548499
0.0251404729151574,2793.16197548499
0.0107242973707545,2793.17197548499
-0.00268942096899859,2793.18197548499
-0.0160581953466042,2793.19197548499
-0.029374902255153,2793.20197548499
-0.0425661724266187,2793.21197548499
-0.0563461881364514,2793.22197548499
-0.0698171782981867,2793.23197548499
-0.083990111760585,2793.24197548499
-0.0987805725299129,2793.25197548498
-0.114292976396043,2793.26197548499
-0.129497557901726,2793.27197548498
-0.144397445971889,2793.28197548499
-0.159267147597696,2793.29197548498
-0.173475505857309,2793.30197548499
-0.187716486132654,2793.31197548498
-0.201504345686208,2793.32197548499
-0.215536081859261,2793.33197548498
-0.229665963054501,2793.34197548499
-0.243940727238353,2793.35197548498
-0.258214095602311,2793.36197548499
-0.273079567803199,2793.37197548498
-0.288494913263979,2793.38197548499
-0.303861667608771,2793.39197548498
-0.319153908993613,2793.40197548499
-0.334198735955561,2793.41197548499
-0.348491832683042,2793.42197548499
-0.362562886057441,2793.43197548499
-0.376074680621867,2793.44197548499
-0.389768780378401,2793.45197548499
-0.403089767551682,2793.46197548499
-0.416433636396626,2793.47197548499
-0.429915639818293,2793.48197548499
-0.442866211573911,2793.49197548499
-0.45577012152199,2793.50197548498
-0.46869123357665,2793.51197548499
-0.481348380227481,2793.52197548498
-0.494151475740837,2793.53197548499
-0.506642486206909,2793.54197548498
-0.519360718087801,2793.55197548499
-0.531691338901608,2793.56197548498
-0.543267515412073,2793.57197548499
-0.554781188230897,2793.58197548498
-0.565796943524317,2793.59197548499
-0.577054352879267,2793.60197548498
-0.587618310153471,2793.61197548499
-0.598609650588158,2793.62197548498
-0.609874358355803,2793.63197548499
-0.621534818402156,2793.64197548498
-0.633911648898467,2793.65197548499
-0.646454510269232,2793.66197548499
-0.658041020210007,2793.67197548499
-0.665559398415073,2793.68197548499
-0.663025515455316,2793.69197548499
-0.640217770580822,2793.70197548499
-0.58669032495121,2793.71197548499
-0.497987306352445,2793.72197548499
-0.383006400253914,2793.73197548499
-0.256310167930905,2793.74197548499
-0.13426296968435,2793.75197548498
-0.0267080107123854,2793.76197548499
0.0619530444510819,2793.77197548498
0.131615429002655,2793.78197548499
0.186513239576837,2793.79197548498
0.22989499584934,2793.80197548499
0.263354142337248,2793.81197548498
0.289341639369479,2793.82197548499
0.308157283867027,2793.83197548498
0.320170018283981,2793.84197548499
0.325571386967737,2793.85197548498
0.325439052712789,2793.86197548499
0.320813923349686,2793.87197548498
0.312450034557074,2793.88197548499
0.300843949736269,2793.89197548498
0.287673168028622,2793.90197548499
0.273499999978657,2793.91197548499
0.258800369335016,2793.92197548499
0.244773398219177,2793.93197548499
0.231211340440211,2793.94197548499
0.218439177009827,2793.95197548499
0.205844940346243,2793.96197548499
0.192285577599721,2793.97197548499
0.176724347759928,2793.98197548499
0.158579195398153,2793.99197548499
0.138421787069677,2794.00197548498
0.116469825416438,2794.01197548499
0.0949993874643211,2794.02197548498
0.0760211219561757,2794.03197548499
0.0611958286535127,2794.04197548498
0.0516915010058639,2794.05197548499
0.0473688358025693,2794.06197548498
0.0477221061155206,2794.07197548499
0.0533625099412031,2794.08197548498
0.0634643247853627,2794.09197548499
0.0769572902530914,2794.10197548498
0.0922272480489738,2794.11197548499
0.107586397943793,2794.12197548498
0.12147306273366,2794.13197548499
0.132326107412351,2794.14197548498
0.139608985522506,2794.15197548499
0.143279933772781,2794.16197548499
0.142801475315519,2794.17197548499
0.13888806458145,2794.18197548499
0.131866459082149,2794.19197548499
0.123161284625717,2794.20197548499
0.112947385188139,2794.21197548499
0.102200964293353,2794.22197548499
0.0904715647685005,2794.23197548499
0.0782664443254623,2794.24197548499
0.0661219119696779,2794.25197548498
0.0536782338972037,2794.26197548499
0.0412805320223067,2794.27197548498
0.0291148939164056,2794.28197548499
0.0170133189717554,2794.29197548498
0.00515971855721313,2794.30197548499
-0.00635049475499614,2794.31197548498
-0.0181655532763034,2794.32197548499
-0.0305096996069735,2794.33197548498
-0.0427412208470461,2794.34197548499
-0.0553518760175276,2794.35197548498
-0.0681887384052386,2794.36197548499
-0.0814553198251411,2794.37197548498
-0.0946165193666804,2794.38197548499
-0.107242184998019,2794.39197548498
-0.120031032296652,2794.40197548499
-0.132487135278861,2794.41197548499
-0.145294684716596,2794.42197548499
-0.15821817625981,2794.43197548499
-0.171220155574045,2794.44197548499
-0.184431823323189,2794.45197548499
-0.197894135264112,2794.46197548499
-0.211513856645015,2794.47197548499
-0.225469645421096,2794.48197548499
-0.239087839106156,2794.49197548499
-0.252593429069238,2794.50197548498
-0.265838844475647,2794.51197548499
-0.279152450725368,2794.52197548498
-0.292761628861031,2794.53197548499
-0.305887019954787,2794.54197548498
-0.318805349594795,2794.55197548499
-0.331550545059397,2794.56197548498
-0.344136647561358,2794.57197548499
-0.357015435750128,2794.58197548498
-0.370414036382141,2794.59197548499
-0.383894531797623,2794.60197548498
-0.39721097005231,2794.61197548499
-0.409895604519473,2794.62197548498
-0.422019276091499,2794.63197548499
-0.433835088621242,2794.64197548498
-0.44562629579345,2794.65197548499
-0.457482052138212,2794.66197548499
-0.469299661773016,2794.67197548499
-0.480959469427721,2794.68197548499
-0.492766807062889,2794.69197548499
-0.504689276161194,2794.70197548499
-0.517056144112235,2794.71197548499
-0.52927381091056,2794.72197548499
-0.541492935354374,2794.73197548499
-0.552993129171688,2794.74197548499
-0.563694271684934,2794.75197548498
-0.574080006026307,2794.76197548499
-0.58486088647433,2794.77197548498
-0.595817689298947,2794.78197548499
-0.606821825750644,2794.79197548498
-0.617979617129308,2794.80197548499
-0.628408157519433,2794.81197548498
-0.636521385620521,2794.82197548499
-0.637704821013616,2794.83197548498
-0.623606308154766,2794.84197548499
-0.582816957632134,2794.85197548498
-0.508619131744761,2794.86197548499
-0.404508479887613,2794.87197548498
-0.282756806416414,2794.88197548499
-0.159471706729287,2794.89197548498
-0.0461039999330931,2794.90197548499
0.0496774694358839,2794.91197548499
0.127696814921356,2794.92197548499
0.189679986525768,2794.93197548499
0.238185231210368,2794.94197548499
0.275069278405094,2794.95197548499
0.302939103355187,2794.96197548499
0.32369133724474,2794.97197548499
0.337543043231828,2794.98197548499
0.34484928404563,2794.99197548499
0.347000567145262,2795.00197548498
0.344181180456515,2795.01197548499
0.337087367328465,2795.02197548498
0.32657367047732,2795.03197548499
0.31399424047053,2795.04197548498
0.300558357772346,2795.05197548499
0.286684153617424,2795.06197548498
0.272974802848022,2795.07197548499
0.259817955923649,2795.08197548498
0.247115878796812,2795.09197548499
0.234309171588515,2795.10197548498
0.221068724360028,2795.11197548499
0.206248074409098,2795.12197548498
0.189549941079008,2795.13197548499
0.170652383567194,2795.14197548498
0.150299957628037,2795.15197548499
0.129546792543907,2795.16197548499
0.109939252635015,2795.17197548499
0.0932290257413982,2795.18197548499
0.0804369156483719,2795.19197548499
0.0725753893625879,2795.20197548499
0.0691504601316291,2795.21197548499
0.0703899152518345,2795.22197548499
0.0760791706728497,2795.23197548499
0.0849366603658827,2795.24197548499
0.0966632974775292,2795.25197548498
0.109103735172166,2795.26197548499
0.120729603555147,2795.27197548498
0.129856098188433,2795.28197548499
0.13556479545225,2795.29197548498
0.137723032513489,2795.30197548499
0.136641206469472,2795.31197548498
0.132602873357077,2795.32197548499
0.126145925638868,2795.33197548498
0.117718455184614,2795.34197548499
0.107544520585248,2795.35197548498
0.0964311997774889,2795.36197548499
0.0841143803118906,2795.37197548498
0.0712925895611253,2795.38197548499
0.0580951686510742,2795.39197548498
0.0444794621710744,2795.40197548499
0.031239793531728,2795.41197548499
0.0180332918987387,2795.42197548499
0.00451438491894758,2795.43197548499
-0.0088620028652011,2795.44197548499
-0.0227112409734577,2795.45197548499
-0.0367696321843832,2795.46197548499
-0.050032989349286,2795.47197548499
-0.0636995495373778,2795.48197548499
-0.0770674494602162,2795.49197548499
-0.090908511595253,2795.50197548498
-0.105324727217489,2795.51197548499
-0.119438435731,2795.52197548498
-0.133733595448287,2795.53197548499
-0.147745286016541,2795.54197548498
-0.161650822943096,2795.55197548499
-0.175834578992294,2795.56197548498
-0.189690403568393,2795.57197548499
-0.204024958942537,2795.58197548498
-0.218306696212774,2795.59197548499
-0.232925628404625,2795.60197548498
-0.247753736104273,2795.61197548499
-0.262065815589843,2795.62197548498
-0.27594224789398,2795.63197548499
-0.290185872551802,2795.64197548498
-0.304256471688637,2795.65197548499
-0.318016720915231,2795.66197548499
-0.331652296965623,2795.67197548499
-0.345085831167607,2795.68197548499
-0.358180936268003,2795.69197548499
-0.370878958781453,2795.70197548499
-0.383875544669181,2795.71197548499
-0.396490840221257,2795.72197548499
-0.409294855044202,2795.73197548499
-0.422033554423457,2795.74197548499
-0.434932680529345,2795.75197548498
-0.447514611286924,2795.76197548499
-0.460293628550979,2795.77197548498
-0.473078516100056,2795.78197548499
-0.486231350764868,2795.79197548498
-0.49890752176398,2795.80197548499
-0.511155782959019,2795.81197548498
-0.523895618030263,2795.82197548499
-0.536604106019659,2795.83197548498
-0.549751100931472,2795.84197548499
-0.562426005986613,2795.85197548498
-0.574957885565851,2795.86197548499
-0.587440374173156,2795.87197548498
-0.598759788100996,2795.88197548499
-0.607472644902629,2795.89197548498
-0.608301070844723,2795.90197548499
-0.593674117676267,2795.91197548499
-0.552673204297178,2795.92197548499
-0.478481882328702,2795.93197548499
-0.375515631223909,2795.94197548499
-0.256249260468741,2795.95197548499
-0.137325889700989,2795.96197548499
-0.0305926055912077,2795.97197548499
0.0573139711773212,2795.98197548499
0.125504097453555,2795.99197548499
0.176191501725198,2796.00197548498
0.213187673560163,2796.01197548499
0.240352112059241,2796.02197548498
0.258877699348238,2796.03197548499
0.270702868026461,2796.04197548498
0.276166351997246,2796.05197548499
0.276009050228721,2796.06197548498
0.270448703566468,2796.07197548499
0.259721111076877,2796.08197548498
0.246017597324793,2796.09197548499
0.22929057556048,2796.10197548498
0.212225426561352,2796.11197548499
0.194350732883587,2796.12197548498
0.176355394589973,2796.13197548499
0.158173709383188,2796.14197548498
0.139870179889337,2796.15197548499
0.121663630386674,2796.16197548499
0.103412364684438,2796.17197548499
0.0850540194727736,2796.18197548499
0.0647531725410026,2796.19197548499
0.0431337967014519,2796.20197548499
0.020189119962167,2796.21197548499
-0.00306852561997548,2796.22197548499
-0.0248314642463333,2796.23197548499
-0.0438194300650061,2796.24197548499
-0.0582932740582725,2796.25197548498
-0.0678442279902957,2796.26197548499
-0.0715708063509167,2796.27197548498
-0.0701009591818588,2796.28197548499
-0.0638082793713313,2796.29197548498
-0.0530839536955932,2796.30197548499
-0.0394992303585166,2796.31197548498
-0.0248180566313423,2796.32197548499
-0.0103329696068071,2796.33197548498
0.00157689377101472,2796.34197548499
0.00997117360656807,2796.35197548498
0.0139362442875579,2796.36197548499
0.0142328143782759,2796.37197548498
0.0108084570735412,2796.38197548499
0.00449985247867873,2796.39197548498
-0.00381849418150047,2796.40197548499
-0.0137795926696721,2796.41197548499
-0.0252852199680175,2796.42197548499
-0.0383372167001157,2796.43197548499
-0.0522424674761091,2796.44197548499
-0.0668806321766074,2796.45197548499
-0.0816787460371653,2796.46197548499
-0.095920493729848,2796.47197548499
-0.109757235011619,2796.48197548499
-0.123192781770036,2796.49197548499
-0.136152965354969,2796.50197548498
-0.148676722771543,2796.51197548499
-0.162104656848702,2796.52197548498
-0.17579567774004,2796.53197548499
-0.189554105696222,2796.54197548498
-0.204166507368678,2796.55197548499
-0.218975257382675,2796.56197548498
-0.233871182083803,2796.57197548499
-0.249051981899112,2796.58197548498
-0.264099763014043,2796.59197548499
-0.278859205786557,2796.60197548498
-0.293464162254922,2796.61197548499
-0.307714758369199,2796.62197548498
-0.321399058571998,2796.63197548499
-0.335050470144546,2796.64197548498
-0.348418327314682,2796.65197548499
-0.361750727540126,2796.66197548499
-0.374413098633576,2796.67197548499
-0.386850061489913,2796.68197548499
-0.399010285220151,2796.69197548499
-0.410472124171997,2796.70197548499
-0.422539537413303,2796.71197548499
-0.434921539510353,2796.72197548499
-0.447972551961526,2796.73197548499
-0.461048388221178,2796.74197548499
-0.473851375385828,2796.75197548498
-0.486337761680818,2796.76197548499
-0.49869622633341,2796.77197548498
-0.511045778664491,2796.78197548499
-0.524069648264749,2796.79197548498
-0.537274116489259,2796.80197548499
-0.550688281810925,2796.81197548498
-0.563787575791373,2796.82197548499
-0.576404794672059,2796.83197548498
-0.588541851869236,2796.84197548499
-0.598713278270097,2796.85197548498
-0.603748010295896,2796.86197548499
-0.597917072758233,2796.87197548498
-0.571467498459027,2796.88197548499
-0.515572787829385,2796.89197548498
-0.428705665789129,2796.90197548499
-0.318582621930003,2796.91197548499
-0.20039963235163,2796.92197548499
-0.0886148426267479,2796.93197548499
0.00598350490721905,2796.94197548499
0.0801366250952412,2796.95197548499
0.134359403393723,2796.96197548499
0.172962898377398,2796.97197548499
0.199020961775216,2796.98197548499
0.21579491801799,2796.99197548499
0.225281554057273,2797.00197548498
0.227943740782494,2797.01197548499
0.225759379648606,2797.02197548498
0.218070865912539,2797.03197548499
0.206235241407875,2797.04197548498
0.190878876340129,2797.05197548499
0.173084474511047,2797.06197548498
0.154043619560819,2797.07197548499
0.134581232855197,2797.08197548498
0.114893545999059,2797.09197548499
0.0959151498337476,2797.10197548498
0.076911991832663,2797.11197548499
0.0576270267915299,2797.12197548498
0.037671471492741,2797.13197548499
0.0165944592679216,2797.14197548498
-0.00582174676136309,2797.15197548499
-0.0289215676169768,2797.16197548499
-0.0525018537864024,2797.17197548499
-0.0749885638412251,2797.18197548499
-0.0957096390321685,2797.19197548499
-0.113027599891126,2797.20197548499
-0.125941449218403,2797.21197548499
-0.134180350081234,2797.22197548499
-0.13634463825843,2797.23197548499
-0.133252997521959,2797.24197548499
-0.123950290507488,2797.25197548498
-0.110199563314241,2797.26197548499
-0.0936720197155551,2797.27197548498
-0.0761457498667172,2797.28197548499
-0.0600806065240813,2797.29197548498
-0.0464835694328018,2797.30197548499
-0.0371339037864254,2797.31197548498
-0.0324420454966846,2797.32197548499
-0.0318932155394422,2797.33197548498
-0.0353615787806271,2797.34197548499
-0.0422603262560174,2797.35197548498
-0.0517663403102255,2797.36197548499
-0.0628990296558024,2797.37197548498
-0.0750717112677467,2797.38197548499
-0.0880619795802532,2797.39197548498
-0.101444115853479,2797.40197548499
-0.11481017339415,2797.41197548499
-0.128118986762833,2797.42197548499
-0.141656242883542,2797.43197548499
-0.154841786709941,2797.44197548499
-0.168687285532494,2797.45197548499
-0.18245825500909,2797.46197548499
-0.195970922084054,2797.47197548499
-0.210339406916545,2797.48197548499
-0.224315791149178,2797.49197548499
-0.237939916666986,2797.50197548498
-0.251147067846634,2797.51197548499
-0.263692229188832,2797.52197548498
-0.276051258961884,2797.53197548499
-0.287888272195818,2797.54197548498
-0.299712961803831,2797.55197548499
-0.311391394652096,2797.56197548498
-0.323353441395979,2797.57197548499
-0.335359177223417,2797.58197548498
-0.347284154880242,2797.59197548499
-0.358764937476314,2797.60197548498
-0.370302336016758,2797.61197548499
-0.382199146887751,2797.62197548498
-0.394621070516839,2797.63197548499
-0.407699304932226,2797.64197548498
-0.421105503219188,2797.65197548499
-0.434140193756605,2797.66197548499
-0.445770099494213,2797.67197548499
-0.453464075979473,2797.68197548499
-0.451899893328521,2797.69197548499
-0.432519854986451,2797.70197548499
-0.38741070636755,2797.71197548499
-0.313170343869501,2797.72197548499
-0.215531398840893,2797.73197548499
-0.107229731584742,2797.74197548499
-0.00108093547311345,2797.75197548498
0.0923441605230634,2797.76197548499
0.168962037852692,2797.77197548498
0.228780569585755,2797.78197548499
0.273694922113465,2797.79197548498
0.306767017409503,2797.80197548499
0.33058670616785,2797.81197548498
0.346632747049526,2797.82197548499
0.356047382712668,2797.83197548498
0.359552223286423,2797.84197548499
0.358179296441867,2797.85197548498
0.35168231020861,2797.86197548499
0.341708465835007,2797.87197548498
0.329481996166755,2797.88197548499
0.315734543736884,2797.89197548498
0.300901468101402,2797.90197548499
0.286024865554322,2797.91197548499
0.270847185576128,2797.92197548499
0.256075316235661,2797.93197548499
0.241195656234987,2797.94197548499
0.225109147878026,2797.95197548499
0.208123252199893,2797.96197548499
0.189629157239952,2797.97197548499
0.169411513244077,2797.98197548499
0.148338729870059,2797.99197548499
0.127541854345337,2798.00197548498
0.109053939997038,2798.01197548499
0.0941451347257181,2798.02197548498
0.084149215096527,2798.03197548499
0.0800484951326348,2798.04197548498
0.0818057789047255,2798.05197548499
0.0890423831473974,2798.06197548498
0.100561073716617,2798.07197548499
0.11553239109484,2798.08197548498
0.132478569204528,2798.09197548499
0.14901100670643,2798.10197548498
0.164098471720752,2798.11197548499
0.175468140101417,2798.12197548498
0.18228461360643,2798.13197548499
0.184764307518457,2798.14197548498
0.182722486677454,2798.15197548499
0.177306126728278,2798.16197548499
0.168463917476013,2798.17197548499
0.157233768900502,2798.18197548499
0.144437647702204,2798.19197548499
0.131031839993664,2798.20197548499
0.117558890907268,2798.21197548499
0.103735367202337,2798.22197548499
0.0900183527392028,2798.23197548499
0.0765073513531413,2798.24197548499
0.0628235307553273,2798.25197548498
0.0491295072956499,2798.26197548499
0.035714016049242,2798.27197548498
0.0224683082340502,2798.28197548499
0.00913740060315273,2798.29197548498
-0.0038070313503562,2798.30197548499
-0.0166883896904545,2798.31197548498
-0.0298816998470139,2798.32197548499
-0.043453533779122,2798.33197548498
-0.0572101841685034,2798.34197548499
-0.0706709501551964,2798.35197548498
-0.0838280429225611,2798.36197548499
-0.0965827438861239,2798.37197548498
-0.108398592238177,2798.38197548499
-0.120345154850285,2798.39197548498
-0.132110838308445,2798.40197548499
-0.144286293680598,2798.41197548499
-0.15598787245367,2798.42197548499
-0.168115012554164,2798.43197548499
-0.180293903297077,2798.44197548499
-0.192315596876556,2798.45197548499
-0.204273734570146,2798.46197548499
-0.215243284367943,2798.47197548499
-0.22281952822663,2798.48197548499
-0.222337127611756,2798.49197548499
-0.206173622400596,2798.50197548498
-0.1649708403098,2798.51197548499
-0.0959493936759533,2798.52197548498
-0.00309413856043398,2798.53197548499
0.102117528609631,2798.54197548498
0.207562810631481,2798.55197548499
0.304422801990699,2798.56197548498
0.386839070107712,2798.57197548499
0.453895465437441,2798.58197548498
0.507435823624044,2798.59197548499
0.549809841434309,2798.60197548498
0.583214916391079,2798.61197548499
0.608650807553748,2798.62197548498
0.62679406196865,2798.63197548499
0.638026619685029,2798.64197548498
0.64344327287513,2798.65197548499
0.64430635130122,2798.66197548499
0.64105545065406,2798.67197548499
0.63484230465452,2798.68197548499
0.626658257422257,2798.69197548499
0.617695111373575,2798.70197548499
0.608656453161162,2798.71197548499
0.600196746985445,2798.72197548499
0.592139894571656,2798.73197548499
0.584351645528257,2798.74197548499
0.576207684072169,2798.75197548498
0.566400387574394,2798.76197548499
0.554994459263311,2798.77197548498
0.540735917172531,2798.78197548499
0.524115558143826,2798.79197548498
0.506216542688902,2798.80197548499
0.488311086239507,2798.81197548498
0.472301081839561,2798.82197548499
0.459090223449567,2798.83197548498
0.45006067569862,2798.84197548499
0.445175202151724,2798.85197548498
0.444695751030686,2798.86197548499
0.448252599480454,2798.87197548498
0.455267546048792,2798.88197548499
0.464729647580437,2798.89197548498
0.475506964815335,2798.90197548499
0.486288565593432,2798.91197548499
0.495676397727728,2798.92197548499
0.502667467991948,2798.93197548499
0.507088063388757,2798.94197548499
0.507992758970052,2798.95197548499
0.504917421477471,2798.96197548499
0.497853313025458,2798.97197548499
0.487681925154382,2798.98197548499
0.475043984969821,2798.99197548499
0.460338898296483,2799.00197548498
0.445032230578424,2799.01197548499
0.429551138314934,2799.02197548498
0.414756104386323,2799.03197548499
0.400758600675545,2799.04197548498
0.386807969201657,2799.05197548499
0.373195594106287,2799.06197548498
0.35899895161801,2799.07197548499
0.344555460470358,2799.08197548498
0.329390336754629,2799.09197548499
0.314003292674682,2799.10197548498
0.298051645977046,2799.11197548499
0.282411261217222,2799.12197548498
0.267153197305719,2799.13197548499
0.252519637506419,2799.14197548498
0.237383849570523,2799.15197548499
0.221764738367956,2799.16197548499
0.206230190034305,2799.17197548499
0.190807822850264,2799.18197548499
0.174863550160427,2799.19197548499
0.159469192011346,2799.20197548499
0.144403319921615,2799.21197548499
0.130049267452046,2799.22197548499
0.115695929217379,2799.23197548499
0.100928393912645,2799.24197548499
0.0859912521326947,2799.25197548498
0.0708210136817112,2799.26197548499
0.0560912836626722,2799.27197548498
0.0415102619275816,2799.28197548499
0.0276469678798275,2799.29197548498
0.0147816780516394,2799.30197548499
0.00178306074903499,2799.31197548498
-0.0106214751420961,2799.32197548499
-0.0230275737830006,2799.33197548498
-0.0352094967846101,2799.34197548499
-0.0477593042649488,2799.35197548498
-0.0603889445756798,2799.36197548499
-0.0736423670313673,2799.37197548498
-0.0873230269954501,2799.38197548499
-0.101903660379519,2799.39197548498
-0.1161923811273,2799.40197548499
-0.130814412792229,2799.41197548499
-0.142776290928967,2799.42197548499
-0.147505827183411,2799.43197548499
-0.136524079815679,2799.44197548499
-0.0995382578351129,2799.45197548499
-0.0313303768039905,2799.46197548499
0.0645325134950298,2799.47197548499
0.175984461717579,2799.48197548499
0.290776577059815,2799.49197548499
0.398614695173419,2799.50197548498
0.492796810246417,2799.51197548499
0.570644104442502,2799.52197548498
0.634563757309848,2799.53197548499
0.685700332326879,2799.54197548498
0.726310653787647,2799.55197548499
0.758404195737237,2799.56197548498
0.782300539482009,2799.57197548499
0.798421614313993,2799.58197548498
0.807595462355655,2799.59197548499
0.811189249872678,2799.60197548498
0.810322813829795,2799.61197548499
0.80650748930527,2799.62197548498
0.800436047145896,2799.63197548499
0.793001650118117,2799.64197548498
0.78547441373356,2799.65197548499
0.777505772274008,2799.66197548499
0.769682404852835,2799.67197548499
0.762472151921087,2799.68197548499
0.755656008461417,2799.69197548499
0.748643572677934,2799.70197548499
0.740083628917187,2799.71197548499
0.729515699771818,2799.72197548499
0.716601606573075,2799.73197548499
0.70141046077272,2799.74197548499
0.685065952255374,2799.75197548498
0.668845023193539,2799.76197548499
0.654318803192226,2799.77197548498
0.642645303233919,2799.78197548499
0.63431843587414,2799.79197548498
0.63011270251696,2799.80197548499
0.629668375484952,2799.81197548498
0.633488384507457,2799.82197548499
0.640360378163963,2799.83197548498
0.649179709709077,2799.84197548499
0.658572311727197,2799.85197548498
0.666763778431562,2799.86197548499
0.672537560553863,2799.87197548498
0.675369907716629,2799.88197548499
0.675161003694703,2799.89197548498
0.671903809898618,2799.90197548499
0.666183953919493,2799.91197548499
0.658235043603007,2799.92197548499
0.648245126460642,2799.93197548499
0.636269874402958,2799.94197548499
0.623061204722178,2799.95197548499
0.608651286009377,2799.96197548499
0.593410927308197,2799.97197548499
0.577721139356771,2799.98197548499
0.562197822495934,2799.99197548499
0.546245940512298,2800.00197548498
0.53050125503713,2800.01197548499
0.513901988853366,2800.02197548498
0.497735248064476,2800.03197548499
0.480726189571466,2800.04197548498
0.4640635452582,2800.05197548499
0.447581858790895,2800.06197548498
0.431327163221954,2800.07197548499
0.415168003312047,2800.08197548498
0.39894222133922,2800.09197548499
0.382410397700617,2800.10197548498
0.366329336010958,2800.11197548499
0.350742603787408,2800.12197548498
0.335265835853185,2800.13197548499
0.320332888254998,2800.14197548498
0.305054120022843,2800.15197548499
0.289683678533025,2800.16197548499
0.274216537159382,2800.17197548499
0.258890033707144,2800.18197548499
0.243225232881474,2800.19197548499
0.227487818712448,2800.20197548499
0.21198710971868,2800.21197548499
0.196298892776425,2800.22197548499
0.180765756939539,2800.23197548499
0.165478795299247,2800.24197548499
0.150083685864946,2800.25197548498
0.13447848500517,2800.26197548499
0.118933881811784,2800.27197548498
0.103574586630334,2800.28197548499
0.0891705131620786,2800.29197548498
0.0746130559670671,2800.30197548499
0.0603527938837679,2800.31197548498
0.0460766331150963,2800.32197548499
0.0317883006568897,2800.33197548498
0.0173131913450875,2800.34197548499
0.00275260823689094,2800.35197548498
-0.0115841322107422,2800.36197548499
-0.0256943587811969,2800.37197548498
-0.039342445956505,2800.38197548499
-0.0527047022790242,2800.39197548498
-0.0656512258527824,2800.40197548499
-0.0773748319711396,2800.41197548499
-0.0838045720939559,2800.42197548499
-0.0767164299490688,2800.43197548499
-0.0474302644190836,2800.44197548499
0.0115963181067945,2800.45197548499
0.0985514818393694,2800.46197548499
0.204477338599715,2800.47197548499
0.317796985983317,2800.48197548499
0.42679022688906,2800.49197548499
0.525129304785759,2800.50197548498
0.610381862923734,2800.51197548499
0.681740527284661,2800.52197548498
0.74111188331662,2800.53197548499
0.789841739234692,2800.54197548498
0.828147611514596,2800.55197548499
0.85712613884457,2800.56197548498
0.877577593892323,2800.57197548499
0.890307464959361,2800.58197548498
0.896601940825896,2800.59197548499
0.897539295374747,2800.60197548498
0.8953837987,2800.61197548499
0.890662743159321,2800.62197548498
0.884431865139771,2800.63197548499
0.877559007615654,2800.64197548498
0.870424988114115,2800.65197548499
0.863669421982127,2800.66197548499
0.857266987869887,2800.67197548499
0.850664289942045,2800.68197548499
0.843113197884579,2800.69197548499
0.833170427134397,2800.70197548499
0.820209951384263,2800.71197548499
0.805185521782898,2800.72197548499
0.787658865354001,2800.73197548499
0.769248290069923,2800.74197548499
0.751386407359639,2800.75197548498
0.735534818914335,2800.76197548499
0.722528505056945,2800.77197548498
0.713234935996418,2800.78197548499
0.70787682633962,2800.79197548498
0.705862228967634,2800.80197548499
0.707532648025134,2800.81197548498
0.712511781508102,2800.82197548499
0.720149640588893,2800.83197548498
0.729246417212915,2800.84197548499
0.738159539319877,2800.85197548498
0.745913498416257,2800.86197548499
0.751652351635979,2800.87197548498
0.754018485613499,2800.88197548499
0.752610774065437,2800.89197548498
0.747622929748809,2800.90197548499
0.739596477313796,2800.91197548499
0.728756448003552,2800.92197548499
0.715754988204405,2800.93197548499
0.701098798416194,2800.94197548499
0.685556153594993,2800.95197548499
0.66968092207745,2800.96197548499
0.65363091832815,2800.97197548499
0.63740434722635,2800.98197548499
0.6213458660499,2800.99197548499
0.605082920812077,2801.00197548498
0.588702070623248,2801.01197548499
0.572062043077446,2801.02197548498
0.555235741247499,2801.03197548499
0.537954450801077,2801.04197548498
0.520741650018669,2801.05197548499
0.503730355514324,2801.06197548498
0.486308284480335,2801.07197548499
0.469225913986701,2801.08197548498
0.452334539388603,2801.09197548499
0.435933745555564,2801.10197548498
0.419120070017891,2801.11197548499
0.403030615726006,2801.12197548498
0.386558954033166,2801.13197548499
0.370158406309656,2801.14197548498
0.353773678885554,2801.15197548499
0.337350088719253,2801.16197548499
0.320551692844246,2801.17197548499
0.303760266767305,2801.18197548499
0.28710806826369,2801.19197548499
0.270587027000906,2801.20197548499
0.253411041685255,2801.21197548499
0.236701908167852,2801.22197548499
0.220255002890586,2801.23197548499
0.203946563577343,2801.24197548499
0.18762721892633,2801.25197548498
0.171245616577159,2801.26197548499
0.154813444791981,2801.27197548498
0.138615862104639,2801.28197548499
0.122722335918866,2801.29197548498
0.107194428480364,2801.30197548499
0.0920791348699844,2801.31197548498
0.0774620052955684,2801.32197548499
0.0623409827613348,2801.33197548498
0.0469265349135492,2801.34197548499
0.0311423162860892,2801.35197548498
0.0154193320586532,2801.36197548499
0.00017016126762095,2801.37197548498
-0.0149836517788001,2801.38197548499
-0.0298705541653982,2801.39197548498
-0.0430346844167846,2801.40197548499
-0.0524139491941545,2801.41197548499
-0.0523702147101884,2801.42197548499
-0.0333585013637499,2801.43197548499
0.012323012932235,2801.44197548499
0.086658557961977,2801.45197548499
0.184047727538855,2801.46197548499
0.293284356606155,2801.47197548499
0.403228230978193,2801.48197548499
0.506290131114082,2801.49197548499
0.597795347361241,2801.50197548498
0.676884748684065,2801.51197548499
0.743812383895097,2801.52197548498
0.799152073480659,2801.53197548499
0.84434889554663,2801.54197548498
0.880083407281253,2801.55197548499
0.906582691646756,2801.56197548498
0.924075142110004,2801.57197548499
0.933480340745254,2801.58197548498
0.936958884538373,2801.59197548499
0.935359196581935,2801.60197548498
0.930538956464024,2801.61197548499
0.923621905073616,2801.62197548498
0.915127771979449,2801.63197548499
0.905752196193691,2801.64197548498
0.896260683789026,2801.65197548499
0.8866358059827,2801.66197548499
0.876779424287051,2801.67197548499
0.866522117674946,2801.68197548499
0.853974957351077,2801.69197548499
0.839220918151615,2801.70197548499
0.821399174039764,2801.71197548499
0.800900657532846,2801.72197548499
0.779427750951757,2801.73197548499
0.758198201863566,2801.74197548499
0.739333955500554,2801.75197548498
0.723294589115752,2801.76197548499
0.71167909130993,2801.77197548498
0.704131882723749,2801.78197548499
0.700678825475206,2801.79197548498
0.702000581622669,2801.80197548499
0.706912353306462,2801.81197548498
0.714265275105953,2801.82197548499
0.722503144589613,2801.83197548498
0.730834297744365,2801.84197548499
0.737707012470414,2801.85197548498
0.742209588310297,2801.86197548499
0.743701042888416,2801.87197548498
0.741941049385566,2801.88197548499
0.736939369202373,2801.89197548498
0.729182403155384,2801.90197548499
0.71876256658346,2801.91197548499
0.706165627669057,2801.92197548499
0.691438136751674,2801.93197548499
0.675530682270245,2801.94197548499
0.658702424361262,2801.95197548499
0.641357735163703,2801.96197548499
0.624118443689756,2801.97197548499
0.606854707442771,2801.98197548499
0.589560070213198,2801.99197548499
0.571825971144831,2802.00197548498
0.554083665507969,2802.01197548499
0.535997010516333,2802.02197548498
0.517770940356878,2802.03197548499
0.499864178571231,2802.04197548498
0.481793086502874,2802.05197548499
0.464142899501463,2802.06197548498
0.446938476380421,2802.07197548499
0.430034690028894,2802.08197548498
0.4127740589657,2802.09197548499
0.395562829221197,2802.10197548498
0.378094697384482,2802.11197548499
0.360682824282288,2802.12197548498
0.343157762196576,2802.13197548499
0.325315744916547,2802.14197548498
0.307095138026674,2802.15197548499
0.289124989666684,2802.16197548499
0.271847648929021,2802.17197548499
0.255110941484161,2802.18197548499
0.238797521919983,2802.19197548499
0.222815592768741,2802.20197548499
0.20650759811851,2802.21197548499
0.189521595922888,2802.22197548499
0.172286348363234,2802.23197548499
0.154625876373387,2802.24197548499
0.137345334185781,2802.25197548498
0.120260553380213,2802.26197548499
0.10341066826394,2802.27197548498
0.0871725356533501,2802.28197548499
0.0709684087800831,2802.29197548498
0.0544312462200731,2802.30197548499
0.0382433633049281,2802.31197548498
0.0217422504457818,2802.32197548499
0.00489492937315028,2802.33197548498
-0.0114851444568812,2802.34197548499
-0.0288505463203922,2802.35197548498
-0.0455291227967033,2802.36197548499
-0.0619411339455362,2802.37197548498
-0.0779954300800054,2802.38197548499
-0.0932735014570729,2802.39197548498
-0.107858094238851,2802.40197548499
-0.122427777431686,2802.41197548499
-0.137455608189753,2802.42197548499
-0.151781549473999,2802.43197548499
-0.16602757169495,2802.44197548499
-0.179804831111319,2802.45197548499
-0.19314690202892,2802.46197548499
-0.206732770149955,2802.47197548499
-0.220124324189585,2802.48197548499
-0.233559465634516,2802.49197548499
-0.247531224328954,2802.50197548498
-0.261401371140012,2802.51197548499
-0.275287783696267,2802.52197548498
-0.2897320693472,2802.53197548499
-0.304199038223328,2802.54197548498
-0.318330512743999,2802.55197548499
-0.332670860963611,2802.56197548498
-0.346959650660686,2802.57197548499
-0.361008108702208,2802.58197548498
-0.374946360802368,2802.59197548499
-0.388857621318933,2802.60197548498
-0.402096377495681,2802.61197548499
-0.4152336139445,2802.62197548498
-0.427957396519514,2802.63197548499
-0.440571593060384,2802.64197548498
-0.452932836968045,2802.65197548499
-0.464984480697591,2802.66197548499
-0.477448949125913,2802.67197548499
-0.49037744172414,2802.68197548499
-0.503550789035423,2802.69197548499
-0.516506812112636,2802.70197548499
-0.530067252793109,2802.71197548499
-0.543410221097333,2802.72197548499
-0.553910554806418,2802.73197548499
-0.556149940889449,2802.74197548499
-0.539946976259051,2802.75197548498
-0.49381534938516,2802.76197548499
-0.412139528990239,2802.77197548498
-0.301065106057582,2802.78197548499
-0.17488054681406,2802.79197548498
-0.0479922617041256,2802.80197548499
0.0670081210395508,2802.81197548498
0.165466963236585,2802.82197548499
0.246801233081653,2802.83197548498
0.31268180185904,2802.84197548499
0.36564629314788,2802.85197548498
0.408251290353426,2802.86197548499
0.441800215348155,2802.87197548498
0.467284126645797,2802.88197548499
0.484898728711962,2802.89197548498
0.495112990931512,2802.90197548499
0.49842460734309,2802.91197548499
0.495784787043237,2802.92197548499
0.48902248831121,2802.93197548499
0.479735484498504,2802.94197548499
0.469216243416171,2802.95197548499
0.45830517372753,2802.96197548499
0.447207024834082,2802.97197548499
0.437359824862059,2802.98197548499
0.427624065838115,2802.99197548499
0.417763784697678,2803.00197548498
0.407388649409725,2803.01197548499
0.395849374576634,2803.02197548498
0.381641576041582,2803.03197548499
0.365420876721039,2803.04197548498
0.347158183970278,2803.05197548499
0.328168544843295,2803.06197548498
0.310653233277431,2803.07197548499
0.295725494134872,2803.08197548498
0.284981134184004,2803.09197548499
0.279279219762273,2803.10197548498
0.278781019328734,2803.11197548499
0.282811336809102,2803.12197548498
0.291737836814632,2803.13197548499
0.303768436801158,2803.14197548498
0.317686928877328,2803.15197548499
0.331514577734376,2803.16197548499
0.343364540556567,2803.17197548499
0.352407996748866,2803.18197548499
0.357788971980074,2803.19197548499
0.360138312166002,2803.20197548499
0.359405216295496,2803.21197548499
0.356072989914898,2803.22197548499
0.350152664113733,2803.23197548499
0.342113854997919,2803.24197548499
0.331733476017774,2803.25197548498
0.319572975453809,2803.26197548499
0.307266954551685,2803.27197548498
0.294194524508874,2803.28197548499
0.280994165145241,2803.29197548498
0.267304217865856,2803.30197548499
0.253483361387767,2803.31197548498
0.239185882700447,2803.32197548499
0.225128727511702,2803.33197548498
0.21106408601427,2803.34197548499
0.196730841530465,2803.35197548498
0.182479358584984,2803.36197548499
0.168379654818352,2803.37197548498
0.154965006369818,2803.38197548499
0.14118597134153,2803.39197548498
0.126794747673652,2803.40197548499
0.112823514842554,2803.41197548499
0.0980749609986486,2803.42197548499
0.0832674965132843,2803.43197548499
0.068723367904254,2803.44197548499
0.054265550658979,2803.45197548499
0.0398188799312423,2803.46197548499
0.0252635704122112,2803.47197548499
0.0107068637726748,2803.48197548499
-0.00400902608264504,2803.49197548499
-0.0188013424606664,2803.50197548498
-0.033827053724592,2803.51197548499
-0.0487743554168504,2803.52197548498
-0.0639464109975538,2803.53197548499
-0.0796664665199279,2803.54197548498
-0.095133441184613,2803.55197548499
-0.109999999064994,2803.56197548498
-0.124847282483566,2803.57197548499
-0.139402409265071,2803.58197548498
-0.153651612038352,2803.59197548499
-0.167991368441972,2803.60197548498
-0.181934353533431,2803.61197548499
-0.195775119490869,2803.62197548498
-0.209572837946652,2803.63197548499
-0.22320655883849,2803.64197548498
-0.237188417578995,2803.65197548499
-0.251188351494603,2803.66197548499
-0.265444256634688,2803.67197548499
-0.279402871274996,2803.68197548499
-0.293549886457012,2803.69197548499
-0.306855267884745,2803.70197548499
-0.320008236727837,2803.71197548499
-0.332668274732407,2803.72197548499
-0.345659167070437,2803.73197548499
-0.358649983082676,2803.74197548499
-0.371360290409058,2803.75197548498
-0.384448978590508,2803.76197548499
-0.396763939704955,2803.77197548498
-0.408648561823715,2803.78197548499
-0.41973704564397,2803.79197548498
-0.43079218578138,2803.80197548499
-0.441558867090911,2803.81197548498
-0.453294748198832,2803.82197548499
-0.465121272679577,2803.83197548498
-0.477354302383669,2803.84197548499
-0.489988506011656,2803.85197548498
-0.50257572723918,2803.86197548499
-0.515792457425048,2803.87197548498
-0.528611312448129,2803.88197548499
-0.540636553138332,2803.89197548498
-0.5492686738508,2803.90197548499
-0.548931948456696,2803.91197548499
-0.531074975019157,2803.92197548499
-0.485719564342266,2803.93197548499
-0.40870510235395,2803.94197548499
-0.306085118350893,2803.95197548499
-0.189923137789167,2803.96197548499
-0.0735710694138088,2803.97197548499
0.0322701760655734,2803.98197548499
0.123538070681773,2803.99197548499
0.199451523169253,2804.00197548498
0.262115817863305,2804.01197548499
0.313249319982353,2804.02197548498
0.355108903482524,2804.03197548499
0.388448960061927,2804.04197548498
0.413332963769125,2804.05197548499
0.430454833511869,2804.06197548498
0.439463785136681,2804.07197548499
0.441570931829969,2804.08197548498
0.437945717280075,2804.09197548499
0.429953034040685,2804.10197548498
0.420205574373748,2804.11197548499
0.409069945395306,2804.12197548498
0.398545023243643,2804.13197548499
0.387863169191354,2804.14197548498
0.377314800108711,2804.15197548499
0.367079113089376,2804.16197548499
0.35645907594515,2804.17197548499
0.345415867158482,2804.18197548499
0.332854050316863,2804.19197548499
0.318512905211859,2804.20197548499
0.301860536957028,2804.21197548499
0.283817753846935,2804.22197548499
0.264644831979034,2804.23197548499
0.245841911883383,2804.24197548499
0.229527124152041,2804.25197548498
0.21721263680277,2804.26197548499
0.209569387707196,2804.27197548498
0.207226724023195,2804.28197548499
0.209902722116515,2804.29197548498
0.216382132615554,2804.30197548499
0.225936254881322,2804.31197548498
0.237865905889223,2804.32197548499
0.249942740182025,2804.33197548498
0.260994609112333,2804.34197548499
0.269883819952042,2804.35197548498
0.275725717544193,2804.36197548499
0.278433215810299,2804.37197548498
0.277625251481556,2804.38197548499
0.273605028301067,2804.39197548498
0.267078757200599,2804.40197548499
0.258524744417041,2804.41197548499
0.248264387703145,2804.42197548499
0.236165849046872,2804.43197548499
0.22300702588714,2804.44197548499
0.208513874032134,2804.45197548499
0.193534950390708,2804.46197548499
0.178361839903581,2804.47197548499
0.163717082344382,2804.48197548499
0.149549537351109,2804.49197548499
0.135376886405299,2804.50197548498
0.121396969860626,2804.51197548499
0.10762559426828,2804.52197548498
0.0936795084753454,2804.53197548499
0.0802352826683122,2804.54197548498
0.0660487905826489,2804.55197548499
0.0522593491931639,2804.56197548498
0.0378866972255834,2804.57197548499
0.0238007464763046,2804.58197548498
0.00922576043352444,2804.59197548499
-0.00546460765815464,2804.60197548498
-0.0195198258540136,2804.61197548499
-0.034580711276961,2804.62197548498
-0.0496434157802229,2804.63197548499
-0.0654691652686108,2804.64197548498
-0.0815391217982094,2804.65197548499
-0.0977726830769813,2804.66197548499
-0.11364992622716,2804.67197548499
-0.129107889772742,2804.68197548499
-0.144975078095091,2804.69197548499
-0.160302261192377,2804.70197548499
-0.174978021146328,2804.71197548499
-0.18990747248144,2804.72197548499
-0.20490852276732,2804.73197548499
-0.220248214107972,2804.74197548499
-0.236122325436651,2804.75197548498
-0.251652783234947,2804.76197548499
-0.267162222600446,2804.77197548498
-0.282980340833101,2804.78197548499
-0.298680556696819,2804.79197548498
-0.313982539519707,2804.80197548499
-0.32931803415149,2804.81197548498
-0.344322401483641,2804.82197548499
-0.358611329270682,2804.83197548498
-0.372966543477233,2804.84197548499
-0.386851230754154,2804.85197548498
-0.400637138464979,2804.86197548499
-0.414602976543298,2804.87197548498
-0.42867917623646,2804.88197548499
-0.443110294042254,2804.89197548498
-0.457090016064607,2804.90197548499
-0.470519099654595,2804.91197548499
-0.483679836791993,2804.92197548499
-0.496996992907466,2804.93197548499
-0.509875469064624,2804.94197548499
-0.523013365339151,2804.95197548499
-0.536510414262174,2804.96197548499
-0.549514917370296,2804.97197548499
-0.562062736862965,2804.98197548499
-0.574193831420033,2804.99197548499
-0.586449404812319,2805.00197548498
-0.598376395813749,2805.01197548499
-0.610651858907661,2805.02197548498
-0.622183742141197,2805.03197548499
-0.633419287923015,2805.04197548498
-0.642981227652046,2805.05197548499
-0.647592558948091,2805.06197548498
-0.641302752689727,2805.07197548499
-0.614781204235388,2805.08197548498
-0.557849639093205,2805.09197548499
-0.468427982277137,2805.10197548498
-0.355441748208818,2805.11197548499
-0.232840431209964,2805.12197548498
-0.116222510321484,2805.13197548499
-0.0141963460423647,2805.14197548498
0.0691262734918664,2805.15197548499
0.135314382743747,2805.16197548499
0.187763856038643,2805.17197548499
0.228933668262857,2805.18197548499
0.260428197708173,2805.19197548499
0.284549847656157,2805.20197548499
0.300922520035557,2805.21197548499
0.31002806135204,2805.22197548499
0.31301599718082,2805.23197548499
0.310628917990558,2805.24197548499
0.304289279092324,2805.25197548498
0.29447641192373,2805.26197548499
0.283272959253082,2805.27197548498
0.270921305628215,2805.28197548499
0.258560181863353,2805.29197548498
0.246545999252262,2805.30197548499
0.234135784248623,2805.31197548498
0.222261869112419,2805.32197548499
0.21016464106175,2805.33197548498
0.197283359585009,2805.34197548499
0.182523067511767,2805.35197548498
0.165710527517975,2805.36197548499
0.146828221922017,2805.37197548498
0.127457124083155,2805.38197548499
0.10944055692891,2805.39197548498
0.0937245649401841,2805.40197548499
0.0828403801316637,2805.41197548499
0.0771031065609057,2805.42197548499
0.0773731316890228,2805.43197548499
0.082875259870347,2805.44197548499
0.0936241758808863,2805.45197548499
0.108234991027397,2805.46197548499
0.125481759992411,2805.47197548499
0.14356981607328,2805.48197548499
0.160232778005017,2805.49197548499
0.173915448458789,2805.50197548498
0.18327023078647,2805.51197548499
0.188519907824741,2805.52197548498
0.189670631367172,2805.53197548499
0.187596340911715,2805.54197548498
0.182849476597769,2805.55197548499
0.176402156844286,2805.56197548498
0.168449801065258,2805.57197548499
0.159842365507947,2805.58197548498
0.150475040491674,2805.59197548499
0.141114930413233,2805.60197548498
0.130984035468663,2805.61197548499
0.120907324160296,2805.62197548498
0.110252073074509,2805.63197548499
0.0995962868549334,2805.64197548498
0.0878571720532497,2805.65197548499
0.0760971393455262,2805.66197548499
0.0640985638168789,2805.67197548499
0.0511199905784145,2805.68197548499
0.0380683776657795,2805.69197548499
0.0249341468167712,2805.70197548499
0.0121676962941104,2805.71197548499
-0.000697083173935504,2805.72197548499
-0.0129689093221328,2805.73197548499
-0.0250509819862059,2805.74197548499
-0.0377467611024283,2805.75197548498
-0.0506276964617468,2805.76197548499
-0.0643285234778516,2805.77197548498
-0.0776014439276534,2805.78197548499
-0.090577667636775,2805.79197548498
-0.10389481620976,2805.80197548499
-0.116690365743627,2805.81197548498
-0.128942918837692,2805.82197548499
-0.141454211114917,2805.83197548498
-0.154190060022667,2805.84197548499
-0.167232738237774,2805.85197548498
-0.180027917952755,2805.86197548499
-0.19288651263804,2805.87197548498
-0.204962760999056,2805.88197548499
-0.216791952613335,2805.89197548498
-0.228630995122235,2805.90197548499
-0.240385505432997,2805.91197548499
-0.251994387538715,2805.92197548499
-0.263721727337252,2805.93197548499
-0.27621448117033,2805.94197548499
-0.288891628215291,2805.95197548499
-0.301431858554324,2805.96197548499
-0.312973996861,2805.97197548499
-0.323918128939803,2805.98197548499
-0.334661930674281,2805.99197548499
-0.345307994073768,2806.00197548498
-0.356846445752804,2806.01197548499
-0.368422125521632,2806.02197548498
-0.380699924519352,2806.03197548499
-0.393464313154494,2806.04197548498
-0.406255307652601,2806.05197548499
-0.418486534986273,2806.06197548498
-0.428979913585082,2806.07197548499
-0.434114065594191,2806.08197548498
-0.427656611423583,2806.09197548499
-0.400609642145848,2806.10197548498
-0.34520664713572,2806.11197548499
-0.261235895619432,2806.12197548498
-0.156451766527909,2806.13197548499
-0.0422898968946304,2806.14197548498
0.0693501215552644,2806.15197548499
0.1717817273049,2806.16197548499
0.261588579638441,2806.17197548499
0.338210576756672,2806.18197548499
0.40357768807973,2806.19197548499
0.458759244282478,2806.20197548499
0.504748913208709,2806.21197548499
0.541507177012962,2806.22197548499
0.568323830210665,2806.23197548499
0.586479249179241,2806.24197548499
0.596827864339615,2806.25197548498
0.600727242030459,2806.26197548499
0.599909129705645,2806.27197548498
0.595934477346389,2806.28197548499
0.589922917279606,2806.29197548498
0.582752265309153,2806.30197548499
0.575118098872273,2806.31197548498
0.567772005057247,2806.32197548499
0.56045063966953,2806.33197548498
0.553969637795485,2806.34197548499
0.547723082172734,2806.35197548498
0.540233403939754,2806.36197548499
0.530881304060687,2806.37197548498
0.518646718088056,2806.38197548499
0.503404029890045,2806.39197548498
0.486012419995067,2806.40197548499
0.468420095920768,2806.41197548499
0.451584661544094,2806.42197548499
0.437630037044047,2806.43197548499
0.427869898813283,2806.44197548499
0.422765486996597,2806.45197548499
0.421903875037924,2806.46197548499
0.424857176554391,2806.47197548499
0.431634273357361,2806.48197548499
0.441231000514867,2806.49197548499
0.45255322253719,2806.50197548498
0.464544499424941,2806.51197548499
0.475422726815897,2806.52197548498
0.48375760684306,2806.53197548499
0.489313105506563,2806.54197548498
0.491110339534393,2806.55197548499
0.489929453676813,2806.56197548498
0.486419864060248,2806.57197548499
0.480333233634245,2806.58197548498
0.472088679124912,2806.59197548499
0.461385124620852,2806.60197548498
0.449215990233453,2806.61197548499
0.435676677759692,2806.62197548498
0.420977678229095,2806.63197548499
0.406447994152572,2806.64197548498
0.39166941333597,2806.65197548499
0.376889863047367,2806.66197548499
0.362182663801674,2806.67197548499
0.347732046391728,2806.68197548499
0.333395086955497,2806.69197548499
0.319075561732136,2806.70197548499
0.304535990580616,2806.71197548499
0.289622964740785,2806.72197548499
0.274484096637412,2806.73197548499
0.259928476030557,2806.74197548499
0.245321066719288,2806.75197548498
0.230360707904458,2806.76197548499
0.215284964941447,2806.77197548498
0.199629417695287,2806.78197548499
0.183181371540362,2806.79197548498
0.166530700203476,2806.80197548499
0.150174539793328,2806.81197548498
0.134080811725873,2806.82197548499
0.118805371714855,2806.83197548498
0.104702189496358,2806.84197548499
0.0906323916140689,2806.85197548498
0.0766657675373729,2806.86197548499
0.0623390997014489,2806.87197548498
0.0473960305037216,2806.88197548499
0.0319842517169047,2806.89197548498
0.0163635851887516,2806.90197548499
0.00144189887108561,2806.91197548499
-0.0136611723560336,2806.92197548499
-0.0284735789323737,2806.93197548499
-0.0429075067661087,2806.94197548499
-0.0570095702547948,2806.95197548499
-0.0709529029443086,2806.96197548499
-0.0849419138592542,2806.97197548499
-0.0991342484368648,2806.98197548499
-0.113783231478203,2806.99197548499
-0.128060342262821,2807.00197548498
-0.142372663980517,2807.01197548499
-0.156630712300868,2807.02197548498
-0.170582724626579,2807.03197548499
-0.184737515862807,2807.04197548498
-0.198187039013634,2807.05197548499
-0.211430042274164,2807.06197548498
-0.223601238054827,2807.07197548499
-0.235265528684087,2807.08197548498
-0.247130590243388,2807.09197548499
-0.258592597193354,2807.10197548498
-0.270036005638214,2807.11197548499
-0.281666264232195,2807.12197548498
-0.293186636747985,2807.13197548499
-0.305538718138158,2807.14197548498
-0.318467949653033,2807.15197548499
-0.331346148994499,2807.16197548499
-0.343697469930576,2807.17197548499
-0.352872398157603,2807.18197548499
-0.354923938105224,2807.19197548499
-0.341244293858279,2807.20197548499
-0.302530348261963,2807.21197548499
-0.233557594600633,2807.22197548499
-0.137672735538073,2807.23197548499
-0.0253787892570147,2807.24197548499
0.0914835106679283,2807.25197548498
0.20344998392035,2807.26197548499
0.304799857115706,2807.27197548498
0.393096683581161,2807.28197548499
0.469109890645005,2807.29197548498
0.533536558998655,2807.30197548499
0.58722911647548,2807.31197548498
0.630381117132352,2807.32197548499
0.663033419914201,2807.33197548498
0.686053963173798,2807.34197548499
0.700944772653532,2807.35197548498
0.708589182742283,2807.36197548499
0.710197365602041,2807.37197548498
0.708167969733296,2807.38197548499
0.703080922195476,2807.39197548498
0.696832634362261,2807.40197548499
0.68952172002856,2807.41197548499
0.681688606124186,2807.42197548499
0.673785442949176,2807.43197548499
0.66621771941659,2807.44197548499
0.659237001691329,2807.45197548499
0.651876823424596,2807.46197548499
0.643132320026311,2807.47197548499
0.632199856618539,2807.48197548499
0.617600935171038,2807.49197548499
0.599871429453854,2807.50197548498
0.580827605381374,2807.51197548499
0.561043740073074,2807.52197548498
0.543335531927743,2807.53197548499
0.52919099404807,2807.54197548498
0.519522299891154,2807.55197548499
0.515005294245462,2807.56197548498
0.515723009400124,2807.57197548499
0.520401150824802,2807.58197548498
0.529212377722753,2807.59197548499
0.540351218217571,2807.60197548498
0.552827106231025,2807.61197548499
0.565103738838306,2807.62197548498
0.575441681985575,2807.63197548499
0.583178727236181,2807.64197548498
0.587848867539862,2807.65197548499
0.588632077489229,2807.66197548499
0.585876211141284,2807.67197548499
0.580446359783332,2807.68197548499
0.571689272647579,2807.69197548499
0.560722001540597,2807.70197548499
0.547884913616539,2807.71197548499
0.534075704963268,2807.72197548499
0.520104258461474,2807.73197548499
0.505601977619895,2807.74197548499
0.490482773683067,2807.75197548498
0.475156772341235,2807.76197548499
0.459251603278818,2807.77197548498
0.443257786267313,2807.78197548499
0.427484001467967,2807.79197548498
0.411424556706872,2807.80197548499
0.395586525449887,2807.81197548498
0.37942655034134,2807.82197548499
0.362620653662485,2807.83197548498
0.344801231355449,2807.84197548499
0.326752567611099,2807.85197548498
0.307933868747496,2807.86197548499
0.289638109901597,2807.87197548498
0.271648539559103,2807.88197548499
0.254075511769703,2807.89197548498
0.236706957183899,2807.90197548499
0.219390861221074,2807.91197548499
0.202334525393242,2807.92197548499
0.185196474025532,2807.93197548499
0.168006294716632,2807.94197548499
0.150524266219195,2807.95197548499
0.133104100618404,2807.96197548499
0.115502940999291,2807.97197548499
0.0978980702847898,2807.98197548499
0.0804150109637399,2807.99197548499
0.0629459722183706,2808.00197548498
0.0463640719079421,2808.01197548499
0.0301975258798347,2808.02197548498
0.0150704942608136,2808.03197548499
0.00105558375890689,2808.04197548498
-0.0127346980477449,2808.05197548499
-0.0268415822878208,2808.06197548498
-0.0415265987794421,2808.07197548499
-0.0567192595724925,2808.08197548498
-0.0722482119561116,2808.09197548499
-0.0873480219424618,2808.10197548498
-0.101653812538757,2808.11197548499
-0.115863782052191,2808.12197548498
-0.129740741380083,2808.13197548499
-0.14316122135754,2808.14197548498
-0.157183840447289,2808.15197548499
-0.171396636099066,2808.16197548499
-0.186477730991861,2808.17197548499
-0.201471443593934,2808.18197548499
-0.214483851048947,2808.19197548499
-0.220725109465094,2808.20197548499
-0.212724832656668,2808.21197548499
-0.180865709494276,2808.22197548499
-0.120081998853789,2808.23197548499
-0.032297893050768,2808.24197548499
0.0725189370097077,2808.25197548498
0.183200986425594,2808.26197548499
0.290547940199674,2808.27197548498
0.38809473897499,2808.28197548499
0.473957854678128,2808.29197548498
0.54729877171943,2808.30197548499
0.60916311356346,2808.31197548498
0.660358212729361,2808.32197548499
0.701150255405239,2808.33197548498
0.731270155040501,2808.34197548499
0.752173605139837,2808.35197548498
0.764767363555891,2808.36197548499
0.769453038805473,2808.37197548498
0.768266155147517,2808.38197548499
0.762556279176386,2808.39197548498
0.753855370567187,2808.40197548499
0.743299629364364,2808.41197548499
0.732058944531529,2808.42197548499
0.720585325300276,2808.43197548499
0.70945100788139,2808.44197548499
0.698133116325828,2808.45197548499
0.686900635381393,2808.46197548499
0.675161103587237,2808.47197548499
0.661433283328445,2808.48197548499
0.644444475858103,2808.49197548499
0.62404927854777,2808.50197548498
0.601333522527129,2808.51197548499
0.57837092257801,2808.52197548498
0.557076389836244,2808.53197548499
0.539948000226011,2808.54197548498
0.527749259243722,2808.55197548499
0.52123783744895,2808.56197548498
0.519473808409528,2808.57197548499
0.521992969098157,2808.58197548498
0.528970859521661,2808.59197548499
0.538150966218742,2808.60197548498
0.549100827245676,2808.61197548499
0.559470583912616,2808.62197548498
0.568391866123604,2808.63197548499
0.57474322821606,2808.64197548498
0.578055892413029,2808.65197548499
0.578576326716195,2808.66197548499
0.57565095244618,2808.67197548499
0.570263158930102,2808.68197548499
0.56262281763479,2808.69197548499
0.552577418768076,2808.70197548499
0.540697865168853,2808.71197548499
0.52708920346926,2808.72197548499
0.512379308529023,2808.73197548499
0.496626364896717,2808.74197548499
0.480879001306688,2808.75197548498
0.465013282422091,2808.76197548499
0.448783042047687,2808.77197548498
0.431997513536675,2808.78197548499
0.414921889138831,2808.79197548498
0.397040007328712,2808.80197548499
0.379230269666779,2808.81197548498
0.361750455777463,2808.82197548499
0.344405894279545,2808.83197548498
0.327274292518543,2808.84197548499
0.310208338085701,2808.85197548498
0.293752869042043,2808.86197548499
0.277507916746968,2808.87197548498
0.261818946974822,2808.88197548499
0.2463174199371,2808.89197548498
0.23005909831683,2808.90197548499
0.214112829995329,2808.91197548499
0.198163853966385,2808.92197548499
0.182245930706757,2808.93197548499
0.166534528502407,2808.94197548499
0.150814196763908,2808.95197548499
0.135516195207574,2808.96197548499
0.120562103922945,2808.97197548499
0.105907324385998,2808.98197548499
0.0920883519650467,2808.99197548499
0.0782244493893326,2809.00197548498
0.0640316335290702,2809.01197548499
0.0498085896969869,2809.02197548498
0.0356623310499754,2809.03197548499
0.0214989749163332,2809.04197548498
0.00758087882918504,2809.05197548499
-0.00645517225636342,2809.06197548498
-0.0202335231804564,2809.07197548499
-0.0335165709195062,2809.08197548498
-0.0472733085759885,2809.09197548499
-0.060969237309605,2809.10197548498
-0.0752646441872382,2809.11197548499
-0.0899075718333208,2809.12197548498
-0.10402608716131,2809.13197548499
-0.117188616681743,2809.14197548498
-0.124911456673044,2809.15197548499
-0.120360344789848,2809.16197548499
-0.0949774292688322,2809.17197548499
-0.0429863516738442,2809.18197548499
0.0348105367741232,2809.19197548499
0.13130194272183,2809.20197548499
0.237276026211587,2809.21197548499
0.34381434309133,2809.22197548499
0.444009496753231,2809.23197548499
0.534847012508836,2809.24197548499
0.614579606195651,2809.25197548498
0.682607862982307,2809.26197548499
0.739068177494203,2809.27197548498
0.784278833658551,2809.28197548499
0.817846322548813,2809.29197548498
0.840828046563204,2809.30197548499
0.854806359550652,2809.31197548498
0.861279500606659,2809.32197548499
0.861190367782732,2809.33197548498
0.856146897804577,2809.34197548499
0.847703441376409,2809.35197548498
0.837241254100076,2809.36197548499
0.826445525687694,2809.37197548498
0.815424865698742,2809.38197548499
0.804965071343544,2809.39197548498
0.794437439971636,2809.40197548499
0.783317075976458,2809.41197548499
0.770767340267514,2809.42197548499
0.755705802376691,2809.43197548499
0.73733106427459,2809.44197548499
0.715892405880598,2809.45197548499
0.692926972137937,2809.46197548499
0.670307466611324,2809.47197548499
0.649649209670272,2809.48197548499
0.633528108921973,2809.49197548499
0.622605961020535,2809.50197548498
0.61735456802888,2809.51197548499
0.617250655090084,2809.52197548498
0.622226649870906,2809.53197548499
0.630310610314511,2809.54197548498
0.640318610743306,2809.55197548499
0.650779692185572,2809.56197548498
0.660602223594756,2809.57197548499
0.669093685285535,2809.58197548498
0.674828544221456,2809.59197548499
0.6777154802158,2809.60197548498
0.677498639807244,2809.61197548499
0.673919330913856,2809.62197548498
0.667064057642558,2809.63197548499
0.657276976104593,2809.64197548498
0.64534642437784,2809.65197548499
0.631734456813545,2809.66197548499
0.616346329571279,2809.67197548499
0.600116946272576,2809.68197548499
0.583104760212256,2809.69197548499
0.565722612565545,2809.70197548499
0.548710771526868,2809.71197548499
0.531155496344486,2809.72197548499
0.5136477425683,2809.73197548499
0.495909211975842,2809.74197548499
0.478050389177254,2809.75197548498
0.460560325282541,2809.76197548499
0.442646123901157,2809.77197548498
0.425207210376384,2809.78197548499
0.408208803356143,2809.79197548498
0.391487456516464,2809.80197548499
0.374621664373197,2809.81197548498
0.357847276617733,2809.82197548499
0.340290657179666,2809.83197548498
0.323256920407427,2809.84197548499
0.306384716739751,2809.85197548498
0.289841959568469,2809.86197548499
0.27291553124754,2809.87197548498
0.255932307802884,2809.88197548499
0.239172277197901,2809.89197548498
0.222080371362419,2809.90197548499
0.205301092231816,2809.91197548499
0.188479520657302,2809.92197548499
0.171604838601963,2809.93197548499
0.155176002989441,2809.94197548499
0.138309548357687,2809.95197548499
0.121573721356167,2809.96197548499
0.10537352952056,2809.97197548499
0.0890895369835842,2809.98197548499
0.072541655012685,2809.99197548499
0.0562118285256597,2810.00197548498
0.0396274747657877,2810.01197548499
0.0231813460641727,2810.02197548498
0.00718238696519936,2810.03197548499
-0.00838746865356392,2810.04197548498
-0.0237188432233533,2810.05197548499
-0.038522345153637,2810.06197548498
-0.0529661358572009,2810.07197548499
-0.0672349413966022,2810.08197548498
-0.0815008137788963,2810.09197548499
-0.0959396683585057,2810.10197548498
-0.110533938101365,2810.11197548499
-0.126003223012984,2810.12197548498
-0.141851473711637,2810.13197548499
-0.156529078595356,2810.14197548498
-0.167555830811403,2810.15197548499
-0.168394296452735,2810.16197548499
-0.149954773762585,2810.17197548499
-0.104616767121133,2810.18197548499
-0.0307351640516931,2810.19197548499
0.0656820478494825,2810.20197548499
0.175844444377645,2810.21197548499
0.290680256278289,2810.22197548499
0.402247431992169,2810.23197548499
0.505747516607856,2810.24197548499
0.598481740981688,2810.25197548498
0.679084981850565,2810.26197548499
0.746547627383648,2810.27197548498
0.801303983551743,2810.28197548499
0.844225213784408,2810.29197548498
0.875829144654864,2810.30197548499
0.897339364812863,2810.31197548498
0.910471405714163,2810.32197548499
0.915946876380721,2810.33197548498
0.916228898998037,2810.34197548499
0.911517465270192,2810.35197548498
0.903817568869666,2810.36197548499
0.894334943939394,2810.37197548498
0.884420968169525,2810.38197548499
0.874247929439726,2810.39197548498
0.864695881342291,2810.40197548499
0.855724736734097,2810.41197548499
0.846573455580338,2810.42197548499
0.835742147836538,2810.43197548499
0.822357978378418,2810.44197548499
0.805587183916396,2810.45197548499
0.785694316792367,2810.46197548499
0.764023532689458,2810.47197548499
0.742438192098736,2810.48197548499
0.722515729675061,2810.49197548499
0.706019860532574,2810.50197548498
0.694011135015775,2810.51197548499
0.686916886877832,2810.52197548498
0.68510197316429,2810.53197548499
0.687089836782056,2810.54197548498
0.692712099490097,2810.55197548499
0.700996510620612,2810.56197548498
0.710209572629528,2810.57197548499
0.719195125658837,2810.58197548498
0.726674442129327,2810.59197548499
0.732661769177058,2810.60197548498
0.735607738354989,2810.61197548499
0.735299913466602,2810.62197548498
0.731201867205608,2810.63197548499
0.723191850222553,2810.64197548498
0.711862748595883,2810.65197548499
0.698126160458928,2810.66197548499
0.682942564354498,2810.67197548499
0.666538035104229,2810.68197548499
0.649136927806047,2810.69197548499
0.631092770030955,2810.70197548499
0.612434744052272,2810.71197548499
0.592979670737949,2810.72197548499
0.573976795836999,2810.73197548499
0.55532009736912,2810.74197548499
0.536791302975729,2810.75197548498
0.517594357932985,2810.76197548499
0.498213122657534,2810.77197548498
0.478150966841144,2810.78197548499
0.458249713205025,2810.79197548498
0.438550643921343,2810.80197548499
0.419443193197616,2810.81197548498
0.400597562114717,2810.82197548499
0.381924926095025,2810.83197548498
0.363038240646617,2810.84197548499
0.344584249894011,2810.85197548498
0.325766724331368,2810.86197548499
0.306563687865647,2810.87197548498
0.286956183896051,2810.88197548499
0.267565944450836,2810.89197548498
0.248799762633327,2810.90197548499
0.230357945119812,2810.91197548499
0.212650226139841,2810.92197548499
0.195009121716328,2810.93197548499
0.177354574845017,2810.94197548499
0.159489035607144,2810.95197548499
0.141453172586721,2810.96197548499
0.123422660732107,2810.97197548499
0.105033392381623,2810.98197548499
0.0871448668417322,2810.99197548499
0.0688725330706514,2811.00197548498
0.0507521532574915,2811.01197548499
0.0332611883486777,2811.02197548498
0.0161283501020368,2811.03197548499
-5.26265384455978e-05,2811.04197548498
-0.0160584808948131,2811.05197548499
-0.031339373313589,2811.06197548498
-0.0468763755977082,2811.07197548499
-0.0624075510352034,2811.08197548498
-0.0777231433707384,2811.09197548499
-0.0934216638282107,2811.10197548498
-0.108826367462213,2811.11197548499
-0.124383763786969,2811.12197548498
-0.139265035582976,2811.13197548499
-0.153523252350212,2811.14197548498
-0.1674864994823,2811.15197548499
-0.181581488680929,2811.16197548499
-0.196110241631762,2811.17197548499
-0.210554124500746,2811.18197548499
-0.22526474083666,2811.19197548499
-0.240074243186977,2811.20197548499
-0.254965505762692,2811.21197548499
-0.269349568898358,2811.22197548499
-0.283334341273649,2811.23197548499
-0.296901794533519,2811.24197548499
-0.310538109122784,2811.25197548498
-0.323936460097903,2811.26197548499
-0.337475915415913,2811.27197548498
-0.351476160920852,2811.28197548499
-0.365733014441655,2811.29197548498
-0.380565214072322,2811.30197548499
-0.395771693032869,2811.31197548498
-0.410858838658096,2811.32197548499
-0.425537947429461,2811.33197548498
-0.439698927137969,2811.34197548499
-0.453410516907952,2811.35197548498
-0.467315538405347,2811.36197548499
-0.480518590801065,2811.37197548498
-0.494011052642521,2811.38197548499
-0.507384494230491,2811.39197548498
-0.520970033084918,2811.40197548499
-0.53430050489547,2811.41197548499
-0.547562020022291,2811.42197548499
-0.560529001193663,2811.43197548499
-0.573348869344879,2811.44197548499
-0.586656832552396,2811.45197548499
-0.599800855372393,2811.46197548499
-0.613400973060916,2811.47197548499
-0.626593983211208,2811.48197548499
-0.639522671316027,2811.49197548499
-0.652836159737189,2811.50197548498
-0.664883175334214,2811.51197548499
-0.672150527536917,2811.52197548498
-0.667010283991258,2811.53197548499
-0.638996711027595,2811.54197548498
-0.577718696052626,2811.55197548499
-0.482030862579189,2811.56197548498
-0.360510205910979,2811.57197548499
-0.226712366411308,2811.58197548498
-0.094787838541314,2811.59197548499
0.0261579698950644,2811.60197548498
0.131769014121449,2811.61197548499
0.22143612188212,2811.62197548498
0.29590749586401,2811.63197548499
0.357496230418264,2811.64197548498
0.406282487028378,2811.65197548499
0.443386922586944,2811.66197548499
0.469948498118187,2811.67197548499
0.48639092824398,2811.68197548499
0.49401337214658,2811.69197548499
0.494915853233161,2811.70197548499
0.490176814719169,2811.71197548499
0.481657712422898,2811.72197548499
0.470913634475259,2811.73197548499
0.458494025138502,2811.74197548499
0.446019033854416,2811.75197548498
0.434406484186456,2811.76197548499
0.423430291352487,2811.77197548498
0.413959869440793,2811.78197548499
0.404843135503028,2811.79197548498
0.394486668626293,2811.80197548499
0.382248755859923,2811.81197548498
0.36752621728527,2811.82197548499
0.350423539553449,2811.83197548498
0.331287837897839,2811.84197548499
0.311856769826445,2811.85197548498
0.294104896357864,2811.86197548499
0.279976001484767,2811.87197548498
0.270728500317597,2811.88197548499
0.266502391282522,2811.89197548498
0.266880585469801,2811.90197548499
0.271279874063089,2811.91197548499
0.279181456726408,2811.92197548499
0.289952573566464,2811.93197548499
0.302270992228293,2811.94197548499
0.314837112699024,2811.95197548499
0.325737917729046,2811.96197548499
0.334211982544553,2811.97197548499
0.338899381482909,2811.98197548499
0.339878151853517,2811.99197548499
0.33756361371194,2812.00197548498
0.332037421913665,2812.01197548499
0.32409407927778,2812.02197548498
0.313969859859415,2812.03197548499
0.301717000005172,2812.04197548498
0.288089992280498,2812.05197548499
0.272680695919425,2812.06197548498
0.256711055102928,2812.07197548499
0.23954815542159,2812.08197548498
0.221907623145757,2812.09197548499
0.20453518004971,2812.10197548498
0.186188600891295,2812.11197548499
0.168334376106096,2812.12197548498
0.149924371494207,2812.13197548499
0.130964820460301,2812.14197548498
0.112338026812511,2812.15197548499
0.0944482566637594,2812.16197548499
0.0769816460000925,2812.17197548499
0.0596846251921288,2812.18197548499
0.042434876229945,2812.19197548499
0.0253132600720071,2812.20197548499
0.00819286615671746,2812.21197548499
-0.00922673881463727,2812.22197548499
-0.0267280848854805,2812.23197548499
-0.0447695455375895,2812.24197548499
-0.062758474872133,2812.25197548498
-0.0798621352464541,2812.26197548499
-0.0971659928970191,2812.27197548498
-0.114058975546888,2812.28197548499
-0.13033610160232,2812.29197548498
-0.146391137297676,2812.30197548499
-0.16214731481324,2812.31197548498
-0.17803019086517,2812.32197548499
-0.194160550775259,2812.33197548498
-0.210267884106783,2812.34197548499
-0.226338975226888,2812.35197548498
-0.242421903354257,2812.36197548499
-0.258011087813563,2812.37197548498
-0.273566701767261,2812.38197548499
-0.289260263362411,2812.39197548498
-0.304929293351926,2812.40197548499
-0.320463660654454,2812.41197548499
-0.33530571862306,2812.42197548499
-0.350446227153408,2812.43197548499
-0.365763078873456,2812.44197548499
-0.381200418773724,2812.45197548499
-0.396546828427842,2812.46197548499
-0.411507862669397,2812.47197548499
-0.426007671345113,2812.48197548499
-0.440333291760067,2812.49197548499
-0.454452320957498,2812.50197548498
-0.467654414511047,2812.51197548499
-0.480972109669646,2812.52197548498
-0.493585930315872,2812.53197548499
-0.506117813359477,2812.54197548498
-0.518542115038467,2812.55197548499
-0.530977530797878,2812.56197548498
-0.544247278057854,2812.57197548499
-0.55793109301082,2812.58197548498
-0.572073009112724,2812.59197548499
-0.586364552302055,2812.60197548498
-0.600210354239869,2812.61197548499
-0.613742299199462,2812.62197548498
-0.62648276601944,2812.63197548499
-0.638565314167126,2812.64197548498
-0.650264705947057,2812.65197548499
-0.662381964637575,2812.66197548499
-0.674980845921781,2812.67197548499
-0.688414285147748,2812.68197548499
-0.701708423425475,2812.69197548499
-0.714333984419791,2812.70197548499
-0.723884172008532,2812.71197548499
-0.726124837956105,2812.72197548499
-0.713278794190297,2812.73197548499
-0.674375442403653,2812.74197548499
-0.602571680291123,2812.75197548498
-0.499655260074334,2812.76197548499
-0.377725967754316,2812.77197548498
-0.251113001159079,2812.78197548499
-0.131485647629924,2812.79197548498
-0.0263190702382784,2812.80197548499
0.0623855229781122,2812.81197548498
0.135461352297175,2812.82197548499
0.195150178019079,2812.83197548498
0.242989504571483,2812.84197548499
0.279400456033439,2812.85197548498
0.306002968859488,2812.86197548499
0.322819235336125,2812.87197548498
0.331438730183329,2812.88197548499
0.332560835054318,2812.89197548498
0.32774737139482,2812.90197548499
0.318870180671598,2812.91197548499
0.307040369828975,2812.92197548499
0.293708720320439,2812.93197548499
0.279451416963625,2812.94197548499
0.265034080858059,2812.95197548499
0.251632527313361,2812.96197548499
0.238736398217906,2812.97197548499
0.226250663504299,2812.98197548499
0.213730058841802,2812.99197548499
0.200189761670139,2813.00197548498
0.185045682352468,2813.01197548499
0.167563781712911,2813.02197548498
0.147988765196167,2813.03197548499
0.127529085735786,2813.04197548498
0.107965807867061,2813.05197548499
0.0913012835092468,2813.06197548498
0.0793454249676548,2813.07197548499
0.0724789371929753,2813.08197548498
0.0712572481593164,2813.09197548499
0.0755079342430688,2813.10197548498
0.0839929868384649,2813.11197548499
0.0961750555831867,2813.12197548498
0.11021780085314,2813.13197548499
0.125010521551704,2813.14197548498
0.138298508228633,2813.15197548499
0.148712698468041,2813.16197548499
0.156123194966624,2813.17197548499
0.159951558880591,2813.18197548499
0.15975735157164,2813.19197548499
0.156209841603944,2813.20197548499
0.149000139702533,2813.21197548499
0.139149745293569,2813.22197548499
0.127753045249299,2813.23197548499
0.114941866097871,2813.24197548499
0.101721850203764,2813.25197548498
0.0876669594487182,2813.26197548499
0.0739439900126737,2813.27197548498
0.0595196402051156,2813.28197548499
0.0446919550330899,2813.29197548498
0.0291724725199936,2813.30197548499
0.0130368568929501,2813.31197548498
-0.00306755662511526,2813.32197548499
-0.0193346168910433,2813.33197548498
-0.0356399012632808,2813.34197548499
-0.052158834129444,2813.35197548498
-0.0685053667350799,2813.36197548499
-0.0846262955105321,2813.37197548498
-0.0999925262351236,2813.38197548499
-0.114973354666994,2813.39197548498
-0.129516812670721,2813.40197548499
-0.144418523886841,2813.41197548499
-0.15922038166715,2813.42197548499
-0.174642655190548,2813.43197548499
-0.190335044133211,2813.44197548499
-0.206248217944575,2813.45197548499
-0.22214432750515,2813.46197548499
-0.237896603032168,2813.47197548499
-0.252922031913208,2813.48197548499
-0.267439360764858,2813.49197548499
-0.281753408389749,2813.50197548498
-0.295706056753411,2813.51197548499
-0.310283316494749,2813.52197548498
-0.325213820872264,2813.53197548499
-0.340197718942333,2813.54197548498
-0.355178806185912,2813.55197548499
-0.369981515028765,2813.56197548498
-0.384597496927953,2813.57197548499
-0.398867656024769,2813.58197548498
-0.413130882424335,2813.59197548499
-0.426237410039529,2813.60197548498
-0.439626286017026,2813.61197548499
-0.453147219710502,2813.62197548498
-0.466416563834406,2813.63197548499
-0.480656819518968,2813.64197548498
-0.494644148834821,2813.65197548499
-0.508161946603144,2813.66197548499
-0.52156674063848,2813.67197548499
-0.534404872876847,2813.68197548499
-0.547167347140296,2813.69197548499
-0.55967451629545,2813.70197548499
-0.572269886618055,2813.71197548499
-0.584255237230273,2813.72197548499
-0.5959329287489,2813.73197548499
-0.607430586595239,2813.74197548499
-0.617996217861802,2813.75197548498
-0.62824445204177,2813.76197548499
-0.638912052182928,2813.77197548498
-0.649911439566013,2813.78197548499
-0.661201995136719,2813.79197548498
-0.672668189195795,2813.80197548499
-0.683843346817563,2813.81197548498
-0.691889612493895,2813.82197548499
-0.694487414495887,2813.83197548498
-0.683917274049775,2813.84197548499
-0.64987880374557,2813.85197548498
-0.585085179322723,2813.86197548499
-0.489917016614733,2813.87197548498
-0.373004514172804,2813.88197548499
-0.248921508349859,2813.89197548498
-0.129277941276884,2813.90197548499
-0.0215592734658642,2813.91197548499
0.0705261389634428,2813.92197548499
0.148205506884374,2813.93197548499
0.21293349495359,2813.94197548499
0.26542830563024,2813.95197548499
0.307278099501417,2813.96197548499
0.338485716443727,2813.97197548499
0.359769267692829,2813.98197548499
0.372220414949962,2813.99197548499
0.37673574395291,2814.00197548498
0.374718567876304,2814.01197548499
0.368245571575895,2814.02197548498
0.358951652563809,2814.03197548499
0.348327230726024,2814.04197548498
0.337028838341316,2814.05197548499
0.325356802985983,2814.06197548498
0.313828748897461,2814.07197548499
0.302649217368836,2814.08197548498
0.292557156401943,2814.09197548499
0.282828338619037,2814.10197548498
0.272314626929748,2814.11197548499
0.260475175074967,2814.12197548498
0.246574457492549,2814.13197548499
0.230167828838815,2814.14197548498
0.211754280293429,2814.15197548499
0.193328941367584,2814.16197548499
0.176340431801088,2814.17197548499
0.162140589575256,2814.18197548499
0.152288437282483,2814.19197548499
0.147737761157689,2814.20197548499
0.147976143093063,2814.21197548499
0.153304604103515,2814.22197548499
0.162622392616703,2814.23197548499
0.174273319125109,2814.24197548499
0.187594477314252,2814.25197548498
0.201310421431367,2814.26197548499
0.214027510111016,2814.27197548498
0.224449546914142,2814.28197548499
0.231401523415032,2814.29197548498
0.23374362040915,2814.30197548499
0.232428648902895,2814.31197548498
0.227170524576038,2814.32197548499
0.218893289711039,2814.33197548498
0.208471040528861,2814.34197548499
0.19613128800607,2814.35197548498
0.182832712561744,2814.36197548499
0.168477943646482,2814.37197548498
0.153232919397426,2814.38197548499
0.138039969462726,2814.39197548498
0.122052968983912,2814.40197548499
0.106014732241779,2814.41197548499
0.0903742067959441,2814.42197548499
0.0750732464174813,2814.43197548499
0.0600439586260892,2814.44197548499
0.0452485431388008,2814.45197548499
0.0300580391773121,2814.46197548499
0.0146961993852565,2814.47197548499
-0.000889825866648252,2814.48197548499
-0.0171077543727491,2814.49197548499
-0.0334998113406983,2814.50197548498
-0.0499319910182064,2814.51197548499
-0.066080670149323,2814.52197548498
-0.0813401141087348,2814.53197548499
-0.0966799022465761,2814.54197548498
-0.111271550925726,2814.55197548499
-0.125536515504017,2814.56197548498
-0.139860607699151,2814.57197548499
-0.154339639853319,2814.58197548498
-0.169316048647716,2814.59197548499
-0.184658173463887,2814.60197548498
-0.200296909768474,2814.61197548499
-0.216010611995043,2814.62197548498
-0.230562793049291,2814.63197548499
-0.245517135848246,2814.64197548498
-0.259894835607164,2814.65197548499
-0.274590900719138,2814.66197548499
-0.28926971134029,2814.67197548499
-0.303680922251835,2814.68197548499
-0.317456195254472,2814.69197548499
-0.331375079181531,2814.70197548499
-0.345292288161461,2814.71197548499
-0.359322824405495,2814.72197548499
-0.373532006872959,2814.73197548499
-0.387602090546648,2814.74197548499
-0.401342413007601,2814.75197548498
-0.414170755208212,2814.76197548499
-0.426775924525192,2814.77197548498
-0.439471730658615,2814.78197548499
-0.452482231163055,2814.79197548498
-0.466213119377597,2814.80197548499
-0.480173745612695,2814.81197548498
-0.493867481453217,2814.82197548499
-0.50694898361818,2814.83197548498
-0.519223012947647,2814.84197548499
-0.531644018493312,2814.85197548498
-0.543444571952154,2814.86197548499
-0.555100619024302,2814.87197548498
-0.566538973904088,2814.88197548499
-0.578160485102152,2814.89197548498
-0.58960096528861,2814.90197548499
-0.600417053981855,2814.91197548499
-0.610969298814334,2814.92197548499
-0.621237582842247,2814.93197548499
-0.632363300878592,2814.94197548499
-0.643772259316333,2814.95197548499
-0.655937280778604,2814.96197548499
-0.668218649401762,2814.97197548499
-0.679214736683163,2814.98197548499
-0.686802001263543,2814.99197548499
-0.686124432890477,2815.00197548498
-0.668330484274328,2815.01197548499
-0.621687217169347,2815.02197548498
-0.541584044517153,2815.03197548499
-0.43256362403976,2815.04197548498
-0.306704426709182,2815.05197548499
-0.179347960272084,2815.06197548498
-0.0601083827593134,2815.07197548499
0.0437751191730541,2815.08197548498
0.131720268070753,2815.09197548499
0.20529582403334,2815.10197548498
0.26600949420302,2815.11197548499
0.31491918105269,2815.12197548498
0.353115319425884,2815.13197548499
0.380608894293342,2815.14197548498
0.398694659486751,2815.15197548499
0.40833224519243,2815.16197548499
0.411295773523203,2815.17197548499
0.408557047004882,2815.18197548499
0.402310561987231,2815.19197548499
0.392804684533872,2815.20197548499
0.382189073306067,2815.21197548499
0.370881811596821,2815.22197548499
0.359336501894765,2815.23197548499
0.348518715466542,2815.24197548499
0.338256753705236,2815.25197548498
0.328666580232217,2815.26197548499
0.318558278382766,2815.27197548498
0.307863702591733,2815.28197548499
0.29539759287179,2815.29197548498
0.279691515398779,2815.30197548499
0.261802998587843,2815.31197548498
0.2426712757243,2815.32197548499
0.224429583312251,2815.33197548498
0.209103146636555,2815.34197548499
0.197272652883134,2815.35197548498
0.19052476364186,2815.36197548499
0.188812061828946,2815.37197548498
0.192076071665998,2815.38197548499
0.199431966591206,2815.39197548498
0.210287531598485,2815.40197548499
0.22305266179077,2815.41197548499
0.236679051160099,2815.42197548499
0.249438385070491,2815.43197548499
0.260405992623599,2815.44197548499
0.267995684402765,2815.45197548499
0.272439551966573,2815.46197548499
0.273654671130457,2815.47197548499
0.271752440322779,2815.48197548499
0.267516456863538,2815.49197548499
0.260432001385938,2815.50197548498
0.250940463571035,2815.51197548499
0.240007137414937,2815.52197548498
0.227284723703487,2815.53197548499
0.214115952157872,2815.54197548498
0.199382111473764,2815.55197548499
0.184377785385011,2815.56197548498
0.168773511261011,2815.57197548499
0.15283317000348,2815.58197548498
0.136886248214564,2815.59197548499
0.120562958313608,2815.60197548498
0.104450333529484,2815.61197548499
0.0886104739366659,2815.62197548498
0.0732996921310219,2815.63197548499
0.0581777733470002,2815.64197548498
0.0429625604611332,2815.65197548499
0.0274270337942115,2815.66197548499
0.0114437008037679,2815.67197548499
-0.00528923625760792,2815.68197548499
-0.0217504426710754,2815.69197548499
-0.0374980403432974,2815.70197548499
-0.0531194446722043,2815.71197548499
-0.0679732479934422,2815.72197548499
-0.0827151279666121,2815.73197548499
-0.0972677293566782,2815.74197548499
-0.111712170080549,2815.75197548498
-0.126589806964723,2815.76197548499
-0.14095443897134,2815.77197548498
-0.155152845774524,2815.78197548499
-0.16852467159361,2815.79197548498
-0.181520823831939,2815.80197548499
-0.19438839162855,2815.81197548498
-0.20745657184197,2815.82197548499
-0.220730545519233,2815.83197548498
-0.234421239550934,2815.84197548499
-0.248985711198778,2815.85197548498
-0.263065784886199,2815.86197548499
-0.276863967180674,2815.87197548498
-0.289895746971577,2815.88197548499
-0.302706026059301,2815.89197548498
-0.315533077716009,2815.90197548499
-0.328122827448911,2815.91197548499
-0.340743628197031,2815.92197548499
-0.353589115470729,2815.93197548499
-0.366935522993285,2815.94197548499
-0.379705884908114,2815.95197548499
-0.392577519743378,2815.96197548499
-0.404990402674802,2815.97197548499
-0.417502091717606,2815.98197548499
-0.430168155274871,2815.99197548499
-0.442711983845434,2816.00197548498
-0.454671874461336,2816.01197548499
-0.465964298857403,2816.02197548498
-0.47656036660338,2816.03197548499
-0.486633020982407,2816.04197548498
-0.496556087807538,2816.05197548499
-0.505630903179707,2816.06197548498
-0.514971663427833,2816.07197548499
-0.52387547515806,2816.08197548498
-0.532067840911109,2816.09197548499
-0.540527098827253,2816.10197548498
-0.548234349869818,2816.11197548499
-0.556047436723912,2816.12197548498
-0.563206134818812,2816.13197548499
-0.568773288625986,2816.14197548498
-0.572330537728431,2816.15197548499
-0.568953696168984,2816.16197548499
-0.551371692294866,2816.17197548499
-0.509726596821584,2816.18197548499
-0.438045451514928,2816.19197548499
-0.338908035861785,2816.20197548499
-0.222470705023898,2816.21197548499
-0.101020678126905,2816.22197548499
0.0154595302440705,2816.23197548499
0.119649267234349,2816.24197548499
0.209851820897559,2816.25197548498
0.286398421782172,2816.26197548499
0.350244203974018,2816.27197548498
0.402439457412434,2816.28197548499
0.443794067522649,2816.29197548498
0.474379111459253,2816.30197548499
0.49477146463213,2816.31197548498
0.50591386114726,2816.32197548499
0.509887917728324,2816.33197548498
0.507950535185174,2816.34197548499
0.502242599517551,2816.35197548498
0.493579158033863,2816.36197548499
0.483093337362563,2816.37197548498
0.47192815755987,2816.38197548499
0.460490297926353,2816.39197548498
0.449534131549174,2816.40197548499
0.439423266646467,2816.41197548499
0.430416108866483,2816.42197548499
0.421714386806655,2816.43197548499
0.41228959752533,2816.44197548499
0.401464200515492,2816.45197548499
0.388570512618777,2816.46197548499
0.373182585188655,2816.47197548499
0.356271856506367,2816.48197548499
0.338844613648368,2816.49197548499
0.323219032582225,2816.50197548498
0.310986184812951,2816.51197548499
0.303405537995808,2816.52197548498
0.300914250877366,2816.53197548499
0.303671073667791,2816.54197548498
0.310728267014506,2816.55197548499
0.321005743218736,2816.56197548498
0.333400657723873,2816.57197548499
0.346802148594723,2816.58197548498
0.360257099915681,2816.59197548499
0.372502958174681,2816.60197548498
0.382407789828996,2816.61197548499
0.389793265189342,2816.62197548498
0.394175942196886,2816.63197548499
0.394823915954022,2816.64197548498
0.392228307058508,2816.65197548499
0.386286399149107,2816.66197548499
0.377871273412313,2816.67197548499
0.367374783180115,2816.68197548499
0.355327959769101,2816.69197548499
0.342452761750445,2816.70197548499
0.328565632961154,2816.71197548499
0.31408552771821,2816.72197548499
0.298746010782252,2816.73197548499
0.283389286744531,2816.74197548499
0.267777326578158,2816.75197548498
0.252825553393066,2816.76197548499
0.237820252175153,2816.77197548498
0.223234013120688,2816.78197548499
0.209199478197382,2816.79197548498
0.193815685067649,2816.80197548499
0.178473775607824,2816.81197548498
0.162763205641751,2816.82197548499
0.146879206678763,2816.83197548498
0.131470955829662,2816.84197548499
0.115956481013721,2816.85197548498
0.100769901533035,2816.86197548499
0.0859653207566093,2816.87197548498
0.0708904644842838,2816.88197548499
0.0556372432731813,2816.89197548498
0.0401128099428086,2816.90197548499
0.0248064778239451,2816.91197548499
0.00964968101473635,2816.92197548499
-0.00531916927667142,2816.93197548499
-0.0196317701032114,2816.94197548499
-0.0339961522849367,2816.95197548499
-0.0480921804250098,2816.96197548499
-0.061909922071824,2816.97197548499
-0.0765074906267963,2816.98197548499
-0.09109531251908,2816.99197548499
-0.10555180548287,2817.00197548498
-0.120446063666234,2817.01197548499
-0.134265874959484,2817.02197548498
-0.148123477493698,2817.03197548499
-0.161928939802683,2817.04197548498
-0.175175214158206,2817.05197548499
-0.189259153824622,2817.06197548498
-0.202975716684766,2817.07197548499
-0.216519007719087,2817.08197548498
-0.229614260231413,2817.09197548499
-0.243115615100722,2817.10197548498
-0.256227242847651,2817.11197548499
-0.268996002224116,2817.12197548498
-0.28200220864044,2817.13197548499
-0.294114317393424,2817.14197548498
-0.307014107866763,2817.15197548499
-0.319966130492471,2817.16197548499
-0.332763349162804,2817.17197548499
-0.345535555336385,2817.18197548499
-0.358181563560419,2817.19197548499
-0.370862923818342,2817.20197548499
-0.383434104654236,2817.21197548499
-0.396411382769296,2817.22197548499
-0.408985162922564,2817.23197548499
-0.420162420372283,2817.24197548499
-0.427262399700983,2817.25197548498
-0.424102173506091,2817.26197548499
-0.401233687895852,2817.27197548498
-0.350290567378226,2817.28197548499
-0.270352374937939,2817.29197548498
-0.167724058452765,2817.30197548499
-0.0537860257281436,2817.31197548498
0.0601057221192616,2817.32197548499
0.167598862120797,2817.33197548498
0.264326744390038,2817.34197548499
0.349067206315232,2817.35197548498
0.422408325473403,2817.36197548499
0.483615472688024,2817.37197548498
0.533626929579795,2817.38197548499
0.572009782896761,2817.39197548498
0.599584106736938,2817.40197548499
0.61706411260158,2817.41197548499
0.62550281152612,2817.42197548499
0.627795887875972,2817.43197548499
0.624478522011945,2817.44197548499
0.618115578463769,2817.45197548499
0.609491729975432,2817.46197548499
0.599863416987041,2817.47197548499
0.590209482250105,2817.48197548499
0.579996467852172,2817.49197548499
0.569758048883984,2817.50197548498
0.559446151445219,2817.51197548499
0.549308134620162,2817.52197548498
0.538244544316579,2817.53197548499
0.526317834108612,2817.54197548498
0.511979569210104,2817.55197548499
0.495000295202391,2817.56197548498
0.476298354324691,2817.57197548499
0.456069939782455,2817.58197548498
0.437073057236089,2817.59197548499
0.420928429329537,2817.60197548498
0.409987725673554,2817.61197548499
0.404311537207035,2817.62197548498
0.404600884749207,2817.63197548499
0.410458304081397,2817.64197548498
0.420290815957037,2817.65197548499
0.432882337128021,2817.66197548499
0.446841198090129,2817.67197548499
0.46062802019694,2817.68197548499
0.473845289148766,2817.69197548499
0.484583861081137,2817.70197548499
0.492505934051671,2817.71197548499
0.49625166392974,2817.72197548499
0.496012731454534,2817.73197548499
0.492373857010305,2817.74197548499
0.485471256841836,2817.75197548498
0.476343109414349,2817.76197548499
0.465219017686937,2817.77197548498
0.453124193732374,2817.78197548499
0.44056250138938,2817.79197548498
0.427634857805881,2817.80197548499
0.414100313504192,2817.81197548498
0.400016060041574,2817.82197548499
0.385033738858089,2817.83197548498
0.370104926596042,2817.84197548499
0.355201229029162,2817.85197548498
0.339786693834523,2817.86197548499
0.324272497308892,2817.87197548498
0.308603524113934,2817.88197548499
0.293536105542654,2817.89197548498
0.278636029223985,2817.90197548499
0.263571833713185,2817.91197548499
0.248576056950689,2817.92197548499
0.23293160784216,2817.93197548499
0.217686747106961,2817.94197548499
0.202337604817561,2817.95197548499
0.187280566384473,2817.96197548499
0.17199814736511,2817.97197548499
0.156636266221903,2817.98197548499
0.141645132102988,2817.99197548499
0.127040146416762,2818.00197548498
0.112415043904454,2818.01197548499
0.0979569519281962,2818.02197548498
0.0835991438340741,2818.03197548499
0.0686443666551408,2818.04197548498
0.0535220815077597,2818.05197548499
0.0385870789505362,2818.06197548498
0.0235091833608485,2818.07197548499
0.00903658933307774,2818.08197548498
-0.00530344281584241,2818.09197548499
-0.0194092198020778,2818.10197548498
-0.0335144071819003,2818.11197548499
-0.0469501737122865,2818.12197548498
-0.0606561366662201,2818.13197548499
-0.0739379465991334,2818.14197548498
-0.0872896177479953,2818.15197548499
-0.10095039603286,2818.16197548499
-0.115031718783837,2818.17197548499
-0.128851867556836,2818.18197548499
-0.142771496543187,2818.19197548499
-0.157104948154451,2818.20197548499
-0.171877706206533,2818.21197548499
-0.186931669849905,2818.22197548499
-0.201013395459593,2818.23197548499
-0.211935014897552,2818.24197548499
-0.214698243178813,2818.25197548498
-0.200867510340929,2818.26197548499
-0.162027877427252,2818.27197548498
-0.095276722648391,2818.28197548499
-0.00423860312834594,2818.29197548498
0.101180012024938,2818.30197548499
0.211672177110195,2818.31197548498
0.319849782749476,2818.32197548499
0.421265135367335,2818.33197548498
0.512657095451117,2818.34197548499
0.593300937370296,2818.35197548498
0.662553517532648,2818.36197548499
0.719506539686351,2818.37197548498
0.764338831121508,2818.38197548499
0.797402566806682,2818.39197548498
0.820154748387121,2818.40197548499
0.833690909564695,2818.41197548499
0.838854776521651,2818.42197548499
0.837903996747327,2818.43197548499
0.831953008078576,2818.44197548499
0.822511400330227,2818.45197548499
0.811700600079931,2818.46197548499
0.800097508619175,2818.47197548499
0.788638430632522,2818.48197548499
0.777310555120661,2818.49197548499
0.766035556774436,2818.50197548498
0.754877552804558,2818.51197548499
0.743034730291501,2818.52197548498
0.729045367266837,2818.53197548499
0.712414214964745,2818.54197548498
0.692757836781068,2818.55197548499
0.670651653402,2818.56197548498
0.648645637983929,2818.57197548499
0.628824127979498,2818.58197548498
0.613472678849352,2818.59197548499
0.603023340956067,2818.60197548498
0.597640962137657,2818.61197548499
0.596982768708573,2818.62197548498
0.600451716661284,2818.63197548499
0.607043215920609,2818.64197548498
0.616621339446611,2818.65197548499
0.627980567030042,2818.66197548499
0.639934775493941,2818.67197548499
0.651420432283802,2818.68197548499
0.659810087837398,2818.69197548499
0.66508328819668,2818.70197548499
0.666329456255062,2818.71197548499
0.663673626614021,2818.72197548499
0.657896996790448,2818.73197548499
0.649654543119948,2818.74197548499
0.638718768370189,2818.75197548498
0.626403743523682,2818.76197548499
0.61210579313127,2818.77197548498
0.596937833421752,2818.78197548499
0.58125496840026,2818.79197548498
0.565336996357411,2818.80197548499
0.549253241039611,2818.81197548498
0.532983784315107,2818.82197548499
0.516856678833966,2818.83197548498
0.500892276632441,2818.84197548499
0.484823824346471,2818.85197548498
0.469410503722934,2818.86197548499
0.453657926429569,2818.87197548498
0.438322705865333,2818.88197548499
0.423581929075061,2818.89197548498
0.408825373390947,2818.90197548499
0.393680835956988,2818.91197548499
0.37834772431479,2818.92197548499
0.362682748397495,2818.93197548499
0.347232554004077,2818.94197548499
0.332113895573763,2818.95197548499
0.317229263034944,2818.96197548499
0.30233928597636,2818.97197548499
0.287163914094425,2818.98197548499
0.27220321271623,2818.99197548499
0.257253523088291,2819.00197548498
0.242866132494706,2819.01197548499
0.228428325945513,2819.02197548498
0.214164329428816,2819.03197548499
0.200106088704877,2819.04197548498
0.186032157410614,2819.05197548499
0.172177432258687,2819.06197548498
0.15783405084636,2819.07197548499
0.143828188149123,2819.08197548498
0.129736442373355,2819.09197548499
0.115159804720937,2819.10197548498
0.100732439763359,2819.11197548499
0.0869984297262692,2819.12197548498
0.0740452604978134,2819.13197548499
0.0611739876912606,2819.14197548498
0.0496474211309187,2819.15197548499
0.0384953388517591,2819.16197548499
0.0274685595399889,2819.17197548499
0.0164254404819419,2819.18197548499
0.00513500833766374,2819.19197548499
-0.00712003858733307,2819.20197548499
-0.0198189664582988,2819.21197548499
-0.0323265600551567,2819.22197548499
-0.0429537573317107,2819.23197548499
-0.0479494896254048,2819.24197548499
-0.0397800821106946,2819.25197548498
-0.0122925156667696,2819.26197548499
0.0383419464536484,2819.27197548498
0.110279928648754,2819.28197548499
0.198144477354105,2819.29197548498
0.295109758396208,2819.30197548499
0.395328706564532,2819.31197548498
0.493828185200098,2819.32197548499
0.586849043888237,2819.33197548498
0.671690502987155,2819.34197548499
0.745273511895528,2819.35197548498
0.807113689657393,2819.36197548499
0.855551498213404,2819.37197548498
0.890184201853705,2819.38197548499
0.913031228300718,2819.39197548498
0.925401722524823,2819.40197548499
0.92977058794568,2819.41197548499
0.928973220701687,2819.42197548499
0.924737971957118,2819.43197548499
0.91825677366102,2819.44197548499
0.911006855307743,2819.45197548499
0.903317289298109,2819.46197548499
0.895468365434701,2819.47197548499
0.888253966546221,2819.48197548499
0.881633011303006,2819.49197548499
0.875288905447588,2819.50197548498
0.869080181340661,2819.51197548499
0.861381544837212,2819.52197548498
0.851108530952489,2819.53197548499
0.838087125577232,2819.54197548498
0.822444200034205,2819.55197548499
0.80502989930559,2819.56197548498
0.787375871209794,2819.57197548499
0.771201412201516,2819.58197548498
0.757878331957218,2819.59197548499
0.748645379827417,2819.60197548498
0.743488666465093,2819.61197548499
0.742364322459302,2819.62197548498
0.744324391502146,2819.63197548499
0.748827914757769,2819.64197548498
0.755263571321646,2819.65197548499
0.76223136725668,2819.66197548499
0.768987265780726,2819.67197548499
0.774248087350132,2819.68197548499
0.77733506681808,2819.69197548499
0.777817048373196,2819.70197548499
0.775174454662399,2819.71197548499
0.770295593127746,2819.72197548499
0.761980471256795,2819.73197548499
0.751555800144701,2819.74197548499
0.738783720172387,2819.75197548498
0.724955128944634,2819.76197548499
0.710433264436428,2819.77197548498
0.69586831643806,2819.78197548499
0.681542081591561,2819.79197548498
0.667508803345848,2819.80197548499
0.653408750605795,2819.81197548498
0.639584923252168,2819.82197548499
0.625572062402722,2819.83197548498
0.611749199954123,2819.84197548499
0.598102498795313,2819.85197548498
0.584671374447046,2819.86197548499
0.571163991127891,2819.87197548498
0.556980304472029,2819.88197548499
0.541790811624192,2819.89197548498
0.525526269623191,2819.90197548499
0.508947140432104,2819.91197548499
0.491853295553072,2819.92197548499
0.47517114356813,2819.93197548499
0.458419906831159,2819.94197548499
0.441509497808054,2819.95197548499
0.423924758433611,2819.96197548499
0.40594505668777,2819.97197548499
0.387416833231673,2819.98197548499
0.3684335784055,2819.99197548499
0.349728000370632,2820.00197548498
0.330829037575964,2820.01197548499
0.312136695816279,2820.02197548498
0.292470563064073,2820.03197548499
0.2725754273925,2820.04197548498
0.25235126923981,2820.05197548499
0.232072218400054,2820.06197548498
0.211922600965075,2820.07197548499
0.191688763493783,2820.08197548498
0.171235865551157,2820.09197548499
0.150390025175405,2820.10197548498
0.12912199814313,2820.11197548499
0.108328954240572,2820.12197548498
0.0882065680693182,2820.13197548499
0.069118221070245,2820.14197548498
0.050542918248224,2820.15197548499
0.0325713561566944,2820.16197548499
0.0150362266279664,2820.17197548499
-0.00232851657934545,2820.18197548499
-0.0198498644535973,2820.19197548499
-0.0361151537170106,2820.20197548499
-0.0520917193332963,2820.21197548499
-0.0678466117981986,2820.22197548499
-0.0837858101697912,2820.23197548499
-0.100316334603685,2820.24197548499
-0.116982046466591,2820.25197548498
-0.133371367570318,2820.26197548499
-0.149255679351886,2820.27197548498
-0.164752136900232,2820.28197548499
-0.180354313605207,2820.29197548498
-0.196060429345748,2820.30197548499
-0.211646873219998,2820.31197548498
-0.22698329237539,2820.32197548499
-0.242724077443397,2820.33197548498
-0.25812986036577,2820.34197548499
-0.273953578162861,2820.35197548498
-0.290627597978798,2820.36197548499
-0.308095195016154,2820.37197548498
-0.326106969582044,2820.38197548499
-0.344194033654795,2820.39197548498
-0.359977368883386,2820.40197548499
-0.368804147053805,2820.41197548499
-0.364580118228463,2820.42197548499
-0.342102844129955,2820.43197548499
-0.30030816237274,2820.44197548499
-0.242510748782654,2820.45197548499
-0.175260806830224,2820.46197548499
-0.105167496532069,2820.47197548499
-0.0367040595338897,2820.48197548499
0.0270284239206901,2820.49197548499
0.0844827754195049,2820.50197548498
0.134158814848486,2820.51197548499
0.175487065304464,2820.52197548498
0.20762937038661,2820.53197548499
0.230725605149503,2820.54197548498
0.245090713291649,2820.55197548499
0.252642813156205,2820.56197548498
0.254756964929762,2820.57197548499
0.252541816037498,2820.58197548498
0.246414012465684,2820.59197548499
0.238526911093082,2820.60197548498
0.22975626315871,2820.61197548499
0.220648469518319,2820.62197548498
0.2113151358399,2820.63197548499
0.2026077482357,2820.64197548498
0.19474947475669,2820.65197548499
0.187699464736321,2820.66197548499
0.18124814244573,2820.67197548499
0.174630398401759,2820.68197548499
0.167645689109616,2820.69197548499
0.159300214435218,2820.70197548499
0.148657674007018,2820.71197548499
0.136186325749652,2820.72197548499
0.122587798180749,2820.73197548499
0.109375283567131,2820.74197548499
0.0975115749305435,2820.75197548498
0.0882533892720461,2820.76197548499
0.082246111778823,2820.77197548498
0.0793008921859475,2820.78197548499
0.0790460402942573,2820.79197548498
0.0799881789667108,2820.80197548499
0.0833248536670488,2820.81197548498
0.0869896274440643,2820.82197548499
0.0906514607259985,2820.83197548498
0.0944654921798413,2820.84197548499
0.0971430704474956,2820.85197548498
0.098478902105496,2820.86197548499
0.0971753534185401,2820.87197548498
0.0940041497253803,2820.88197548499
0.0886454906409734,2820.89197548498
0.0816577121835971,2820.90197548499
0.0729783469503591,2820.91197548499
0.0628938927251595,2820.92197548499
0.052024782865815,2820.93197548499
0.0399932095822167,2820.94197548499
0.0270354868552743,2820.95197548499
0.0139567191479377,2820.96197548499
0.000664830073032704,2820.97197548499
-0.0129406538776246,2820.98197548499
-0.0262277696879837,2820.99197548499
-0.0391965149254364,2821.00197548498
-0.0525778252131226,2821.01197548499
-0.0661381330366703,2821.02197548498
-0.0793816052293821,2821.03197548499
-0.0928659823853338,2821.04197548498
-0.106049800203543,2821.05197548499
-0.119259024468883,2821.06197548498
-0.132822633478179,2821.07197548499
-0.146194059385528,2821.08197548498
-0.159781069862931,2821.09197548499
-0.173250843887836,2821.10197548498
-0.186300668176218,2821.11197548499
-0.199182108069699,2821.12197548498
-0.2124128686946,2821.13197548499
-0.225237378624666,2821.14197548498
-0.238490515109255,2821.15197548499
-0.251642368433364,2821.16197548499
-0.264468004317191,2821.17197548499
-0.277678018447657,2821.18197548499
-0.290870340154363,2821.19197548499
-0.303784915160093,2821.20197548499
-0.316635971101456,2821.21197548499
-0.329540716998294,2821.22197548499
-0.342568845832003,2821.23197548499
-0.355862359972401,2821.24197548499
-0.369052369076238,2821.25197548498
-0.381944245619818,2821.26197548499
-0.395197276679207,2821.27197548498
-0.408588539906235,2821.28197548499
-0.422143287065484,2821.29197548498
-0.435754556168718,2821.30197548499
-0.448564047570288,2821.31197548498
-0.461018378416063,2821.32197548499
-0.473504761062525,2821.33197548498
-0.485837360177198,2821.34197548499
-0.498065550631807,2821.35197548498
-0.510688598722481,2821.36197548499
-0.523705015664347,2821.37197548498
-0.536542407162611,2821.38197548499
-0.548745436092148,2821.39197548498
-0.558337571215114,2821.40197548499
-0.561082649517071,2821.41197548499
-0.554222762766534,2821.42197548499
-0.533472056840979,2821.43197548499
-0.498788085585006,2821.44197548499
-0.453500366997881,2821.45197548499
-0.401409094253401,2821.46197548499
-0.347841404553489,2821.47197548499
-0.297343226512335,2821.48197548499
-0.251166316248931,2821.49197548499
-0.21077594684,2821.50197548498
-0.177272625006701,2821.51197548499
-0.150250337857164,2821.52197548498
-0.12940054295302,2821.53197548499
-0.114372494292008,2821.54197548498
-0.104378450013377,2821.55197548499
-0.0988499376742407,2821.56197548498
-0.0973338746630515,2821.57197548499
-0.0992280938662336,2821.58197548498
-0.103559737840111,2821.59197548499
-0.110086636262906,2821.60197548498
-0.116858508385422,2821.61197548499
-0.124084193743873,2821.62197548498
-0.130333664365147,2821.63197548499
-0.136050482284552,2821.64197548498
-0.14090716447499,2821.65197548499
-0.145752898311246,2821.66197548499
-0.151210295025941,2821.67197548499
-0.157599945806288,2821.68197548499
-0.165618277052661,2821.69197548499
-0.174923677787537,2821.70197548499
-0.186002130877923,2821.71197548499
-0.197721734610188,2821.72197548499
-0.209016959109246,2821.73197548499
-0.218834730913259,2821.74197548499
-0.225635339064986,2821.75197548498
-0.228993537202633,2821.76197548499
-0.229160096808927,2821.77197548498
-0.227087996190416,2821.78197548499
-0.223467374339573,2821.79197548498
-0.218677831490233,2821.80197548499
-0.214078538660072,2821.81197548498
-0.209130891098827,2821.82197548499
-0.204704139087132,2821.83197548498
-0.201434385974539,2821.84197548499
-0.199992408942168,2821.85197548498
-0.20012700086267,2821.86197548499
-0.202391133270728,2821.87197548498
-0.205941868086328,2821.88197548499
-0.211148342320695,2821.89197548498
-0.217551112982549,2821.90197548499
-0.225287838586335,2821.91197548499
-0.233795973604853,2821.92197548499
-0.242351248884447,2821.93197548499
-0.250981772966114,2821.94197548499
-0.259192451346575,2821.95197548499
-0.267129706646369,2821.96197548499
-0.275097624621512,2821.97197548499
-0.282869071317458,2821.98197548499
-0.291258678906023,2821.99197548499
-0.300800397219536,2822.00197548498
-0.310647720676721,2822.01197548499
-0.320842609042607,2822.02197548498
-0.330982110391593,2822.03197548499
-0.340420267029681,2822.04197548498
-0.349704719017974,2822.05197548499
-0.358165092557798,2822.06197548498
-0.366482831670545,2822.07197548499
-0.375322155240831,2822.08197548498
-0.384427491842547,2822.09197548499
-0.394464633329701,2822.10197548498
-0.405013796305933,2822.11197548499
-0.415125814235291,2822.12197548498
-0.425373936566496,2822.13197548499
-0.434999972251474,2822.14197548498
-0.444852074027931,2822.15197548499
-0.454181703744173,2822.16197548499
-0.463243047363826,2822.17197548499
-0.472479993102157,2822.18197548499
-0.48189472271218,2822.19197548499
-0.492250050433358,2822.20197548499
-0.502466072209856,2822.21197548499
-0.512847892758221,2822.22197548499
-0.523330664281356,2822.23197548499
-0.533375706342739,2822.24197548499
-0.543700723820386,2822.25197548498
-0.554254594034874,2822.26197548499
-0.564737544564025,2822.27197548498
-0.57499868591182,2822.28197548499
-0.585194461990894,2822.29197548498
-0.595410898589676,2822.30197548499
-0.605568978177315,2822.31197548498
-0.61588293717043,2822.32197548499
-0.625764020043201,2822.33197548498
-0.63561578190582,2822.34197548499
-0.645683282203595,2822.35197548498
-0.655714634997349,2822.36197548499
-0.664617025187376,2822.37197548498
-0.671479255118721,2822.38197548499
-0.671516604220055,2822.39197548498
-0.661048804309819,2822.40197548499
-0.636818763344073,2822.41197548499
-0.598716966319003,2822.42197548499
-0.549368774007978,2822.43197548499
-0.493745249457095,2822.44197548499
-0.437118443663337,2822.45197548499
-0.382505937881912,2822.46197548499
-0.332265142070154,2822.47197548499
-0.286810329350508,2822.48197548499
-0.247252223470887,2822.49197548499
-0.214497954749053,2822.50197548498
-0.188346651551584,2822.51197548499
-0.169117409735414,2822.52197548498
-0.156528361846893,2822.53197548499
-0.149448127956147,2822.54197548498
-0.146810742995735,2822.55197548499
-0.147353836349872,2822.56197548498
-0.14992005959485,2822.57197548499
-0.153319554102176,2822.58197548498
-0.156704802507671,2822.59197548499
-0.159982730092275,2822.60197548498
-0.162610083993662,2822.61197548499
-0.164536678833031,2822.62197548498
-0.165889787937041,2822.63197548499
-0.166452735363075,2822.64197548498
-0.167374679849691,2822.65197548499
-0.168556911412591,2822.66197548499
-0.172035734183425,2822.67197548499
-0.177291993264012,2822.68197548499
-0.184156520411415,2822.69197548499
-0.192126064622263,2822.70197548499
-0.199821153399144,2822.71197548499
-0.205519399792777,2822.72197548499
-0.207829689235075,2822.73197548499
-0.207704697988158,2822.74197548499
-0.204364865462389,2822.75197548498
-0.198780076336543,2822.76197548499
-0.191322755791703,2822.77197548498
-0.182553073539667,2822.78197548499
-0.17309380574181,2822.79197548498
-0.163425277839038,2822.80197548499
-0.154770171336613,2822.81197548498
-0.146964587892637,2822.82197548499
-0.140868970354672,2822.83197548498
-0.136940169685188,2822.84197548499
-0.134850835589194,2822.85197548498
-0.134913384016056,2822.86197548499
-0.136550311260103,2822.87197548498
-0.139505633264982,2822.88197548499
-0.144074522339619,2822.89197548498
-0.149380472178464,2822.90197548499
-0.155399705994834,2822.91197548499
-0.161824404723962,2822.92197548499
-0.168207665544585,2822.93197548499
-0.174539991718405,2822.94197548499
-0.180950788414482,2822.95197548499
-0.187150292323959,2822.96197548499
-0.19275972931398,2822.97197548499
-0.198659935322979,2822.98197548499
-0.204230973568417,2822.99197548499
-0.209683069897112,2823.00197548498
-0.21493327564547,2823.01197548499
