PPG,time
0.240736794003853,1983.54490188668
0.467320864590312,1983.55490188668
0.399591034943644,1983.56490188668
0.421268101189015,1983.57490188668
0.39395511281575,1983.58490188668
0.39984762624655,1983.59490188668
0.38739443890737,1983.60490188668
0.389143505020576,1983.61490188668
0.384972974338368,1983.62490188668
0.386234293547146,1983.63490188668
0.387057523661662,1983.64490188668
0.38990755728067,1983.65490188668
0.393561008671294,1983.66490188668
0.396978699281879,1983.67490188668
0.400463957243723,1983.68490188668
0.402816540527533,1983.69490188668
0.404294761856523,1983.70490188668
0.405308743369495,1983.71490188668
0.404928533450513,1983.72490188668
0.403268443183879,1983.73490188668
0.400585391646373,1983.74490188668
0.396152839551696,1983.75490188668
0.39008543574161,1983.76490188668
0.382977016499692,1983.77490188668
0.375172609958955,1983.78490188668
0.366732498241609,1983.79490188668
0.357529861048807,1983.80490188668
0.347434701577934,1983.81490188668
0.337343060636728,1983.82490188668
0.326268902110313,1983.83490188668
0.315303352659735,1983.84490188668
0.304479548468609,1983.85490188668
0.293482443524945,1983.86490188668
0.28247593231529,1983.87490188668
0.271531566127232,1983.88490188668
0.260675328261971,1983.89490188668
0.249909097185101,1983.90490188668
0.239126695971172,1983.91490188668
0.228245576645168,1983.92490188668
0.218271623293059,1983.93490188668
0.208702698804267,1983.94490188668
0.199522739909693,1983.95490188668
0.190924400695979,1983.96490188668
0.182434781267006,1983.97490188668
0.174776513451147,1983.98490188668
0.166868191925659,1983.99490188668
0.15928847322755,1984.00490188668
0.15127416103138,1984.01490188668
0.143205148000147,1984.02490188668
0.135588180483991,1984.03490188668
0.128798226159308,1984.04490188668
0.122309976828429,1984.05490188668
0.116371232254364,1984.06490188668
0.110897408726094,1984.07490188668
0.105162536784112,1984.08490188668
0.0989193195653608,1984.09490188668
0.0921627735343385,1984.10490188668
0.0850518000433836,1984.11490188668
0.0787357610730951,1984.12490188668
0.072821409069725,1984.13490188668
0.0671524018359188,1984.14490188668
0.0626363596012948,1984.15490188668
0.0573190494938397,1984.16490188668
0.0518586924656745,1984.17490188668
0.0463597949764387,1984.18490188668
0.0402025110583853,1984.19490188668
0.0341116174689553,1984.20490188668
0.0294597817736106,1984.21490188668
0.0278105430862134,1984.22490188668
0.0325222419484568,1984.23490188668
0.0448724372584851,1984.24490188668
0.0665647440330267,1984.25490188668
0.0978949858655254,1984.26490188668
0.137176997306451,1984.27490188668
0.183379311174275,1984.28490188668
0.233342447861601,1984.29490188668
0.283989930245459,1984.30490188668
0.331994917748732,1984.31490188668
0.375630886564724,1984.32490188668
0.412427018027017,1984.33490188668
0.441445564800005,1984.34490188668
0.463650784935812,1984.35490188668
0.47811815654693,1984.36490188668
0.487203502915344,1984.37490188668
0.490632769194645,1984.38490188668
0.489804402241697,1984.39490188668
0.485871699088471,1984.40490188668
0.478787291135958,1984.41490188668
0.469195410926727,1984.42490188668
0.458248989080394,1984.43490188668
0.446762695040099,1984.44490188668
0.434764398303705,1984.45490188668
0.421942221923656,1984.46490188668
0.409021774738335,1984.47490188668
0.396266504338358,1984.48490188668
0.383605013291584,1984.49490188668
0.370853239490363,1984.50490188668
0.358248137911077,1984.51490188668
0.345472311478248,1984.52490188668
0.332572972525567,1984.53490188668
0.320477522983911,1984.54490188668
0.310402494481129,1984.55490188668
0.302687191828227,1984.56490188668
0.297866528653945,1984.57490188668
0.295649457401406,1984.58490188668
0.296028337476139,1984.59490188668
0.298516679236921,1984.60490188668
0.302629156632479,1984.61490188668
0.307680484516366,1984.62490188668
0.313787019125881,1984.63490188668
0.320609738987691,1984.64490188668
0.326820239970963,1984.65490188668
0.332389043926373,1984.66490188668
0.336800419307803,1984.67490188668
0.339629371207669,1984.68490188668
0.341007020687655,1984.69490188668
0.340653474617089,1984.70490188668
0.339218253672304,1984.71490188668
0.336384640864891,1984.72490188668
0.332485893262818,1984.73490188668
0.327397432817833,1984.74490188668
0.32151167984125,1984.75490188668
0.314180240260464,1984.76490188668
0.306072367784833,1984.77490188668
0.297459706915431,1984.78490188668
0.287944967962713,1984.79490188668
0.278565953527093,1984.80490188668
0.268591679668591,1984.81490188668
0.259044151082403,1984.82490188668
0.249576301342495,1984.83490188668
0.239624961938715,1984.84490188668
0.230127113129616,1984.85490188668
0.220565177780021,1984.86490188668
0.211940040758178,1984.87490188668
0.203083440764136,1984.88490188668
0.194842784586117,1984.89490188668
0.186840939739067,1984.90490188668
0.179361319583263,1984.91490188668
0.172548223672719,1984.92490188668
0.165980326107042,1984.93490188668
0.160004849264285,1984.94490188668
0.154462219836237,1984.95490188668
0.149261735872739,1984.96490188668
0.144194271543344,1984.97490188668
0.138433822300234,1984.98490188668
0.132535239057731,1984.99490188668
0.126490148296355,1985.00490188668
0.120976601359129,1985.01490188668
0.115594675223244,1985.02490188668
0.111234297345745,1985.03490188668
0.10725716334363,1985.04490188668
0.103276668552955,1985.05490188668
0.099133403481003,1985.06490188668
0.0947697213775708,1985.07490188668
0.090007569832812,1985.08490188668
0.085152199468345,1985.09490188668
0.0803800413873769,1985.10490188668
0.0749675569629052,1985.11490188668
0.0692548041948018,1985.12490188668
0.0638546430095011,1985.13490188668
0.0602107550931144,1985.14490188668
0.0604341436148087,1985.15490188668
0.066371141386967,1985.16490188668
0.0805829491897703,1985.17490188668
0.104282032585716,1985.18490188668
0.138240042258617,1985.19490188668
0.181783682046496,1985.20490188668
0.23124361214688,1985.21490188668
0.283450195820718,1985.22490188668
0.335783472443519,1985.23490188668
0.384436358190869,1985.24490188668
0.427136923869448,1985.25490188668
0.462807149991646,1985.26490188668
0.491585093914237,1985.27490188668
0.512490518954858,1985.28490188668
0.52667402009335,1985.29490188668
0.534703840304082,1985.30490188668
0.537460445440648,1985.31490188668
0.535985020584273,1985.32490188668
0.530843993615089,1985.33490188668
0.523467662164506,1985.34490188668
0.514568001488108,1985.35490188668
0.504977466327175,1985.36490188668
0.494457636523189,1985.37490188668
0.484612265190157,1985.38490188668
0.47420164657609,1985.39490188668
0.463977715492306,1985.40490188668
0.453277734270999,1985.41490188668
0.442199563818647,1985.42490188668
0.430606777094117,1985.43490188668
0.418888889279624,1985.44490188668
0.407101324495326,1985.45490188668
0.396253348790027,1985.46490188668
0.386054518261304,1985.47490188668
0.376858623315898,1985.48490188668
0.369799791501174,1985.49490188668
0.364720699558347,1985.50490188668
0.36284710384099,1985.51490188668
0.363850995493722,1985.52490188668
0.367227116302759,1985.53490188668
0.372351296833362,1985.54490188668
0.378219166137757,1985.55490188668
0.383691300764131,1985.56490188668
0.389466214917971,1985.57490188668
0.394440099527958,1985.58490188668
0.398365158224324,1985.59490188668
0.40137826752673,1985.60490188668
0.402952809374892,1985.61490188668
0.403599653699945,1985.62490188668
0.403157987078079,1985.63490188668
0.401884653912988,1985.64490188668
0.399440295964712,1985.65490188668
0.395423767146546,1985.66490188668
0.389925275230763,1985.67490188668
0.383434766830222,1985.68490188668
0.376328774329334,1985.69490188668
0.367723154742559,1985.70490188668
0.359028231135294,1985.71490188668
0.349373523932571,1985.72490188668
0.339574350868136,1985.73490188668
0.329581458412336,1985.74490188668
0.319187995767554,1985.75490188668
0.308748505151,1985.76490188668
0.298299900425984,1985.77490188668
0.287401729205257,1985.78490188668
0.277126286758013,1985.79490188668
0.266779068681963,1985.80490188668
0.256865704236042,1985.81490188668
0.247159635093645,1985.82490188668
0.237728156322709,1985.83490188668
0.228525922483681,1985.84490188668
0.219939850883781,1985.85490188668
0.211540727397417,1985.86490188668
0.203624104371798,1985.87490188668
0.19584820196509,1985.88490188668
0.18862375785594,1985.89490188668
0.181564558982994,1985.90490188668
0.174542538712887,1985.91490188668
0.167474219794164,1985.92490188668
0.160795719013226,1985.93490188668
0.154442529191791,1985.94490188668
0.148179634255608,1985.95490188668
0.142225141725336,1985.96490188668
0.136154240576095,1985.97490188668
0.130298588571771,1985.98490188668
0.124020995598431,1985.99490188668
0.117828807108154,1986.00490188668
0.112097695262747,1986.01490188668
0.106298954385944,1986.02490188668
0.100601896314713,1986.03490188668
0.0947766564378704,1986.04490188668
0.0891809870783116,1986.05490188668
0.0827932290051291,1986.06490188668
0.0764480028468793,1986.07490188668
0.0710514651663664,1986.08490188668
0.0685517123255495,1986.09490188668
0.0706891265626621,1986.10490188668
0.0795343702467649,1986.11490188668
0.0972952526244873,1986.12490188668
0.124956366384305,1986.13490188668
0.16321487698761,1986.14490188668
0.210144161115253,1986.15490188668
0.262821166715487,1986.16490188668
0.317627423147002,1986.17490188668
0.371542638981866,1986.18490188668
0.421157999946068,1986.19490188668
0.464147193823398,1986.20490188668
0.499781015438002,1986.21490188668
0.527124577751438,1986.22490188668
0.546954717456143,1986.23490188668
0.559656281716434,1986.24490188668
0.56666353778372,1986.25490188668
0.568979086763883,1986.26490188668
0.568021328881668,1986.27490188668
0.563688427107543,1986.28490188668
0.557350793856458,1986.29490188668
0.549771395936368,1986.30490188668
0.540643267912091,1986.31490188668
0.530974823053083,1986.32490188668
0.520849643195048,1986.33490188668
0.510715555167343,1986.34490188668
0.500591126207585,1986.35490188668
0.490559425270323,1986.36490188668
0.480354138266221,1986.37490188668
0.470425094617592,1986.38490188668
0.460267159388833,1986.39490188668
0.449919450061185,1986.40490188668
0.440048686692982,1986.41490188668
0.430560874462006,1986.42490188668
0.421925027464931,1986.43490188668
0.414279049328615,1986.44490188668
0.408748322043505,1986.45490188668
0.404995380639398,1986.46490188668
0.402781784860836,1986.47490188668
0.402974472216791,1986.48490188668
0.404406098419268,1986.49490188668
0.407336992634592,1986.50490188668
0.410843838107612,1986.51490188668
0.414752632565495,1986.52490188668
0.41835494576061,1986.53490188668
0.421092374025351,1986.54490188668
0.423393937591874,1986.55490188668
0.424167375481937,1986.56490188668
0.423914403622269,1986.57490188668
0.422949171413434,1986.58490188668
0.420888692791346,1986.59490188668
0.417767574698267,1986.60490188668
0.413641298444629,1986.61490188668
0.408136975325818,1986.62490188668
0.401910387153526,1986.63490188668
0.394872544053469,1986.64490188668
0.386073326949674,1986.65490188668
0.377112007723021,1986.66490188668
0.367168784462614,1986.67490188668
0.356839481092121,1986.68490188668
0.345986424044925,1986.69490188668
0.3355460278426,1986.70490188668
0.324740442570402,1986.71490188668
0.313818132795147,1986.72490188668
0.303098453120415,1986.73490188668
0.29241316520846,1986.74490188668
0.281586295991009,1986.75490188668
0.270545366941066,1986.76490188668
0.259629200462801,1986.77490188668
0.249284091379314,1986.78490188668
0.239407768339336,1986.79490188668
0.229655145131078,1986.80490188668
0.219937912617655,1986.81490188668
0.210700860752089,1986.82490188668
0.201666637317763,1986.83490188668
0.19262341706566,1986.84490188668
0.184221024170709,1986.85490188668
0.176098577138448,1986.86490188668
0.167867104779986,1986.87490188668
0.159843013474631,1986.88490188668
0.151895023874055,1986.89490188668
0.144038568616351,1986.90490188668
0.13679932777274,1986.91490188668
0.130007573016885,1986.92490188668
0.12402324303673,1986.93490188668
0.117813895894461,1986.94490188668
0.111493805369864,1986.95490188668
0.10563159944437,1986.96490188668
0.0988232299112259,1986.97490188668
0.092035069828028,1986.98490188668
0.0850713242921517,1986.99490188668
0.0784274052267909,1987.00490188668
0.0720057223259905,1987.01490188668
0.0654475212899467,1987.02490188668
0.0587497591056568,1987.03490188668
0.0516125078318741,1987.04490188668
0.0444307118615089,1987.05490188668
0.0370255980216741,1987.06490188668
0.0317327315239984,1987.07490188668
0.030172213718491,1987.08490188668
0.0345468085326388,1987.09490188668
0.0477302530863124,1987.10490188668
0.071992300832712,1987.11490188668
0.106970177176418,1987.12490188668
0.151947322170986,1987.13490188668
0.204444015096378,1987.14490188668
0.259882648806357,1987.15490188668
0.314889316085658,1987.16490188668
0.366490210263889,1987.17490188668
0.41138385569204,1987.18490188668
0.44939803130578,1987.19490188668
0.479671957281756,1987.20490188668
0.502436494456468,1987.21490188668
0.518338803425596,1987.22490188668
0.527818569848928,1987.23490188668
0.532116852650254,1987.24490188668
0.531380806105971,1987.25490188668
0.52641279341313,1987.26490188668
0.51880117342007,1987.27490188668
0.508793453856161,1987.28490188668
0.498215989960393,1987.29490188668
0.486749698582878,1987.30490188668
0.475188967134467,1987.31490188668
0.463537705937414,1987.32490188668
0.45189568097814,1987.33490188668
0.440365496781413,1987.34490188668
0.429420122503537,1987.35490188668
0.418310313126508,1987.36490188668
0.407500523238595,1987.37490188668
0.395948085634473,1987.38490188668
0.383885013970409,1987.39490188668
0.37181545891821,1987.40490188668
0.360298598422911,1987.41490188668
0.350223898771012,1987.42490188668
0.342162234890841,1987.43490188668
0.33645334048967,1987.44490188668
0.333541779161536,1987.45490188668
0.333278159560477,1987.46490188668
0.335451157971575,1987.47490188668
0.339516375666476,1987.48490188668
0.345263148201123,1987.49490188668
0.350848771726004,1987.50490188668
0.356385902759813,1987.51490188668
0.360891997746576,1987.52490188668
0.364174172695331,1987.53490188668
0.366188653166584,1987.54490188668
0.367731291060425,1987.55490188668
0.367675842600765,1987.56490188668
0.366381826726816,1987.57490188668
0.364383882022839,1987.58490188668
0.360942985155971,1987.59490188668
0.356142018341642,1987.60490188668
0.350362544117708,1987.61490188668
0.342881821643456,1987.62490188668
0.334732658804913,1987.63490188668
0.325939562555438,1987.64490188668
0.316476047384041,1987.65490188668
0.306387978614259,1987.66490188668
0.296049452806633,1987.67490188668
0.285733741235828,1987.68490188668
0.275442447639868,1987.69490188668
0.264306828567492,1987.70490188668
0.252961898451682,1987.71490188668
0.241176768984514,1987.72490188668
0.229275896229651,1987.73490188668
0.21740339879295,1987.74490188668
0.206061382983112,1987.75490188668
0.19529602855638,1987.76490188668
0.184834677179032,1987.77490188668
0.175077502910958,1987.78490188668
0.166057721233311,1987.79490188668
0.157489582588433,1987.80490188668
0.149496450703988,1987.81490188668
0.142009575453235,1987.82490188668
0.135117316925919,1987.83490188668
0.128893383102318,1987.84490188668
0.122725399422822,1987.85490188668
0.11675197550036,1987.86490188668
0.111015091984333,1987.87490188668
0.105288136398489,1987.88490188668
0.0992245202345815,1987.89490188668
0.0933032595113069,1987.90490188668
0.0872877561541965,1987.91490188668
0.0814676996790268,1987.92490188668
0.0755672024433031,1987.93490188668
0.0695343948974784,1987.94490188668
0.0639490484937276,1987.95490188668
0.057877033455457,1987.96490188668
0.0512945244062465,1987.97490188668
0.0445502064438724,1987.98490188668
0.0376925455398589,1987.99490188668
0.0310171817221035,1988.00490188668
0.0250241022414738,1988.01490188668
0.0204879915493918,1988.02490188668
0.0186800721310923,1988.03490188668
0.0216314759517781,1988.04490188668
0.0326007455356482,1988.05490188668
0.0530964654553746,1988.06490188668
0.0840425356515564,1988.07490188668
0.124942291084418,1988.08490188668
0.173568146665935,1988.09490188668
0.22713790040943,1988.10490188668
0.281143743775137,1988.11490188668
0.332888611351734,1988.12490188668
0.379497521865128,1988.13490188668
0.418622147836987,1988.14490188668
0.449820252961748,1988.15490188668
0.473137376855194,1988.16490188668
0.488781676962928,1988.17490188668
0.497846314339153,1988.18490188668
0.501794596336757,1988.19490188668
0.501678495055121,1988.20490188668
0.497679459810189,1988.21490188668
0.490783596695674,1988.22490188668
0.481806041177677,1988.23490188668
0.471013724148444,1988.24490188668
0.458839426981252,1988.25490188668
0.446001138227333,1988.26490188668
0.432719651736052,1988.27490188668
0.419656127765318,1988.28490188668
0.406232304522449,1988.29490188668
0.392789775937475,1988.30490188668
0.379565170385105,1988.31490188668
0.367022426245968,1988.32490188668
0.354033734982382,1988.33490188668
0.341643899692687,1988.34490188668
0.329719131276757,1988.35490188668
0.319500580403397,1988.36490188668
0.311842965038757,1988.37490188668
0.30620160557124,1988.38490188668
0.303895281222476,1988.39490188668
0.304228152431752,1988.40490188668
0.306731548705342,1988.41490188668
0.311567864388059,1988.42490188668
0.317951028652182,1988.43490188668
0.325602033893848,1988.44490188668
0.333814629209588,1988.45490188668
0.341279885029794,1988.46490188668
0.348072398086586,1988.47490188668
0.353189254704422,1988.48490188668
0.356329074734942,1988.49490188668
0.358124068516025,1988.50490188668
0.358209395775514,1988.51490188668
0.356772178559696,1988.52490188668
0.354237646704494,1988.53490188668
0.350591872197111,1988.54490188668
0.345692858086314,1988.55490188668
0.340502296448146,1988.56490188668
0.334184664904798,1988.57490188668
0.327064339424826,1988.58490188668
0.319544684500098,1988.59490188668
0.31087975711707,1988.60490188668
0.301787425011591,1988.61490188668
0.291944815266219,1988.62490188668
0.281673501543772,1988.63490188668
0.27180975513435,1988.64490188668
0.261922580738766,1988.65490188668
0.252478474928391,1988.66490188668
0.24251246713136,1988.67490188668
0.232655199290075,1988.68490188668
0.223124687525851,1988.69490188668
0.213578471617872,1988.70490188668
0.204291254648308,1988.71490188668
0.195147310152827,1988.72490188668
0.185594346475085,1988.73490188668
0.175925551413573,1988.74490188668
0.166460882133318,1988.75490188668
0.158153185311998,1988.76490188668
0.150665664277917,1988.77490188668
0.143887563641516,1988.78490188668
0.137482945765182,1988.79490188668
0.130843635686052,1988.80490188668
0.124097842998622,1988.81490188668
0.117435560458218,1988.82490188668
0.110442804721575,1988.83490188668
0.104020306752136,1988.84490188668
0.0975464098798037,1988.85490188668
0.0910499313664798,1988.86490188668
0.0850978569206863,1988.87490188668
0.0795542951432886,1988.88490188668
0.074172902238675,1988.89490188668
0.0686802092811637,1988.90490188668
0.0631560623512454,1988.91490188668
0.0571353391486474,1988.92490188668
0.0512457496266162,1988.93490188668
0.0456525665710669,1988.94490188668
0.0410399915776112,1988.95490188668
0.0391989947952701,1988.96490188668
0.0425406207518825,1988.97490188668
0.0545015658086371,1988.98490188668
0.0764856672628959,1988.99490188668
0.110333442119576,1989.00490188668
0.154722593285446,1989.01490188668
0.207202975109063,1989.02490188668
0.263400301693923,1989.03490188668
0.319212648202058,1989.04490188668
0.372167774251998,1989.05490188668
0.419016103633929,1989.06490188668
0.458901512193114,1989.07490188668
0.490996859623589,1989.08490188668
0.515037556563437,1989.09490188668
0.531102201656537,1989.10490188668
0.540436217107248,1989.11490188668
0.544478515207581,1989.12490188668
0.544629908133541,1989.13490188668
0.541480867942521,1989.14490188668
0.536864729638584,1989.15490188668
0.530463237324168,1989.16490188668
0.522412642735158,1989.17490188668
0.513581543396596,1989.18490188668
0.504481672679593,1989.19490188668
0.494942508382506,1989.20490188668
0.484993468865538,1989.21490188668
0.475011157430807,1989.22490188668
0.464791796777323,1989.23490188668
0.454325061014654,1989.24490188668
0.443299412274458,1989.25490188668
0.431939700039659,1989.26490188668
0.420612685256451,1989.27490188668
0.409709327821433,1989.28490188668
0.399324934032587,1989.29490188668
0.390212735824125,1989.30490188668
0.382382125550355,1989.31490188668
0.376593339184933,1989.32490188668
0.372949086580629,1989.33490188668
0.371194006685269,1989.34490188668
0.371549779376577,1989.35490188668
0.373477536355624,1989.36490188668
0.376917735705504,1989.37490188668
0.380583491492163,1989.38490188668
0.384945274513638,1989.39490188668
0.389340985940866,1989.40490188668
0.393152021570833,1989.41490188668
0.395724211892317,1989.42490188668
0.39697463213036,1989.43490188668
0.397165926174859,1989.44490188668
0.395790339372614,1989.45490188668
0.3928863836415,1989.46490188668
0.388413445764489,1989.47490188668
0.383379104918498,1989.48490188668
0.377391351209001,1989.49490188668
0.370062606660833,1989.50490188668
0.361923028057876,1989.51490188668
0.352871342485877,1989.52490188668
0.343442519286553,1989.53490188668
0.333145111944016,1989.54490188668
0.322820477610933,1989.55490188668
0.31228210613044,1989.56490188668
0.301461603740401,1989.57490188668
0.290429732106685,1989.58490188668
0.278787290836023,1989.59490188668
0.26765692413193,1989.60490188668
0.256013079696313,1989.61490188668
0.244793046254418,1989.62490188668
0.234116576891705,1989.63490188668
0.223395529012025,1989.64490188668
0.21346169513935,1989.65490188668
0.203301092279975,1989.66490188668
0.194302395280758,1989.67490188668
0.185342131437408,1989.68490188668
0.177063029438459,1989.69490188668
0.168529090275779,1989.70490188668
0.159882080069637,1989.71490188668
0.151255169712402,1989.72490188668
0.143216834626057,1989.73490188668
0.135731502712053,1989.74490188668
0.128547174576454,1989.75490188668
0.121223433726076,1989.76490188668
0.113696896931467,1989.77490188668
0.106956331276739,1989.78490188668
0.0994553911911303,1989.79490188668
0.0923196109759455,1989.80490188668
0.0859475396519466,1989.81490188668
0.0804086442986869,1989.82490188668
0.075438669081175,1989.83490188668
0.0706722801819901,1989.84490188668
0.0648745046154595,1989.85490188668
0.0592807496938214,1989.86490188668
0.0530825918390665,1989.87490188668
0.0469359774026448,1989.88490188668
0.0405508032693366,1989.89490188668
0.0350393832046012,1989.90490188668
0.0311272244307906,1989.91490188668
0.0309437325621058,1989.92490188668
0.0372821781252371,1989.93490188668
0.0529898197956001,1989.94490188668
0.0791709085328392,1989.95490188668
0.116872020363762,1989.96490188668
0.164867438414431,1989.97490188668
0.218956511311996,1989.98490188668
0.275631622089591,1989.99490188668
0.33043263624285,1990.00490188668
0.381726348557952,1990.01490188668
0.426122882226438,1990.02490188668
0.463191280802794,1990.03490188668
0.492728728942723,1990.04490188668
0.514355848959983,1990.05490188668
0.527777459702735,1990.06490188668
0.535271479724301,1990.07490188668
0.537440537466322,1990.08490188668
0.535748456623699,1990.09490188668
0.530953587729794,1990.10490188668
0.524252582362344,1990.11490188668
0.516426779172951,1990.12490188668
0.506947565151705,1990.13490188668
0.497264654482444,1990.14490188668
0.486754322795265,1990.15490188668
0.476050653478763,1990.16490188668
0.464780745004897,1990.17490188668
0.453569298547248,1990.18490188668
0.442597042580827,1990.19490188668
0.430782221696552,1990.20490188668
0.418363353405878,1990.21490188668
0.405868535241483,1990.22490188668
0.392628137824924,1990.23490188668
0.37978256165441,1990.24490188668
0.368724101769627,1990.25490188668
0.358770198749662,1990.26490188668
0.350422799302474,1990.27490188668
0.344016458806105,1990.28490188668
0.340182160989597,1990.29490188668
0.33819616304425,1990.30490188668
0.338477352707236,1990.31490188668
0.339930111879143,1990.32490188668
0.342537032383581,1990.33490188668
0.345734793616836,1990.34490188668
0.349249576167457,1990.35490188668
0.352237287830992,1990.36490188668
0.354301859147654,1990.37490188668
0.354811971383018,1990.38490188668
0.354091007168299,1990.39490188668
0.35189993509796,1990.40490188668
0.348412360568555,1990.41490188668
0.344729908815808,1990.42490188668
0.339726412918077,1990.43490188668
0.333758316341915,1990.44490188668
0.327052107431109,1990.45490188668
0.319469771924487,1990.46490188668
0.31079739256285,1990.47490188668
0.300797914238398,1990.48490188668
0.290018615039812,1990.49490188668
0.278640117635047,1990.50490188668
0.266944272999827,1990.51490188668
0.255510058445823,1990.52490188668
0.243679616788909,1990.53490188668
0.232317918547853,1990.54490188668
0.221277710953997,1990.55490188668
0.209592004630686,1990.56490188668
0.19801569882851,1990.57490188668
0.186339014166441,1990.58490188668
0.174747844911411,1990.59490188668
0.16356335469625,1990.60490188668
0.152475258110839,1990.61490188668
0.141945252657701,1990.62490188668
0.1321710639282,1990.63490188668
0.122012836105104,1990.64490188668
0.112367950032061,1990.65490188668
0.103148312702208,1990.66490188668
0.0936057651668929,1990.67490188668
0.0840547943120147,1990.68490188668
0.0754940004477912,1990.69490188668
0.0674488329463848,1990.70490188668
0.0598171397939218,1990.71490188668
0.0521113528887156,1990.72490188668
0.044991021298644,1990.73490188668
0.0377004676002589,1990.74490188668
0.0307543876190298,1990.75490188668
0.0243009774624989,1990.76490188668
0.0181784619408522,1990.77490188668
0.012174800207679,1990.78490188668
0.00590049088995729,1990.79490188668
4.43101330769916e-05,1990.80490188668
-0.00546716272783363,1990.81490188668
-0.0111039820126303,1990.82490188668
-0.0168156076521903,1990.83490188668
-0.0232599746822544,1990.84490188668
-0.0298153162817453,1990.85490188668
-0.0368258841688527,1990.86490188668
-0.0436506725612489,1990.87490188668
-0.0492906904703451,1990.88490188668
-0.0520890730245716,1990.89490188668
-0.0493709523483266,1990.90490188668
-0.0374616350983643,1990.91490188668
-0.0150905168388404,1990.92490188668
0.0192308655758403,1990.93490188668
0.0643467418183299,1990.94490188668
0.117163657412822,1990.95490188668
0.174044117702851,1990.96490188668
0.230823243029338,1990.97490188668
0.284156615572309,1990.98490188668
0.331852589669025,1990.99490188668
0.371748073526208,1991.00490188668
0.403524638171785,1991.01490188668
0.427071821164062,1991.02490188668
0.443297619922244,1991.03490188668
0.452858688111413,1991.04490188668
0.456431809563777,1991.05490188668
0.455139207791288,1991.06490188668
0.449933863546934,1991.07490188668
0.441552164686269,1991.08490188668
0.430741161062734,1991.09490188668
0.41815894302272,1991.10490188668
0.40517336798513,1991.11490188668
0.391360387527311,1991.12490188668
0.377553639216828,1991.13490188668
0.36422731371724,1991.14490188668
0.350728886945958,1991.15490188668
0.337202087824997,1991.16490188668
0.324181992513852,1991.17490188668
0.310812687474804,1991.18490188668
0.297104471447875,1991.19490188668
0.283810020383275,1991.20490188668
0.271062690640447,1991.21490188668
0.259888851453213,1991.22490188668
0.250295638653734,1991.23490188668
0.243351064627476,1991.24490188668
0.239107097878926,1991.25490188668
0.237305844728576,1991.26490188668
0.23923464963263,1991.27490188668
0.243050614524021,1991.28490188668
0.248712657633051,1991.29490188668
0.255334501524915,1991.30490188668
0.262499822703428,1991.31490188668
0.269599452193263,1991.32490188668
0.276421058992666,1991.33490188668
0.281527828528795,1991.34490188668
0.285624654366094,1991.35490188668
0.287811857854266,1991.36490188668
0.288511273910212,1991.37490188668
0.287554623949798,1991.38490188668
0.285307183010263,1991.39490188668
0.282090302779887,1991.40490188668
0.27756591447709,1991.41490188668
0.271817539851627,1991.42490188668
0.265130611396918,1991.43490188668
0.257797653022227,1991.44490188668
0.249431737406692,1991.45490188668
0.241233859305606,1991.46490188668
0.231706928147198,1991.47490188668
0.221608637197662,1991.48490188668
0.211159269704531,1991.49490188668
0.199719336478558,1991.50490188668
0.188580010447532,1991.51490188668
0.177571104601439,1991.52490188668
0.166895492210594,1991.53490188668
0.155939218975621,1991.54490188668
0.145491188713841,1991.55490188668
0.135154866023739,1991.56490188668
0.125124889148298,1991.57490188668
0.115637771775749,1991.58490188668
0.10675192878715,1991.59490188668
0.0982448643733042,1991.60490188668
0.0898864158872232,1991.61490188668
0.0815274411259883,1991.62490188668
0.0735026048285203,1991.63490188668
0.0661502325182932,1991.64490188668
0.0597347405208826,1991.65490188668
0.0540454509907855,1991.66490188668
0.0493654236142306,1991.67490188668
0.0444166875854211,1991.68490188668
0.0397664647403238,1991.69490188668
0.0347065246939736,1991.70490188668
0.0295101534772918,1991.71490188668
0.0240257867065403,1991.72490188668
0.0193203133285854,1991.73490188668
0.0135930156988021,1991.74490188668
0.00742274564711304,1991.75490188668
0.000804791488288292,1991.76490188668
-0.00645126114269154,1991.77490188668
-0.0130245323940602,1991.78490188668
-0.0180156619432409,1991.79490188668
-0.0204696108671219,1991.80490188668
-0.01697035614514,1991.81490188668
-0.00503199614006656,1991.82490188668
0.0170237533125227,1991.83490188668
0.0507940953974666,1991.84490188668
0.0944099674985725,1991.85490188668
0.145994701243832,1991.86490188668
0.201374541069363,1991.87490188668
0.257293762504299,1991.88490188668
0.310653578103245,1991.89490188668
0.35843458675985,1991.90490188668
0.399368359844104,1991.91490188668
0.431787389073657,1991.92490188668
0.455800133283393,1991.93490188668
0.471419952263505,1991.94490188668
0.479583800171305,1991.95490188668
0.482232198630377,1991.96490188668
0.481008363246324,1991.97490188668
0.476930464683208,1991.98490188668
0.470147782568485,1991.99490188668
0.462297737618645,1992.00490188668
0.453455586518683,1992.01490188668
0.443554955789958,1992.02490188668
0.433075520210383,1992.03490188668
0.422342333904326,1992.04490188668
0.410997791396338,1992.05490188668
0.399965103500816,1992.06490188668
0.38859716675677,1992.07490188668
0.376888445014508,1992.08490188668
0.364943097228798,1992.09490188668
0.352451987847812,1992.10490188668
0.339711972137057,1992.11490188668
0.327701675354315,1992.12490188668
0.316931252309905,1992.13490188668
0.307352939591676,1992.14490188668
0.29969110557645,1992.15490188668
0.294495390266948,1992.16490188668
0.290959896044864,1992.17490188668
0.290247237390183,1992.18490188668
0.291755528568199,1992.19490188668
0.29513725020734,1992.20490188668
0.299967719641212,1992.21490188668
0.305912972323225,1992.22490188668
0.311660650526595,1992.23490188668
0.317462295881657,1992.24490188668
0.322013364757285,1992.25490188668
0.324778751182677,1992.26490188668
0.325838642328794,1992.27490188668
0.325623422244182,1992.28490188668
0.324145205400893,1992.29490188668
0.321043935334632,1992.30490188668
0.317075935663525,1992.31490188668
0.311924324440734,1992.32490188668
0.305514321227734,1992.33490188668
0.29825824751459,1992.34490188668
0.290093625902299,1992.35490188668
0.280773125797562,1992.36490188668
0.27066479278455,1992.37490188668
0.260302975700869,1992.38490188668
0.249740916127667,1992.39490188668
0.238684567965374,1992.40490188668
0.227645577966106,1992.41490188668
0.217349009103051,1992.42490188668
0.206565914096295,1992.43490188668
0.196431273219571,1992.44490188668
0.18575570434586,1992.45490188668
0.174617276771559,1992.46490188668
0.164036174819852,1992.47490188668
0.153136264566543,1992.48490188668
0.142754730232174,1992.49490188668
0.132636284295539,1992.50490188668
0.122765022573796,1992.51490188668
0.113725556864553,1992.52490188668
0.105104374918222,1992.53490188668
0.0963576967624047,1992.54490188668
0.0882185185050489,1992.55490188668
0.0797733733213629,1992.56490188668
0.0718374437039813,1992.57490188668
0.0637243086063986,1992.58490188668
0.0566070260892105,1992.59490188668
0.0498834270106318,1992.60490188668
0.0428980181178932,1992.61490188668
0.0365101316061125,1992.62490188668
0.0299449840649646,1992.63490188668
0.0233937037165101,1992.64490188668
0.0174164805178448,1992.65490188668
0.0113908881239799,1992.66490188668
0.00572732754877459,1992.67490188668
-0.00026158473581018,1992.68490188668
-0.00659980421369991,1992.69490188668
-0.0137945619864267,1992.70490188668
-0.0210544847794915,1992.71490188668
-0.0276759724138948,1992.72490188668
-0.0322003779583808,1992.73490188668
-0.0334894853475349,1992.74490188668
-0.0286522731939637,1992.75490188668
-0.0152980452928007,1992.76490188668
0.00925382952695489,1992.77490188668
0.0460690235326182,1992.78490188668
0.0936238272132262,1992.79490188668
0.148543386346894,1992.80490188668
0.207079816026313,1992.81490188668
0.265296999424592,1992.82490188668
0.319403160142355,1992.83490188668
0.367673433117261,1992.84490188668
0.407950656282374,1992.85490188668
0.439955233537762,1992.86490188668
0.463134961018698,1992.87490188668
0.479029396841026,1992.88490188668
0.488201608904711,1992.89490188668
0.492046298112127,1992.90490188668
0.492534980618015,1992.91490188668
0.490326427776152,1992.92490188668
0.485730040825325,1992.93490188668
0.479594779925813,1992.94490188668
0.472330888953884,1992.95490188668
0.46416557215446,1992.96490188668
0.455817726987335,1992.97490188668
0.446958651927726,1992.98490188668
0.43844933098343,1992.99490188668
0.430048039355422,1993.00490188668
0.421519513894383,1993.01490188668
0.41277859531475,1993.02490188668
0.403563199685429,1993.03490188668
0.393799129031785,1993.04490188668
0.3832786603857,1993.05490188668
0.372676519400297,1993.06490188668
0.36257629171508,1993.07490188668
0.353221964995791,1993.08490188668
0.345237718351077,1993.09490188668
0.338794321656163,1993.10490188668
0.334309889015854,1993.11490188668
0.332369206318239,1993.12490188668
0.331765186115647,1993.13490188668
0.333240139518161,1993.14490188668
0.336138745860023,1993.15490188668
0.339721185061199,1993.16490188668
0.344248510372712,1993.17490188668
0.349089896232584,1993.18490188668
0.353274043050663,1993.19490188668
0.356737603798978,1993.20490188668
0.358930533623767,1993.21490188668
0.359626674509221,1993.22490188668
0.3586328157856,1993.23490188668
0.355802767047275,1993.24490188668
0.351932219369882,1993.25490188668
0.346597950752676,1993.26490188668
0.340628956952467,1993.27490188668
0.333556125321688,1993.28490188668
0.325501382603621,1993.29490188668
0.316299966663474,1993.30490188668
0.306355965671853,1993.31490188668
0.296004251989831,1993.32490188668
0.285277413801429,1993.33490188668
0.274288403260425,1993.34490188668
0.262888591621625,1993.35490188668
0.251475388909616,1993.36490188668
0.239678517360682,1993.37490188668
0.228094150559517,1993.38490188668
0.216250202073881,1993.39490188668
0.204996514985346,1993.40490188668
0.194405833935131,1993.41490188668
0.184244059860579,1993.42490188668
0.174377734780224,1993.43490188668
0.164515639432764,1993.44490188668
0.154094274447169,1993.45490188668
0.144537918975341,1993.46490188668
0.13550090704559,1993.47490188668
0.127004846549278,1993.48490188668
0.118470696731159,1993.49490188668
0.110187231395162,1993.50490188668
0.101906092897526,1993.51490188668
0.0931130721002542,1993.52490188668
0.0843926198123355,1993.53490188668
0.0761992494374016,1993.54490188668
0.0682542661028573,1993.55490188668
0.0611849084228797,1993.56490188668
0.0547554944458339,1993.57490188668
0.0483096316979375,1993.58490188668
0.0419036116955528,1993.59490188668
0.0351741217464585,1993.60490188668
0.02820378462009,1993.61490188668
0.0208832550715816,1993.62490188668
0.0136240172551322,1993.63490188668
0.00576485986616623,1993.64490188668
-0.00224781833157698,1993.65490188668
-0.0104663753772755,1993.66490188668
-0.0182219861725698,1993.67490188668
-0.0250891314511654,1993.68490188668
-0.0300899715917568,1993.69490188668
-0.0305932232400378,1993.70490188668
-0.0244702402782292,1993.71490188668
-0.0086120771257398,1993.72490188668
0.0192952917948078,1993.73490188668
0.0592889760886921,1993.74490188668
0.108793830712542,1993.75490188668
0.164959062497025,1993.76490188668
0.223195753122205,1993.77490188668
0.279620843507402,1993.78490188668
0.331349437214964,1993.79490188668
0.375628694433587,1993.80490188668
0.411505644655483,1993.81490188668
0.439028568345078,1993.82490188668
0.458051764568176,1993.83490188668
0.470317035858458,1993.84490188668
0.476241119725378,1993.85490188668
0.477970230974314,1993.86490188668
0.4762057139664,1993.87490188668
0.471811776088129,1993.88490188668
0.465211867567602,1993.89490188668
0.457145004693739,1993.90490188668
0.448027790789123,1993.91490188668
0.438060456363253,1993.92490188668
0.427427711531871,1993.93490188668
0.417138755472405,1993.94490188668
0.406079366607219,1993.95490188668
0.395275823488526,1993.96490188668
0.38382611123088,1993.97490188668
0.372268735817562,1993.98490188668
0.360566938527718,1993.99490188668
0.348439302878743,1994.00490188668
0.335433170822665,1994.01490188668
0.322983596793698,1994.02490188668
0.311018953111521,1994.03490188668
0.300684574870763,1994.04490188668
0.292931380416603,1994.05490188668
0.287315625983534,1994.06490188668
0.284842752235632,1994.07490188668
0.284545206721996,1994.08490188668
0.286708651331698,1994.09490188668
0.290343466062313,1994.10490188668
0.294659440285503,1994.11490188668
0.299820818533729,1994.12490188668
0.305201244769834,1994.13490188668
0.309755112374616,1994.14490188668
0.3138136034648,1994.15490188668
0.316204532864406,1994.16490188668
0.317382457256165,1994.17490188668
0.316727124317365,1994.18490188668
0.31448117879699,1994.19490188668
0.310574489240788,1994.20490188668
0.305358722630748,1994.21490188668
0.298908177195713,1994.22490188668
0.292015658141662,1994.23490188668
0.283770820929945,1994.24490188668
0.274848946986525,1994.25490188668
0.265297918522044,1994.26490188668
0.25465825242279,1994.27490188668
0.243733304045596,1994.28490188668
0.232782514588274,1994.29490188668
0.221528133827967,1994.30490188668
0.210536997990278,1994.31490188668
0.19874037044806,1994.32490188668
0.186933145995585,1994.33490188668
0.17557428459119,1994.34490188668
0.164103630245591,1994.35490188668
0.152849845817055,1994.36490188668
0.142199760422572,1994.37490188668
0.131778284791564,1994.38490188668
0.121684123369826,1994.39490188668
0.111333894851402,1994.40490188668
0.101154732389685,1994.41490188668
0.0911561861546844,1994.42490188668
0.0821799128299113,1994.43490188668
0.0731704664462477,1994.44490188668
0.0651172371071667,1994.45490188668
0.0579100046139315,1994.46490188668
0.0513974655232653,1994.47490188668
0.0443260613168424,1994.48490188668
0.0379480551313362,1994.49490188668
0.0312800581565081,1994.50490188668
0.0248320860442321,1994.51490188668
0.0194788267689264,1994.52490188668
0.0138305270808601,1994.53490188668
0.00881885164637638,1994.54490188668
0.00366274394249362,1994.55490188668
-0.0020262486608268,1994.56490188668
-0.00812481361185882,1994.57490188668
-0.015233488936614,1994.58490188668
-0.0228981836775906,1994.59490188668
-0.0307274983841735,1994.60490188668
-0.0380319518750987,1994.61490188668
-0.0445623605901275,1994.62490188668
-0.0492488357326451,1994.63490188668
-0.0506521644029219,1994.64490188668
-0.0458958223167574,1994.65490188668
-0.0323081789987113,1994.66490188668
-0.00745819316216675,1994.67490188668
0.0291395983031707,1994.68490188668
0.0759984424071356,1994.69490188668
0.129969394366734,1994.70490188668
0.188275989861422,1994.71490188668
0.245319185500076,1994.72490188668
0.298431940976624,1994.73490188668
0.344886995631733,1994.74490188668
0.382780371188504,1994.75490188668
0.411803817205924,1994.76490188668
0.431997914077581,1994.77490188668
0.444285063519766,1994.78490188668
0.450681875088487,1994.79490188668
0.451949017878543,1994.80490188668
0.449713666650778,1994.81490188668
0.444864771030249,1994.82490188668
0.437867893335502,1994.83490188668
0.429238065824851,1994.84490188668
0.419537880909168,1994.85490188668
0.408760842466278,1994.86490188668
0.397358172872702,1994.87490188668
0.385824596500103,1994.88490188668
0.374213240305653,1994.89490188668
0.362536897862041,1994.90490188668
0.350622822012225,1994.91490188668
0.338202262400899,1994.92490188668
0.324952479148121,1994.93490188668
0.311039252773651,1994.94490188668
0.297868997212815,1994.95490188668
0.285701307597007,1994.96490188668
0.275738559155064,1994.97490188668
0.268239190398456,1994.98490188668
0.263445313762141,1994.99490188668
0.261610558642551,1995.00490188668
0.262537418911555,1995.01490188668
0.265438586277778,1995.02490188668
0.270357128155581,1995.03490188668
0.27696149366838,1995.04490188668
0.284026872379101,1995.05490188668
0.290938668323036,1995.06490188668
0.297086855905701,1995.07490188668
0.301968988388508,1995.08490188668
0.305728084488524,1995.09490188668
0.308073475500736,1995.10490188668
0.309093427421618,1995.11490188668
0.309084209167263,1995.12490188668
0.307524937124726,1995.13490188668
0.304686169842596,1995.14490188668
0.300683553112431,1995.15490188668
0.295223203794204,1995.16490188668
0.288780847552397,1995.17490188668
0.281981488060072,1995.18490188668
0.273992015892707,1995.19490188668
0.265321386191834,1995.20490188668
0.255715944170234,1995.21490188668
0.24581318175048,1995.22490188668
0.235783017089035,1995.23490188668
0.225060361890464,1995.24490188668
0.215258107152765,1995.25490188668
0.205335755688035,1995.26490188668
0.195442548832142,1995.27490188668
0.185662171799802,1995.28490188668
0.175615269335786,1995.29490188668
0.165753206911159,1995.30490188668
0.155760707316673,1995.31490188668
0.145842368332025,1995.32490188668
0.136326475800607,1995.33490188668
0.126973826242135,1995.34490188668
0.118274003243073,1995.35490188668
0.109341210341908,1995.36490188668
0.101048721067596,1995.37490188668
0.0927726604243684,1995.38490188668
0.0848247393347847,1995.39490188668
0.0776565876206965,1995.40490188668
0.0701562344647116,1995.41490188668
0.0629515926617829,1995.42490188668
0.0558263554508699,1995.43490188668
0.0492266275561823,1995.44490188668
0.0427716663991453,1995.45490188668
0.0362038807457749,1995.46490188668
0.0302873301211736,1995.47490188668
0.0243853253673043,1995.48490188668
0.0179451063859386,1995.49490188668
0.0118674492933628,1995.50490188668
0.00544195481150192,1995.51490188668
-0.00109403707179268,1995.52490188668
-0.00782849401664224,1995.53490188668
-0.0131223625507256,1995.54490188668
-0.0162753345606103,1995.55490188668
-0.0141036739212088,1995.56490188668
-0.00437878063160491,1995.57490188668
0.0161909712616165,1995.58490188668
0.0486541478109268,1995.59490188668
0.09177431120171,1995.60490188668
0.14423341730209,1995.61490188668
0.201495247761583,1995.62490188668
0.259062468911495,1995.63490188668
0.313327447262623,1995.64490188668
0.362072891199014,1995.65490188668
0.402841727604543,1995.66490188668
0.435414446113931,1995.67490188668
0.459957492175012,1995.68490188668
0.477549092656657,1995.69490188668
0.489636046031563,1995.70490188668
0.495971305969065,1995.71490188668
0.498176592511312,1995.72490188668
0.49693630348827,1995.73490188668
0.493104873901829,1995.74490188668
0.487114044383625,1995.75490188668
0.480223026794257,1995.76490188668
0.472283823112835,1995.77490188668
0.46324847749317,1995.78490188668
0.454372074470597,1995.79490188668
0.445641224016743,1995.80490188668
0.43750809282327,1995.81490188668
0.429607172528462,1995.82490188668
0.421035620643525,1995.83490188668
0.412364020597359,1995.84490188668
0.40340012200839,1995.85490188668
0.39294706150188,1995.86490188668
0.382157069006078,1995.87490188668
0.37172865146143,1995.88490188668
0.362143806703022,1995.89490188668
0.3536896576223,1995.90490188668
0.346899113822366,1995.91490188668
0.342272420832562,1995.92490188668
0.339325322110751,1995.93490188668
0.338458244053749,1995.94490188668
0.33846675589131,1995.95490188668
0.339882013246214,1995.96490188668
0.342403954270579,1995.97490188668
0.345398770913763,1995.98490188668
0.348504963829982,1995.99490188668
0.351318723778045,1996.00490188668
0.353160810025863,1996.01490188668
0.35472969097511,1996.02490188668
0.355360020610499,1996.03490188668
0.354319569421537,1996.04490188668
0.351802775282021,1996.05490188668
0.347298522039059,1996.06490188668
0.341896774170925,1996.07490188668
0.334989817607483,1996.08490188668
0.327044014519917,1996.09490188668
0.318391622046893,1996.10490188668
0.308758518387311,1996.11490188668
0.298699260459056,1996.12490188668
0.287925201598485,1996.13490188668
0.276702189526985,1996.14490188668
0.265399195012244,1996.15490188668
0.253779943848108,1996.16490188668
0.241354807358926,1996.17490188668
0.229188324494138,1996.18490188668
0.217052722816935,1996.19490188668
0.204847184522553,1996.20490188668
0.192910532951214,1996.21490188668
0.181538048123038,1996.22490188668
0.170229680118914,1996.23490188668
0.160223226636187,1996.24490188668
0.150468376262046,1996.25490188668
0.140895564886549,1996.26490188668
0.131564714492999,1996.27490188668
0.121894233753984,1996.28490188668
0.112438559109791,1996.29490188668
0.103430125634388,1996.30490188668
0.0945735761672516,1996.31490188668
0.0859105819107311,1996.32490188668
0.0782287026085261,1996.33490188668
0.0701871188292494,1996.34490188668
0.0623020776993082,1996.35490188668
0.0547628955396287,1996.36490188668
0.0475596154858573,1996.37490188668
0.0408717574770485,1996.38490188668
0.0343912183211869,1996.39490188668
0.0282827076248736,1996.40490188668
0.0218773999500973,1996.41490188668
0.0154757474640635,1996.42490188668
0.00867826200044098,1996.43490188668
0.00135634178397827,1996.44490188668
-0.00621731676811281,1996.45490188668
-0.0142914674636014,1996.46490188668
-0.0222007287326167,1996.47490188668
-0.0291957212657582,1996.48490188668
-0.0334800476369911,1996.49490188668
-0.0334531300438495,1996.50490188668
-0.025893606057769,1996.51490188668
-0.00801603122157825,1996.52490188668
0.021477390145928,1996.53490188668
0.0626453514187719,1996.54490188668
0.112935341008048,1996.55490188668
0.169213036755245,1996.56490188668
0.227051585232358,1996.57490188668
0.281790456457686,1996.58490188668
0.330936858035147,1996.59490188668
0.372627223526853,1996.60490188668
0.407176456035311,1996.61490188668
0.433335489121692,1996.62490188668
0.45289857205468,1996.63490188668
0.466413692981393,1996.64490188668
0.473652539887336,1996.65490188668
0.476015044905365,1996.66490188668
0.474193126887697,1996.67490188668
0.469580819937426,1996.68490188668
0.462475895973374,1996.69490188668
0.454420017679276,1996.70490188668
0.444608781830834,1996.71490188668
0.434351058747731,1996.72490188668
0.424425971542158,1996.73490188668
0.414431703571111,1996.74490188668
0.404808573800255,1996.75490188668
0.395456233603558,1996.76490188668
0.385597755429695,1996.77490188668
0.376237645380261,1996.78490188668
0.366088317909862,1996.79490188668
0.355886509567881,1996.80490188668
0.344190830882436,1996.81490188668
0.332566119026534,1996.82490188668
0.321193584586433,1996.83490188668
0.310402461539128,1996.84490188668
0.30182467642648,1996.85490188668
0.295282193883807,1996.86490188668
0.290686890492426,1996.87490188668
0.288030214978788,1996.88490188668
0.286233110663906,1996.89490188668
0.285733253034994,1996.90490188668
0.286445424952215,1996.91490188668
0.288844570899592,1996.92490188668
0.29181483343643,1996.93490188668
0.295097834803308,1996.94490188668
0.298048822686038,1996.95490188668
0.299243620067622,1996.96490188668
0.299682760924656,1996.97490188668
0.29791739145605,1996.98490188668
0.294375309703924,1996.99490188668
0.289233893803624,1997.00490188668
0.282894730937047,1997.01490188668
0.274831732080832,1997.02490188668
0.266079033674379,1997.03490188668
0.257042955356966,1997.04490188668
0.247503296907005,1997.05490188668
0.237067227127951,1997.06490188668
0.225714925919039,1997.07490188668
0.213536373289385,1997.08490188668
0.200534246545306,1997.09490188668
0.187583125413442,1997.10490188668
0.174618495786328,1997.11490188668
0.161755748023511,1997.12490188668
0.148901885119217,1997.13490188668
0.136555276965379,1997.14490188668
0.124289050624237,1997.15490188668
0.11199765702156,1997.16490188668
0.0998653190120031,1997.17490188668
0.0880190432242724,1997.18490188668
0.0767168188085538,1997.19490188668
0.0659926634845935,1997.20490188668
0.0556062410288377,1997.21490188668
0.0456864338813995,1997.22490188668
0.0364171631844379,1997.23490188668
0.0273949248727943,1997.24490188668
0.0182378555608753,1997.25490188668
0.00930061890076167,1997.26490188668
0.000313872808607549,1997.27490188668
-0.00820762501387748,1997.28490188668
-0.0161279871635574,1997.29490188668
-0.0233968731630785,1997.30490188668
-0.0300960067502002,1997.31490188668
-0.0367360168052528,1997.32490188668
-0.0434152886331835,1997.33490188668
-0.0502800820276015,1997.34490188668
-0.0571887554867143,1997.35490188668
-0.0641533912056904,1997.36490188668
-0.0705989898124572,1997.37490188668
-0.0768914248110967,1997.38490188668
-0.0833899928518164,1997.39490188668
-0.0903114665030831,1997.40490188668
-0.0975465146606812,1997.41490188668
-0.10514705881593,1997.42490188668
-0.111944803287126,1997.43490188668
-0.117699041537082,1997.44490188668
-0.12075255669361,1997.45490188668
-0.11891953547942,1997.46490188668
-0.109108480197281,1997.47490188668
-0.0896870164300648,1997.48490188668
-0.0583357315800707,1997.49490188668
-0.0155733051823911,1997.50490188668
0.0356756230529023,1997.51490188668
0.0923659789353707,1997.52490188668
0.149632390234278,1997.53490188668
0.204626509123956,1997.54490188668
0.254305604372935,1997.55490188668
0.295972753565461,1997.56490188668
0.328982744465804,1997.57490188668
0.35329546011747,1997.58490188668
0.369651621050943,1997.59490188668
0.37962126854759,1997.60490188668
0.383918472088657,1997.61490188668
0.383020564965251,1997.62490188668
0.378949757276385,1997.63490188668
0.371916290968239,1997.64490188668
0.362573538220811,1997.65490188668
0.352190190182489,1997.66490188668
0.340715034517696,1997.67490188668
0.32849246337415,1997.68490188668
0.316124146275359,1997.69490188668
0.303683394754403,1997.70490188668
0.291820817525339,1997.71490188668
0.279809249277594,1997.72490188668
0.267463201112859,1997.73490188668
0.255122852171689,1997.74490188668
0.24224392329969,1997.75490188668
0.229118524379902,1997.76490188668
0.216132735844032,1997.77490188668
0.204444818484093,1997.78490188668
0.194282656068318,1997.79490188668
0.187027384247965,1997.80490188668
0.182607340991326,1997.81490188668
0.180852158015449,1997.82490188668
0.181822189878249,1997.83490188668
0.18493674692493,1997.84490188668
0.19018152490201,1997.85490188668
0.197227852021724,1997.86490188668
0.204540222844052,1997.87490188668
0.212232620379261,1997.88490188668
0.219349858598986,1997.89490188668
0.225103840346509,1997.90490188668
0.228897738295843,1997.91490188668
0.230545851296814,1997.92490188668
0.230898068318223,1997.93490188668
0.229437414144502,1997.94490188668
0.226584405467887,1997.95490188668
0.223051521747867,1997.96490188668
0.217669890225718,1997.97490188668
0.211339193466764,1997.98490188668
0.20411386637279,1997.99490188668
0.195213945398523,1998.00490188668
0.185530513673239,1998.01490188668
0.175403624712074,1998.02490188668
0.164668550595537,1998.03490188668
0.15359985476794,1998.04490188668
0.142446007342085,1998.05490188668
0.130638868731159,1998.06490188668
0.119623091125273,1998.07490188668
0.108094811899743,1998.08490188668
0.0965582944349048,1998.09490188668
0.0852340713961341,1998.10490188668
0.0740973632489663,1998.11490188668
0.06254687607929,1998.12490188668
0.0515186089781667,1998.13490188668
0.0414467480680058,1998.14490188668
0.0318442694745049,1998.15490188668
0.022618309018289,1998.16490188668
0.013477191857135,1998.17490188668
0.00500795109222834,1998.18490188668
-0.00300755628735635,1998.19490188668
-0.0105030357162028,1998.20490188668
-0.0179170835497231,1998.21490188668
-0.0244939330713718,1998.22490188668
-0.0310656474020293,1998.23490188668
-0.0380727936524738,1998.24490188668
-0.0451203527692678,1998.25490188668
-0.0522089407207033,1998.26490188668
-0.0600647785661191,1998.27490188668
-0.0683459959893335,1998.28490188668
-0.0765906119677787,1998.29490188668
-0.084952736266495,1998.30490188668
-0.0927260524062446,1998.31490188668
-0.0989512209800087,1998.32490188668
-0.103028163397168,1998.33490188668
-0.102468162981515,1998.34490188668
-0.0946625952826603,1998.35490188668
-0.0767107009864396,1998.36490188668
-0.0479390814296712,1998.37490188668
-0.00834979869958068,1998.38490188668
0.0396628949437314,1998.39490188668
0.0923600798236479,1998.40490188668
0.14652381688482,1998.41490188668
0.198870997924421,1998.42490188668
0.246184976597745,1998.43490188668
0.286967245622022,1998.44490188668
0.319640482699921,1998.45490188668
0.343917824478122,1998.46490188668
0.360625930087548,1998.47490188668
0.370500916952566,1998.48490188668
0.375210092677094,1998.49490188668
0.375438924776559,1998.50490188668
0.372331693263648,1998.51490188668
0.366884288547564,1998.52490188668
0.359403114379275,1998.53490188668
0.350837918839157,1998.54490188668
0.341329215268604,1998.55490188668
0.331292348637028,1998.56490188668
0.321475174165706,1998.57490188668
0.311627297856453,1998.58490188668
0.301738442232255,1998.59490188668
0.290910385040447,1998.60490188668
0.279590340275548,1998.61490188668
0.267275254436223,1998.62490188668
0.254743830328506,1998.63490188668
0.242142785594373,1998.64490188668
0.229598584712902,1998.65490188668
0.218156560761153,1998.66490188668
0.207777643520577,1998.67490188668
0.19908910470455,1998.68490188668
0.192718482838426,1998.69490188668
0.188032519279287,1998.70490188668
0.185482331367137,1998.71490188668
0.18470660052388,1998.72490188668
0.185536678744679,1998.73490188668
0.187319897171864,1998.74490188668
0.189804024094819,1998.75490188668
0.19305036150478,1998.76490188668
0.1960081468154,1998.77490188668
0.198592302764917,1998.78490188668
0.200374938553424,1998.79490188668
0.200823144069288,1998.80490188668
0.199864986381919,1998.81490188668
0.197704100158772,1998.82490188668
0.193592156312222,1998.83490188668
0.188387040571904,1998.84490188668
0.182020340071632,1998.85490188668
0.174486835092433,1998.86490188668
0.165823007995841,1998.87490188668
0.15621238443244,1998.88490188668
0.146168523013313,1998.89490188668
0.135512805254434,1998.90490188668
0.124745337061073,1998.91490188668
0.113343499128226,1998.92490188668
0.102492593172463,1998.93490188668
0.0910460375568864,1998.94490188668
0.0796570464295241,1998.95490188668
0.0683475829945308,1998.96490188668
0.0568704587178468,1998.97490188668
0.0454920106643349,1998.98490188668
0.0343804403319299,1998.99490188668
0.0236222606880683,1999.00490188668
0.0126969449330646,1999.01490188668
0.00252034100786125,1999.02490188668
-0.00776209649830787,1999.03490188668
-0.0174403656140576,1999.04490188668
-0.0269800841028362,1999.05490188668
-0.0362438479504476,1999.06490188668
-0.0457347106662826,1999.07490188668
-0.0552555115380106,1999.08490188668
-0.0646056412609547,1999.09490188668
-0.0741136963984101,1999.10490188668
-0.0830238477437679,1999.11490188668
-0.0913932270846476,1999.12490188668
-0.0989157062114145,1999.13490188668
-0.106126125319625,1999.14490188668
-0.11313418656695,1999.15490188668
-0.120354607049808,1999.16490188668
-0.12817633569716,1999.17490188668
-0.136327800713585,1999.18490188668
-0.144842000028645,1999.19490188668
-0.152807426650357,1999.20490188668
-0.159369597117178,1999.21490188668
-0.163795448342251,1999.22490188668
-0.164409994209922,1999.23490188668
-0.159013583882563,1999.24490188668
-0.145044307750662,1999.25490188668
-0.121350162006691,1999.26490188668
-0.0880993553573964,1999.27490188668
-0.046840973772743,1999.28490188668
-0.000265759624767191,1999.29490188668
0.0486518160043004,1999.30490188668
0.0969941631373835,1999.31490188668
0.14198619490285,1999.32490188668
0.181546828014277,1999.33490188668
0.214507937727599,1999.34490188668
0.240919475958029,1999.35490188668
0.259847725004262,1999.36490188668
0.271874238823717,1999.37490188668
0.278258725644073,1999.38490188668
0.279391625134155,1999.39490188668
0.276664368662164,1999.40490188668
0.271180012702943,1999.41490188668
0.264374571484013,1999.42490188668
0.256424433077082,1999.43490188668
0.247395457872645,1999.44490188668
0.237511512678327,1999.45490188668
0.227747363016037,1999.46490188668
0.218364880272163,1999.47490188668
0.209182353800299,1999.48490188668
0.200305668891083,1999.49490188668
0.19106362093273,1999.50490188668
0.180900963958235,1999.51490188668
0.17017108545233,1999.52490188668
0.158412384714133,1999.53490188668
0.146374812933085,1999.54490188668
0.134476400401678,1999.55490188668
0.12393226658109,1999.56490188668
0.11463087312951,1999.57490188668
0.106543999486544,1999.58490188668
0.099162341206653,1999.59490188668
0.0933726617222993,1999.60490188668
0.0886438139279534,1999.61490188668
0.0853262383010127,1999.62490188668
0.083720778158019,1999.63490188668
0.082996286643366,1999.64490188668
0.0829483741342982,1999.65490188668
0.0832688759451352,1999.66490188668
0.0834702719781803,1999.67490188668
0.0832300830009907,1999.68490188668
0.0820283991136274,1999.69490188668
0.0799294330056933,1999.70490188668
0.0766998493185605,1999.71490188668
0.0720887626317362,1999.72490188668
0.0662818855629222,1999.73490188668
0.0594197565618455,1999.74490188668
0.0513804643345101,1999.75490188668
0.0420825043554122,1999.76490188668
0.0316955631999786,1999.77490188668
0.0199638081612512,1999.78490188668
0.00734194118581809,1999.79490188668
-0.00551741691964997,1999.80490188668
-0.0196227772676327,1999.81490188668
-0.0342809339738558,1999.82490188668
-0.0489868661099494,1999.83490188668
-0.0639329241257416,1999.84490188668
-0.078410090536339,1999.85490188668
-0.0925824700744989,1999.86490188668
-0.106521293293507,1999.87490188668
-0.12041792988526,1999.88490188668
-0.134300071359769,1999.89490188668
-0.147858590882399,1999.90490188668
-0.161109624011928,1999.91490188668
-0.174371810166927,1999.92490188668
-0.187054779535532,1999.93490188668
-0.199424979157211,1999.94490188668
-0.211430610553589,1999.95490188668
-0.222942739172809,1999.96490188668
-0.234150505951835,1999.97490188668
-0.245365900879172,1999.98490188668
-0.255944530544816,1999.99490188668
-0.266070474664367,2000.00490188668
-0.276625470440373,2000.01490188668
-0.286991594241602,2000.02490188668
-0.29757623384821,2000.03490188668
-0.308014608412881,2000.04490188668
-0.318545428956101,2000.05490188668
-0.329189867028846,2000.06490188668
-0.339622516684168,2000.07490188668
-0.350018415188806,2000.08490188668
-0.359958434486629,2000.09490188668
-0.369604038621856,2000.10490188668
-0.378392274737608,2000.11490188668
-0.384362100197802,2000.12490188668
-0.385976024228401,2000.13490188668
-0.381572294594911,2000.14490188668
-0.369341398575906,2000.15490188668
-0.349828072442296,2000.16490188668
-0.323616560074199,2000.17490188668
-0.292376863220821,2000.18490188668
-0.258039936339756,2000.19490188668
-0.223232600322839,2000.20490188668
-0.189550751729524,2000.21490188668
-0.159088895840565,2000.22490188668
-0.132770397452791,2000.23490188668
-0.111628079517159,2000.24490188668
-0.0961391521778213,2000.25490188668
-0.0857669844774487,2000.26490188668
-0.0797980222758621,2000.27490188668
-0.0779139854738966,2000.28490188668
-0.0796881299351554,2000.29490188668
-0.0839905569112751,2000.30490188668
-0.0899359300679328,2000.31490188668
-0.0974424362534802,2000.32490188668
-0.105580855568217,2000.33490188668
-0.114772209297434,2000.34490188668
-0.123937830554688,2000.35490188668
-0.133735288708735,2000.36490188668
-0.143362158283479,2000.37490188668
-0.153500810790798,2000.38490188668
-0.163958459077567,2000.39490188668
-0.174821948328106,2000.40490188668
-0.186623460035663,2000.41490188668
-0.198347080202523,2000.42490188668
-0.210613576545693,2000.43490188668
-0.222430280083886,2000.44490188668
-0.233553154294966,2000.45490188668
-0.243388311264951,2000.46490188668
-0.252066174647453,2000.47490188668
-0.258892537521375,2000.48490188668
-0.264483179246985,2000.49490188668
-0.268825587594879,2000.50490188668
-0.271544981669806,2000.51490188668
-0.273670940489234,2000.52490188668
-0.275153741551777,2000.53490188668
-0.276415823298072,2000.54490188668
-0.277712520723217,2000.55490188668
-0.279688380758559,2000.56490188668
-0.282363871374581,2000.57490188668
-0.286815577149821,2000.58490188668
-0.292071896582078,2000.59490188668
-0.298878425958714,2000.60490188668
-0.306782671923438,2000.61490188668
-0.315638535323313,2000.62490188668
-0.325081965367356,2000.63490188668
-0.334926273189093,2000.64490188668
-0.345168134124601,2000.65490188668
-0.355430205912359,2000.66490188668
-0.365848842792646,2000.67490188668
-0.377099348699582,2000.68490188668
-0.388915415400934,2000.69490188668
-0.400928282858257,2000.70490188668
-0.413229672853314,2000.71490188668
-0.425904732841227,2000.72490188668
-0.438854775516674,2000.73490188668
-0.451866017791152,2000.74490188668
-0.464881394490879,2000.75490188668
-0.477543217532692,2000.76490188668
-0.490025447300108,2000.77490188668
-0.501914095683956,2000.78490188668
-0.513045179796664,2000.79490188668
-0.523576344789648,2000.80490188668
-0.533442125301423,2000.81490188668
-0.543084246511073,2000.82490188668
-0.552770771427386,2000.83490188668
-0.562541323515349,2000.84490188668
-0.572593423113993,2000.85490188668
-0.582636528808973,2000.86490188668
-0.592282660869497,2000.87490188668
-0.601698010698768,2000.88490188668
-0.61109486297859,2000.89490188668
-0.620587663125526,2000.90490188668
-0.629419837385971,2000.91490188668
-0.638015246612358,2000.92490188668
-0.646832401817361,2000.93490188668
-0.655510324988296,2000.94490188668
-0.66336553086834,2000.95490188668
-0.670905345061993,2000.96490188668
-0.675896035720885,2000.97490188668
-0.678605372000747,2000.98490188668
-0.676494291191563,2000.99490188668
-0.668553731014554,2001.00490188668
-0.65474934608506,2001.01490188668
-0.635299432828514,2001.02490188668
-0.611639916608037,2001.03490188668
-0.585885605709462,2001.04490188668
-0.55974781354567,2001.05490188668
-0.535315786544368,2001.06490188668
-0.51397596727128,2001.07490188668
-0.495323643088156,2001.08490188668
-0.480767561272275,2001.09490188668
-0.469593318457119,2001.10490188668
-0.461888402296976,2001.11490188668
-0.458449387408008,2001.12490188668
-0.458291716388696,2001.13490188668
-0.461427604580557,2001.14490188668
-0.466930749474642,2001.15490188668
-0.473629249888102,2001.16490188668
-0.481257491909037,2001.17490188668
-0.488698059219309,2001.18490188668
-0.495808348449015,2001.19490188668
-0.502808879932476,2001.20490188668
-0.509604333563787,2001.21490188668
-0.516213574684792,2001.22490188668
-0.523114835777205,2001.23490188668
-0.530316550502909,2001.24490188668
-0.537852303361413,2001.25490188668
-0.545376525195052,2001.26490188668
-0.553600062973341,2001.27490188668
-0.56182687126835,2001.28490188668
-0.569479805176097,2001.29490188668
-0.576171421019024,2001.30490188668
-0.581651202738861,2001.31490188668
-0.585315700064413,2001.32490188668
-0.588006897535575,2001.33490188668
-0.59034674244938,2001.34490188668
-0.591112865676786,2001.35490188668
-0.591693450496338,2001.36490188668
-0.591666215631471,2001.37490188668
-0.591794197277423,2001.38490188668
-0.592446213910156,2001.39490188668
-0.593547938183883,2001.40490188668
-0.595606018171909,2001.41490188668
-0.597933408333356,2001.42490188668
-0.600208575878115,2001.43490188668
-0.603270781886634,2001.44490188668
-0.606600132678506,2001.45490188668
-0.610076926832982,2001.46490188668
-0.614381041090953,2001.47490188668
-0.618977217973491,2001.48490188668
-0.623912298404323,2001.49490188668
-0.62967799921725,2001.50490188668
-0.63577437022161,2001.51490188668
-0.642317028426387,2001.52490188668
-0.649038803871007,2001.53490188668
-0.655981520113832,2001.54490188668
-0.662910661012607,2001.55490188668
-0.669739811482222,2001.56490188668
-0.67645042688447,2001.57490188668
-0.683286535877622,2001.58490188668
-0.690183370888565,2001.59490188668
-0.697243589219862,2001.60490188668
-0.7045014166249,2001.61490188668
-0.71197891945814,2001.62490188668
-0.719215731081889,2001.63490188668
-0.725944169544791,2001.64490188668
-0.732548682440809,2001.65490188668
-0.738663357962049,2001.66490188668
-0.74521164278363,2001.67490188668
-0.751699418148237,2001.68490188668
-0.758040228081944,2001.69490188668
-0.763782820633142,2001.70490188668
-0.769279879284556,2001.71490188668
-0.774353260834513,2001.72490188668
-0.779603636288123,2001.73490188668
-0.784927017806676,2001.74490188668
-0.790321071981394,2001.75490188668
-0.796340281961051,2001.76490188668
-0.801837461882343,2001.77490188668
-0.807291111907279,2001.78490188668
-0.812242814748119,2001.79490188668
-0.817589225503891,2001.80490188668
-0.822660242367132,2001.81490188668
-0.827501454840957,2001.82490188668
-0.831051929461557,2001.83490188668
-0.832775024846128,2001.84490188668
-0.831037795299116,2001.85490188668
-0.82528811399042,2001.86490188668
-0.815427016785744,2001.87490188668
-0.802016291045419,2001.88490188668
-0.785499136901607,2001.89490188668
-0.767427586528421,2001.90490188668
-0.748425112440659,2001.91490188668
-0.729923683821728,2001.92490188668
-0.712514126445526,2001.93490188668
-0.697020281191385,2001.94490188668
-0.68434954433696,2001.95490188668
-0.674463691177731,2001.96490188668
-0.667302956560648,2001.97490188668
-0.66243832546008,2001.98490188668
-0.660051883071144,2001.99490188668
-0.658475706036843,2002.00490188668
-0.658097324443493,2002.01490188668
-0.657998968441205,2002.02490188668
-0.658884503418984,2002.03490188668
-0.659552312100527,2002.04490188668
-0.660541356120953,2002.05490188668
-0.661241839583365,2002.06490188668
-0.661854457780875,2002.07490188668
-0.662189223615754,2002.08490188668
-0.662583522524354,2002.09490188668
-0.6633137179836,2002.10490188668
-0.665102148908383,2002.11490188668
-0.667119283651868,2002.12490188668
-0.669510742622331,2002.13490188668
-0.672333635423668,2002.14490188668
-0.675367047692243,2002.15490188668
-0.679199098777488,2002.16490188668
-0.682819277080153,2002.17490188668
-0.686500494891852,2002.18490188668
-0.689985289052865,2002.19490188668
-0.692203218589695,2002.20490188668
-0.693597644862688,2002.21490188668
-0.694422906254359,2002.22490188668
-0.694808205171112,2002.23490188668
-0.695110214252383,2002.24490188668
-0.694340070615656,2002.25490188668
-0.693766263377137,2002.26490188668
-0.69335173590637,2002.27490188668
-0.693397689212959,2002.28490188668
-0.69401654845473,2002.29490188668
-0.695292394772587,2002.30490188668
-0.697649175453361,2002.31490188668
-0.700593671418952,2002.32490188668
-0.703990738336618,2002.33490188668
-0.707693305164149,2002.34490188668
-0.711621987215472,2002.35490188668
-0.716035108412106,2002.36490188668
-0.720094109059372,2002.37490188668
-0.724028602458432,2002.38490188668
-0.727855047952699,2002.39490188668
-0.731822296053892,2002.40490188668
-0.736082930851437,2002.41490188668
-0.740211187332988,2002.42490188668
-0.744459593872378,2002.43490188668
-0.748445520841615,2002.44490188668
-0.752266522868693,2002.45490188668
-0.75586382263156,2002.46490188668
-0.759055419773083,2002.47490188668
-0.762273745670938,2002.48490188668
-0.76504592736045,2002.49490188668
-0.768083929589937,2002.50490188668
-0.770907730568026,2002.51490188668
-0.77383041194648,2002.52490188668
-0.776139788405599,2002.53490188668
-0.778931818610333,2002.54490188668
-0.781739928023851,2002.55490188668
-0.78498809090204,2002.56490188668
-0.78816937798173,2002.57490188668
-0.79097473572525,2002.58490188668
-0.793792667119869,2002.59490188668
-0.796874478387536,2002.60490188668
-0.79969215383785,2002.61490188668
-0.802391938209378,2002.62490188668
-0.804825173470259,2002.63490188668
-0.807387262442616,2002.64490188668
-0.810098443398799,2002.65490188668
-0.812792862506285,2002.66490188668
-0.814796516539414,2002.67490188668
-0.816358728466114,2002.68490188668
-0.817666079518476,2002.69490188668
-0.818938445145288,2002.70490188668
-0.820983189167016,2002.71490188668
-0.823583421881099,2002.72490188668
-0.826631927760062,2002.73490188668
-0.829703447239871,2002.74490188668
-0.832077806360703,2002.75490188668
-0.833226934408466,2002.76490188668
-0.832258290294219,2002.77490188668
-0.829086174097366,2002.78490188668
-0.822604969211541,2002.79490188668
-0.812629986778328,2002.80490188668
-0.799382091888214,2002.81490188668
-0.784080679307248,2002.82490188668
-0.767302924782417,2002.83490188668
-0.749922782854041,2002.84490188668
-0.73371847173435,2002.85490188668
-0.718403657556399,2002.86490188668
-0.704888220956782,2002.87490188668
-0.693381786905684,2002.88490188668
-0.68370098028949,2002.89490188668
-0.676753175576805,2002.90490188668
-0.672125675506091,2002.91490188668
-0.669280152849538,2002.92490188668
-0.667877422981622,2002.93490188668
-0.667219451361143,2002.94490188668
-0.667101471355699,2002.95490188668
-0.666947485063972,2002.96490188668
-0.666800368294147,2002.97490188668
-0.666025405789559,2002.98490188668
-0.664837647450927,2002.99490188668
-0.663194463466683,2003.00490188668
-0.661630775100915,2003.01490188668
-0.660316992395062,2003.02490188668
-0.659374942949489,2003.03490188668
-0.659039684316944,2003.04490188668
-0.659063358812693,2003.05490188668
-0.659970486438742,2003.06490188668
-0.660947918058506,2003.07490188668
-0.661671282662713,2003.08490188668
-0.662622382288407,2003.09490188668
-0.663168127585284,2003.10490188668
-0.66357442426656,2003.11490188668
-0.663258628539326,2003.12490188668
-0.663181070016014,2003.13490188668
-0.662659831697118,2003.14490188668
-0.662105513028392,2003.15490188668
-0.661236180671946,2003.16490188668
-0.660390979720384,2003.17490188668
-0.65956096179316,2003.18490188668
-0.658371636194811,2003.19490188668
-0.657181271233183,2003.20490188668
-0.655480070271774,2003.21490188668
-0.654133060323686,2003.22490188668
-0.653153850764575,2003.23490188668
-0.652812928974319,2003.24490188668
-0.653725671922291,2003.25490188668
-0.654833527507384,2003.26490188668
-0.655944070440143,2003.27490188668
-0.657429047173572,2003.28490188668
-0.658347151123576,2003.29490188668
-0.659724172213603,2003.30490188668
-0.66122240526016,2003.31490188668
-0.663254542736271,2003.32490188668
-0.665886231186976,2003.33490188668
-0.668021715931532,2003.34490188668
-0.670239974174395,2003.35490188668
-0.672017015070449,2003.36490188668
-0.673891742056344,2003.37490188668
-0.675827037525881,2003.38490188668
-0.677433206786695,2003.39490188668
-0.678892978345308,2003.40490188668
-0.68021545536088,2003.41490188668
-0.681539266334843,2003.42490188668
-0.682693313312259,2003.43490188668
-0.684207271935994,2003.44490188668
-0.6861772811138,2003.45490188668
-0.688497384942981,2003.46490188668
-0.69068330476876,2003.47490188668
-0.692765296980807,2003.48490188668
-0.694650119774343,2003.49490188668
-0.695785132840873,2003.50490188668
-0.696514493723477,2003.51490188668
-0.697053318380389,2003.52490188668
-0.697914420856061,2003.53490188668
-0.698927911892807,2003.54490188668
-0.699634623453368,2003.55490188668
-0.700641852820737,2003.56490188668
-0.701689510290576,2003.57490188668
-0.70267765149658,2003.58490188668
-0.703985064685742,2003.59490188668
-0.70491308094336,2003.60490188668
-0.706517229666373,2003.61490188668
-0.707557153592082,2003.62490188668
-0.708525273163197,2003.63490188668
-0.70939724211073,2003.64490188668
-0.709910920979681,2003.65490188668
-0.710295051154618,2003.66490188668
-0.710495717799019,2003.67490188668
-0.710078181309375,2003.68490188668
-0.708919525150623,2003.69490188668
-0.705884295146348,2003.70490188668
-0.699541209031204,2003.71490188668
-0.689575601081194,2003.72490188668
-0.676500321512956,2003.73490188668
-0.661353229075719,2003.74490188668
-0.644832018785096,2003.75490188668
-0.628191517056331,2003.76490188668
-0.611253056030249,2003.77490188668
-0.595606384459848,2003.78490188668
-0.581438344922524,2003.79490188668
-0.569506396667863,2003.80490188668
-0.560247240682642,2003.81490188668
-0.55353975065756,2003.82490188668
-0.548784996225407,2003.83490188668
-0.545073240661525,2003.84490188668
-0.543020482931698,2003.85490188668
-0.541736619258885,2003.86490188668
-0.541282018078265,2003.87490188668
-0.541192555827566,2003.88490188668
-0.540805468655754,2003.89490188668
-0.540671623016276,2003.90490188668
-0.540248856443946,2003.91490188668
-0.539163645380354,2003.92490188668
-0.537909426316651,2003.93490188668
-0.536711371008409,2003.94490188668
-0.536077449124916,2003.95490188668
-0.535854833127571,2003.96490188668
-0.536651164182077,2003.97490188668
-0.537996412367727,2003.98490188668
-0.538681504582042,2003.99490188668
-0.538557531437166,2004.00490188668
-0.537605529228946,2004.01490188668
-0.535618361167467,2004.02490188668
-0.53329407867702,2004.03490188668
-0.530688248633426,2004.04490188668
-0.528032104109225,2004.05490188668
-0.525696829203001,2004.06490188668
-0.523003982266997,2004.07490188668
-0.520266360083367,2004.08490188668
-0.517262544099195,2004.09490188668
-0.514276901559927,2004.10490188668
-0.511106957908463,2004.11490188668
-0.508744995928806,2004.12490188668
-0.50677610804144,2004.13490188668
-0.505346641435564,2004.14490188668
-0.503587070280765,2004.15490188668
-0.502086728787483,2004.16490188668
-0.500315302140992,2004.17490188668
-0.498880868478622,2004.18490188668
-0.49788486100755,2004.19490188668
-0.496981015256668,2004.20490188668
-0.496776582071738,2004.21490188668
-0.496093320763846,2004.22490188668
-0.496076813529596,2004.23490188668
-0.496168646810801,2004.24490188668
-0.496926915390712,2004.25490188668
-0.498015015448609,2004.26490188668
-0.499336836335046,2004.27490188668
-0.500706998761239,2004.28490188668
-0.501877534953611,2004.29490188668
-0.502862209172452,2004.30490188668
-0.504084764789316,2004.31490188668
-0.504913662379429,2004.32490188668
-0.505790323798828,2004.33490188668
-0.506633381958319,2004.34490188668
-0.507135219418354,2004.35490188668
-0.507570063212042,2004.36490188668
-0.507694611608228,2004.37490188668
-0.50805894034672,2004.38490188668
-0.508519967462747,2004.39490188668
-0.50973790905841,2004.40490188668
-0.510888758994223,2004.41490188668
-0.511774659838559,2004.42490188668
-0.512820243447223,2004.43490188668
-0.513931961479255,2004.44490188668
-0.514682392850839,2004.45490188668
-0.515365900489333,2004.46490188668
-0.5159914010084,2004.47490188668
-0.516340196197889,2004.48490188668
-0.516417433138725,2004.49490188668
-0.516370618341305,2004.50490188668
-0.516088569389699,2004.51490188668
-0.515830485665557,2004.52490188668
-0.515520724825598,2004.53490188668
-0.515325109240552,2004.54490188668
-0.515317570457968,2004.55490188668
-0.515682930990405,2004.56490188668
-0.515440925413245,2004.57490188668
-0.515318088507987,2004.58490188668
-0.51453951049662,2004.59490188668
-0.511479187570477,2004.60490188668
-0.506174463892225,2004.61490188668
-0.497371326394865,2004.62490188668
-0.484443670449802,2004.63490188668
-0.46842459043226,2004.64490188668
-0.44981862275326,2004.65490188668
-0.429825462601158,2004.66490188668
-0.409337059159437,2004.67490188668
-0.38911845578686,2004.68490188668
-0.370065287244121,2004.69490188668
-0.352899695189972,2004.70490188668
-0.33783157172047,2004.71490188668
-0.325308634610856,2004.72490188668
-0.315164946096585,2004.73490188668
-0.307676094402965,2004.74490188668
-0.301597325123731,2004.75490188668
-0.297251936549094,2004.76490188668
-0.293915770045491,2004.77490188668
-0.291759214321833,2004.78490188668
-0.290428673554178,2004.79490188668
-0.288518293188856,2004.80490188668
-0.28598208055725,2004.81490188668
-0.283402600929687,2004.82490188668
-0.280626016243054,2004.83490188668
-0.278432681646986,2004.84490188668
-0.276172707378032,2004.85490188668
-0.273931101000448,2004.86490188668
-0.272694111033469,2004.87490188668
-0.271833874070545,2004.88490188668
-0.271724787338438,2004.89490188668
-0.271236307958811,2004.90490188668
-0.271404457633156,2004.91490188668
-0.271435784698216,2004.92490188668
-0.271057434126622,2004.93490188668
-0.27033207577922,2004.94490188668
-0.269078703103787,2004.95490188668
-0.267442847380826,2004.96490188668
-0.265062441478752,2004.97490188668
-0.262426848016959,2004.98490188668
-0.258960151320164,2004.99490188668
-0.255360330356084,2005.00490188668
-0.251628522865538,2005.01490188668
-0.24802511285132,2005.02490188668
-0.245160869677147,2005.03490188668
-0.243036878774809,2005.04490188668
-0.241152473481807,2005.05490188668
-0.239487513248427,2005.06490188668
-0.238092516891867,2005.07490188668
-0.23762367482674,2005.08490188668
-0.237527248771966,2005.09490188668
-0.237727528598492,2005.10490188668
-0.238512001841451,2005.11490188668
-0.240086475914319,2005.12490188668
-0.241651863579934,2005.13490188668
-0.24407005600114,2005.14490188668
-0.246206577003676,2005.15490188668
-0.247728083919683,2005.16490188668
-0.249434852824733,2005.17490188668
-0.250936534019128,2005.18490188668
-0.25264410311809,2005.19490188668
-0.255145053147812,2005.20490188668
-0.25733415716341,2005.21490188668
-0.260109643041294,2005.22490188668
-0.262329893237419,2005.23490188668
-0.264855877553401,2005.24490188668
-0.266982210653247,2005.25490188668
-0.268827242152461,2005.26490188668
-0.271020075912476,2005.27490188668
-0.273484508718533,2005.28490188668
-0.275644729472028,2005.29490188668
-0.278132057861879,2005.30490188668
-0.280931336060734,2005.31490188668
-0.283577200370294,2005.32490188668
-0.286023512225884,2005.33490188668
-0.288448765491543,2005.34490188668
-0.289663333840924,2005.35490188668
-0.290919089334958,2005.36490188668
-0.291330915404408,2005.37490188668
-0.291889353443253,2005.38490188668
-0.293088177281947,2005.39490188668
-0.294639438074012,2005.40490188668
-0.296427304079835,2005.41490188668
-0.298189402807924,2005.42490188668
-0.300015749318192,2005.43490188668
-0.30118052412666,2005.44490188668
-0.302799894614413,2005.45490188668
-0.304382850991004,2005.46490188668
-0.305763157826305,2005.47490188668
-0.3076391624039,2005.48490188668
-0.308807158989972,2005.49490188668
-0.310343284715665,2005.50490188668
-0.312720281370422,2005.51490188668
-0.315194448293631,2005.52490188668
-0.317404745434576,2005.53490188668
-0.318725897672682,2005.54490188668
-0.318599086929004,2005.55490188668
-0.314851131317184,2005.56490188668
-0.30768947686993,2005.57490188668
-0.295824603438501,2005.58490188668
-0.278878431240187,2005.59490188668
-0.258290934838141,2005.60490188668
-0.234624318076375,2005.61490188668
-0.209794135535209,2005.62490188668
-0.184954445350355,2005.63490188668
-0.16140732495159,2005.64490188668
-0.140394228602232,2005.65490188668
-0.12210486648459,2005.66490188668
-0.107296405950618,2005.67490188668
-0.0954338897053805,2005.68490188668
-0.0864735073199867,2005.69490188668
-0.0796372633151044,2005.70490188668
-0.0749022745282226,2005.71490188668
-0.0718126083432882,2005.72490188668
-0.0700250330202082,2005.73490188668
-0.0693085653091985,2005.74490188668
-0.0688031616233599,2005.75490188668
-0.0690220274827615,2005.76490188668
-0.0694231994979465,2005.77490188668
-0.0693996629574402,2005.78490188668
-0.0693955282711681,2005.79490188668
-0.0697204814070713,2005.80490188668
-0.0698471894299961,2005.81490188668
-0.070804229776937,2005.82490188668
-0.0719407005081332,2005.83490188668
-0.0734360542728141,2005.84490188668
-0.075307735814754,2005.85490188668
-0.0775347543006188,2005.86490188668
-0.0801862385307859,2005.87490188668
-0.0820194374188465,2005.88490188668
-0.0838801943658076,2005.89490188668
-0.084855991598795,2005.90490188668
-0.0851380975935966,2005.91490188668
-0.0846992776407006,2005.92490188668
-0.0838965798891969,2005.93490188668
-0.0823138036952451,2005.94490188668
-0.0808353928035325,2005.95490188668
-0.0787369645439868,2005.96490188668
-0.0760387925266287,2005.97490188668
-0.0738782058296473,2005.98490188668
-0.0718197511913444,2005.99490188668
-0.0707750718796787,2006.00490188668
-0.070295394868814,2006.01490188668
-0.0709897499590424,2006.02490188668
-0.0720177642394354,2006.03490188668
-0.073900954888636,2006.04490188668
-0.0768802684390404,2006.05490188668
-0.0809268761166862,2006.06490188668
-0.0853358521512916,2006.07490188668
-0.0899482294817518,2006.08490188668
-0.0946905830749706,2006.09490188668
-0.0991712186325245,2006.10490188668
-0.102879671170865,2006.11490188668
-0.106421533543334,2006.12490188668
-0.109956677851596,2006.13490188668
-0.113876459875069,2006.14490188668
-0.117999599244463,2006.15490188668
-0.12222331434122,2006.16490188668
-0.126955015000232,2006.17490188668
-0.131380755547457,2006.18490188668
-0.135763668416246,2006.19490188668
-0.140228680169118,2006.20490188668
-0.144063312220129,2006.21490188668
-0.147766307184337,2006.22490188668
-0.151346134003635,2006.23490188668
-0.154762669821955,2006.24490188668
-0.158101302593502,2006.25490188668
-0.161455526103318,2006.26490188668
-0.165227034157268,2006.27490188668
-0.168825125045747,2006.28490188668
-0.172452065628383,2006.29490188668
-0.17615772140806,2006.30490188668
-0.179516657040494,2006.31490188668
-0.182665035362036,2006.32490188668
-0.185274466771878,2006.33490188668
-0.187752631041898,2006.34490188668
-0.190224859501734,2006.35490188668
-0.192751894866792,2006.36490188668
-0.195092260459295,2006.37490188668
-0.197869732951553,2006.38490188668
-0.20091850810482,2006.39490188668
-0.204068311179889,2006.40490188668
-0.207232076682675,2006.41490188668
-0.210710709142772,2006.42490188668
-0.213754069026243,2006.43490188668
-0.216558667999631,2006.44490188668
-0.219085387749127,2006.45490188668
-0.221680978402047,2006.46490188668
-0.224132602221444,2006.47490188668
-0.224917337147056,2006.48490188668
-0.223126039022973,2006.49490188668
-0.217539265358143,2006.50490188668
-0.20770300472851,2006.51490188668
-0.193726714483404,2006.52490188668
-0.175626035570082,2006.53490188668
-0.155289748400652,2006.54490188668
-0.133766016446141,2006.55490188668
-0.11224862604617,2006.56490188668
-0.0920937320101518,2006.57490188668
-0.0739562644081126,2006.58490188668
-0.0583711974812413,2006.59490188668
-0.0457919716055466,2006.60490188668
-0.0367131547494374,2006.61490188668
-0.0300038238164497,2006.62490188668
-0.0255005487091642,2006.63490188668
-0.0235298140332481,2006.64490188668
-0.0235141694653984,2006.65490188668
-0.0253003795786696,2006.66490188668
-0.0277822853615467,2006.67490188668
-0.0304026703147363,2006.68490188668
-0.0330611692588896,2006.69490188668
-0.0355976181812046,2006.70490188668
-0.0377714600945142,2006.71490188668
-0.0399530478853764,2006.72490188668
-0.0420414861305494,2006.73490188668
-0.0438461518055428,2006.74490188668
-0.0461380394823635,2006.75490188668
-0.0486277134355856,2006.76490188668
-0.0518545425464475,2006.77490188668
-0.0554714067825108,2006.78490188668
-0.0589921546314521,2006.79490188668
-0.0627430688298833,2006.80490188668
-0.0657360695994803,2006.81490188668
-0.068313767252249,2006.82490188668
-0.0706004466284025,2006.83490188668
-0.0714844463630509,2006.84490188668
-0.0712138826323941,2006.85490188668
-0.0702586955230679,2006.86490188668
-0.0686224722842703,2006.87490188668
-0.0664850612206339,2006.88490188668
-0.064201244945828,2006.89490188668
-0.0619256284272512,2006.90490188668
-0.0602343805557118,2006.91490188668
-0.0585846902212653,2006.92490188668
-0.0579485175830214,2006.93490188668
-0.0578724357659436,2006.94490188668
-0.0581536921629024,2006.95490188668
-0.0590708066957868,2006.96490188668
-0.0607737762470796,2006.97490188668
-0.0632090449489535,2006.98490188668
-0.0660981539832105,2006.99490188668
-0.0691737674427009,2007.00490188668
-0.0727949155581451,2007.01490188668
-0.0759813273593389,2007.02490188668
-0.0791114744108069,2007.03490188668
-0.0824678075636441,2007.04490188668
-0.0856763365980832,2007.05490188668
-0.0892015446271516,2007.06490188668
-0.0931963962910792,2007.07490188668
-0.0968992024571992,2007.08490188668
-0.101296417843617,2007.09490188668
-0.10508002528695,2007.10490188668
-0.108624171972063,2007.11490188668
-0.112133984860649,2007.12490188668
-0.115588216794614,2007.13490188668
-0.119668152969534,2007.14490188668
-0.123662032225343,2007.15490188668
-0.127816202859991,2007.16490188668
-0.131292044413564,2007.17490188668
-0.134714911375614,2007.18490188668
-0.137910797463713,2007.19490188668
-0.140990596629859,2007.20490188668
-0.143567054322977,2007.21490188668
-0.145729410780256,2007.22490188668
-0.148363571117427,2007.23490188668
-0.150683964743215,2007.24490188668
-0.15338488783755,2007.25490188668
-0.155954934847108,2007.26490188668
-0.1585331822733,2007.27490188668
-0.1608860601112,2007.28490188668
-0.163268125781003,2007.29490188668
-0.165836906865906,2007.30490188668
-0.169144389156342,2007.31490188668
-0.172330463878105,2007.32490188668
-0.175667267579165,2007.33490188668
-0.179050901502546,2007.34490188668
-0.182191993981315,2007.35490188668
-0.184222159706768,2007.36490188668
-0.18535997640886,2007.37490188668
-0.184555434342125,2007.38490188668
-0.180887618185531,2007.39490188668
-0.173402905493867,2007.40490188668
-0.161681659914538,2007.41490188668
-0.145671012987308,2007.42490188668
-0.125942812358674,2007.43490188668
-0.103642369256675,2007.44490188668
-0.0811602492123424,2007.45490188668
-0.0589515880451759,2007.46490188668
-0.038453163165832,2007.47490188668
-0.0206119915988486,2007.48490188668
-0.00507946850578725,2007.49490188668
0.00715757593367621,2007.50490188668
0.0170167689721966,2007.51490188668
0.0236840054168558,2007.52490188668
0.0276271951768368,2007.53490188668
0.0296885449866811,2007.54490188668
0.029515860513667,2007.55490188668
0.0284768911796469,2007.56490188668
0.0264558476624147,2007.57490188668
0.0243610586390584,2007.58490188668
0.0223618810263792,2007.59490188668
0.0206275986875584,2007.60490188668
0.0192822139159701,2007.61490188668
0.018598086096889,2007.62490188668
0.0174211647790713,2007.63490188668
0.0160156390578097,2007.64490188668
0.0141306080198783,2007.65490188668
0.011271792176841,2007.66490188668
0.00787066026521797,2007.67490188668
0.00460956079472433,2007.68490188668
0.00156891021762552,2007.69490188668
-0.00159223835005311,2007.70490188668
-0.00364520158735815,2007.71490188668
-0.00552275371748971,2007.72490188668
-0.00676668367528615,2007.73490188668
-0.0071063873424582,2007.74490188668
-0.00718992331269872,2007.75490188668
-0.00653580986829819,2007.76490188668
-0.00569647776278012,2007.77490188668
-0.00404013965147759,2007.78490188668
-0.00253832407581433,2007.79490188668
-0.000681340175935301,2007.80490188668
0.000660566449363791,2007.81490188668
0.00161979569001493,2007.82490188668
0.00216994627339231,2007.83490188668
0.00202325008272694,2007.84490188668
0.000908372735647967,2007.85490188668
-0.000574809865292185,2007.86490188668
-0.0027661918426677,2007.87490188668
-0.00534064771584423,2007.88490188668
-0.00788520472802428,2007.89490188668
-0.010925803002316,2007.90490188668
-0.0142265357349489,2007.91490188668
-0.0179458570748351,2007.92490188668
-0.0223727898484505,2007.93490188668
-0.0263889433834589,2007.94490188668
-0.0310306365175795,2007.95490188668
-0.0359432662225932,2007.96490188668
-0.0411379674018325,2007.97490188668
-0.045864656144214,2007.98490188668
-0.0501811388238222,2007.99490188668
-0.054074136257649,2008.00490188668
-0.0574990011537668,2008.01490188668
-0.0607496457025053,2008.02490188668
-0.0639404123659753,2008.03490188668
-0.0675299875582042,2008.04490188668
-0.0716807076017351,2008.05490188668
-0.075684760915709,2008.06490188668
-0.0798950715321715,2008.07490188668
-0.0838222865460523,2008.08490188668
-0.0876920687447596,2008.09490188668
-0.0919335927064285,2008.10490188668
-0.0959643548291979,2008.11490188668
-0.100390280508682,2008.12490188668
-0.10432576986449,2008.13490188668
-0.108025809550778,2008.14490188668
-0.111722534371343,2008.15490188668
-0.114657379973029,2008.16490188668
-0.117600715884312,2008.17490188668
-0.120491402183327,2008.18490188668
-0.123470332849155,2008.19490188668
-0.126376938715963,2008.20490188668
-0.130103713012408,2008.21490188668
-0.134181073558567,2008.22490188668
-0.138487564454231,2008.23490188668
-0.142895204819816,2008.24490188668
-0.147535685091293,2008.25490188668
-0.152062496869986,2008.26490188668
-0.156849264402115,2008.27490188668
-0.160467589111979,2008.28490188668
-0.163068851643518,2008.29490188668
-0.163357648543202,2008.30490188668
-0.159114055336554,2008.31490188668
-0.150486207250323,2008.32490188668
-0.136994323853711,2008.33490188668
-0.119452729187782,2008.34490188668
-0.0985183261644967,2008.35490188668
-0.0748634759630943,2008.36490188668
-0.0502532699329911,2008.37490188668
-0.0260008440830158,2008.38490188668
-0.00352921543772555,2008.39490188668
0.0160154236461226,2008.40490188668
0.032197838438987,2008.41490188668
0.0449756025502596,2008.42490188668
0.0547159541854084,2008.43490188668
0.0608841949663908,2008.44490188668
0.0649237092134488,2008.45490188668
0.0670650747860233,2008.46490188668
0.0674536391179346,2008.47490188668
0.0663692355843329,2008.48490188668
0.0643406899126425,2008.49490188668
0.0612400960035388,2008.50490188668
0.0575596762512617,2008.51490188668
0.0538204307941048,2008.52490188668
0.050169797231509,2008.53490188668
0.04696648964868,2008.54490188668
0.0437949814781347,2008.55490188668
0.0408811366183946,2008.56490188668
0.0374590139723033,2008.57490188668
0.0334886935545553,2008.58490188668
0.0288800815459121,2008.59490188668
0.0242086631309577,2008.60490188668
0.0200049105185179,2008.61490188668
0.0154626002600144,2008.62490188668
0.0124961477902526,2008.63490188668
0.010331256701202,2008.64490188668
0.00902470686621993,2008.65490188668
0.00842519896170684,2008.66490188668
0.0086519016224685,2008.67490188668
0.00978437365702095,2008.68490188668
0.0109809465070335,2008.69490188668
0.0126136988160612,2008.70490188668
0.0148456366010745,2008.71490188668
0.0167827492037824,2008.72490188668
0.018107241553418,2008.73490188668
0.0188513705833208,2008.74490188668
0.0185555298818276,2008.75490188668
0.01755292712428,2008.76490188668
0.0161208870769959,2008.77490188668
0.0142406162561904,2008.78490188668
0.0121318140922245,2008.79490188668
0.00997511598949444,2008.80490188668
0.00665476511110498,2008.81490188668
0.00274503438326257,2008.82490188668
-0.00190539784846143,2008.83490188668
-0.00735002038037677,2008.84490188668
-0.0127089798478098,2008.85490188668
-0.0182331604295469,2008.86490188668
-0.0235083765821475,2008.87490188668
-0.02875965770563,2008.88490188668
-0.0328400737522429,2008.89490188668
-0.0373557217933192,2008.90490188668
-0.0419767138100119,2008.91490188668
-0.04640056163707,2008.92490188668
-0.0511204062011379,2008.93490188668
-0.0559315143419771,2008.94490188668
-0.0607580969694933,2008.95490188668
-0.0655950388525631,2008.96490188668
-0.0702489466102226,2008.97490188668
-0.0746340206341734,2008.98490188668
-0.0791106725080887,2008.99490188668
-0.083030525522613,2009.00490188668
-0.0869912087497959,2009.01490188668
-0.0902694150534661,2009.02490188668
-0.0933270632865122,2009.03490188668
-0.0958903441335036,2009.04490188668
-0.0984560088656919,2009.05490188668
-0.101158722794547,2009.06490188668
-0.104540722867129,2009.07490188668
-0.107973391131736,2009.08490188668
-0.1115711913851,2009.09490188668
-0.115115920435105,2009.10490188668
-0.118622102769585,2009.11490188668
-0.122645456436682,2009.12490188668
-0.126872827721225,2009.13490188668
-0.130782413121012,2009.14490188668
-0.134679910506706,2009.15490188668
-0.138262599478668,2009.16490188668
-0.140673945013816,2009.17490188668
-0.14122458768275,2009.18490188668
-0.138766386292797,2009.19490188668
-0.131851640282726,2009.20490188668
-0.120547971906171,2009.21490188668
-0.103968394317292,2009.22490188668
-0.0829257660670107,2009.23490188668
-0.059129774855915,2009.24490188668
-0.0339369348019894,2009.25490188668
-0.00888917946096588,2009.26490188668
0.0141373606313124,2009.27490188668
0.0353477033857624,2009.28490188668
0.0539027234341541,2009.29490188668
0.0694972381878309,2009.30490188668
0.0815020529135425,2009.31490188668
0.0909153254139381,2009.32490188668
0.097180700403829,2009.33490188668
0.100525477620733,2009.34490188668
0.101475171948491,2009.35490188668
0.0999900971561253,2009.36490188668
0.096935073737706,2009.37490188668
0.0928829535669446,2009.38490188668
0.088778510431885,2009.39490188668
0.0852064355839881,2009.40490188668
0.0820440802397221,2009.41490188668
0.0788707014172276,2009.42490188668
0.0756427890954429,2009.43490188668
0.0726622063287774,2009.44490188668
0.0690003502261919,2009.45490188668
0.0652504880689022,2009.46490188668
0.060869308668017,2009.47490188668
0.0561404153518711,2009.48490188668
0.0512627905971633,2009.49490188668
0.0472552013464406,2009.50490188668
0.0437176901821422,2009.51490188668
0.0410077318409227,2009.52490188668
0.0393220455891801,2009.53490188668
0.0387529840593174,2009.54490188668
0.0392264979134729,2009.55490188668
0.0401769643927191,2009.56490188668
0.0421201107187456,2009.57490188668
0.0450411814483716,2009.58490188668
0.0488373589363696,2009.59490188668
0.0522687252340594,2009.60490188668
0.0546775536884161,2009.61490188668
0.0553671777100594,2009.62490188668
0.0555304568454273,2009.63490188668
0.0551572755625168,2009.64490188668
0.054226962637132,2009.65490188668
0.0531594790266779,2009.66490188668
0.051231944965377,2009.67490188668
0.049285780611079,2009.68490188668
0.0465198470176491,2009.69490188668
0.0426898077040166,2009.70490188668
0.0387282904668549,2009.71490188668
0.0343438225950096,2009.72490188668
0.0300404808743713,2009.73490188668
0.0254374121753391,2009.74490188668
0.021116627846746,2009.75490188668
0.0168625184799101,2009.76490188668
0.0123245642714765,2009.77490188668
0.00765851381706497,2009.78490188668
0.00266594842435633,2009.79490188668
-0.00204615947950628,2009.80490188668
-0.00704349642712237,2009.81490188668
-0.0119371137442015,2009.82490188668
-0.016757389192191,2009.83490188668
-0.0215743323174718,2009.84490188668
-0.0257531303597645,2009.85490188668
-0.0303352776761558,2009.86490188668
-0.0343808354361287,2009.87490188668
-0.038621350450005,2009.88490188668
-0.0426065411800125,2009.89490188668
-0.0466179192717403,2009.90490188668
-0.0504950743669835,2009.91490188668
-0.0542750449467936,2009.92490188668
-0.0584203389456817,2009.93490188668
-0.0624400044813261,2009.94490188668
-0.0665425093175453,2009.95490188668
-0.0703920888991362,2009.96490188668
-0.0739817486902221,2009.97490188668
-0.0774675109193537,2009.98490188668
-0.0813298279198145,2009.99490188668
-0.0851483877227852,2010.00490188668
-0.088381944829105,2010.01490188668
-0.0917588638749104,2010.02490188668
-0.0955847972753912,2010.03490188668
-0.0997195755315024,2010.04490188668
-0.103226824067168,2010.05490188668
-0.104938702790954,2010.06490188668
-0.10415373009756,2010.07490188668
-0.0992364336886485,2010.08490188668
-0.089123082158534,2010.09490188668
-0.0738747148178523,2010.10490188668
-0.0535863118307147,2010.11490188668
-0.0298172096832049,2010.12490188668
-0.00403409457433824,2010.13490188668
0.0231172553175101,2010.14490188668
0.0491386650625055,2010.15490188668
0.0732840873961035,2010.16490188668
0.0947310296454011,2010.17490188668
0.113220021825332,2010.18490188668
0.127702701503829,2010.19490188668
0.138915528131068,2010.20490188668
0.146890933032695,2010.21490188668
0.152002392372114,2010.22490188668
0.154924985428934,2010.23490188668
0.156160683475217,2010.24490188668
0.155833491074397,2010.25490188668
0.154254268992642,2010.26490188668
0.1521460417586,2010.27490188668
0.149718438310695,2010.28490188668
0.14700184557546,2010.29490188668
0.143910253457418,2010.30490188668
0.140531478161737,2010.31490188668
0.137049524977377,2010.32490188668
0.13313955015958,2010.33490188668
0.12921765907085,2010.34490188668
0.125268116133952,2010.35490188668
0.120996185798907,2010.36490188668
0.116802689449523,2010.37490188668
0.112803424252776,2010.38490188668
0.109254599961752,2010.39490188668
0.106388115897293,2010.40490188668
0.103608265411942,2010.41490188668
0.102052682250291,2010.42490188668
0.101155634215503,2010.43490188668
0.100901154888518,2010.44490188668
0.101212670234082,2010.45490188668
0.101622655661667,2010.46490188668
0.102934279529934,2010.47490188668
0.104079326941384,2010.48490188668
0.105949610569805,2010.49490188668
0.107148163772183,2010.50490188668
0.108032127707331,2010.51490188668
0.10820279609546,2010.52490188668
0.107430317187494,2010.53490188668
0.106302602703713,2010.54490188668
0.104833548218335,2010.55490188668
0.102623995018122,2010.56490188668
0.0999445324572907,2010.57490188668
0.096681303660649,2010.58490188668
0.0929265735968862,2010.59490188668
0.0882653990748306,2010.60490188668
0.0831364063198578,2010.61490188668
0.0781780705591373,2010.62490188668
0.0730077339898664,2010.63490188668
0.0674370353552897,2010.64490188668
0.0626393347397653,2010.65490188668
0.0578202592115346,2010.66490188668
0.053341843990954,2010.67490188668
0.0489758934021809,2010.68490188668
0.0444614810095215,2010.69490188668
0.0397170670478687,2010.70490188668
0.0348482413849212,2010.71490188668
0.029635892596272,2010.72490188668
0.0247759846111985,2010.73490188668
0.0197583690674754,2010.74490188668
0.0149009591269161,2010.75490188668
0.0101876178620258,2010.76490188668
0.00540037383265443,2010.77490188668
0.000793683634227855,2010.78490188668
-0.00395618681951286,2010.79490188668
-0.00858640180650836,2010.80490188668
-0.01314491377566,2010.81490188668
-0.01690641935043,2010.82490188668
-0.0207431568032135,2010.83490188668
-0.024490250803405,2010.84490188668
-0.027991406625443,2010.85490188668
-0.0313939469208973,2010.86490188668
-0.0349755865194758,2010.87490188668
-0.038885290778382,2010.88490188668
-0.0430497931071826,2010.89490188668
-0.0473564183769904,2010.90490188668
-0.0511100511109494,2010.91490188668
-0.0541955868027454,2010.92490188668
-0.056096702782893,2010.93490188668
-0.0553094676767805,2010.94490188668
-0.0507190611867385,2010.95490188668
-0.0411486736728214,2010.96490188668
-0.0258962429896864,2010.97490188668
-0.00520428131912874,2010.98490188668
0.0193824483762111,2010.99490188668
0.046250791422935,2011.00490188668
0.0741197774829925,2011.01490188668
0.101774816344584,2011.02490188668
0.127495257163169,2011.03490188668
0.151292811754096,2011.04490188668
0.171487455941694,2011.05490188668
0.188268997063115,2011.06490188668
0.201281646212985,2011.07490188668
0.210858098049385,2011.08490188668
0.21682172295506,2011.09490188668
0.220226296251267,2011.10490188668
0.221345252917278,2011.11490188668
0.220983336249671,2011.12490188668
0.219280480376985,2011.13490188668
0.216595126180483,2011.14490188668
0.213324821105657,2011.15490188668
0.209320037050934,2011.16490188668
0.205262592598008,2011.17490188668
0.201309466749668,2011.18490188668
0.197046366790682,2011.19490188668
0.192696703617314,2011.20490188668
0.187754308423294,2011.21490188668
0.182033006090657,2011.22490188668
0.175950157709662,2011.23490188668
0.169587638674315,2011.24490188668
0.162802901807512,2011.25490188668
0.156084334626946,2011.26490188668
0.150323153431276,2011.27490188668
0.145500045112633,2011.28490188668
0.142357443095856,2011.29490188668
0.139854836656919,2011.30490188668
0.139207536511978,2011.31490188668
0.138979777466293,2011.32490188668
0.139471472241697,2011.33490188668
0.140947756670931,2011.34490188668
0.141780669938902,2011.35490188668
0.142388027935531,2011.36490188668
0.14317352787039,2011.37490188668
0.143379127554013,2011.38490188668
0.143518825116296,2011.39490188668
0.142870889194057,2011.40490188668
0.141969835438932,2011.41490188668
0.140285730460507,2011.42490188668
0.136810855503299,2011.43490188668
0.132310704914824,2011.44490188668
0.126944070712598,2011.45490188668
0.121244074906484,2011.46490188668
0.114701358707777,2011.47490188668
0.108188512988794,2011.48490188668
0.101382942157299,2011.49490188668
0.0941185022831468,2011.50490188668
0.0874021536630346,2011.51490188668
0.0805722904541698,2011.52490188668
0.0731055894618918,2011.53490188668
0.0654022681410493,2011.54490188668
0.0580656035725827,2011.55490188668
0.0512666016973323,2011.56490188668
0.0449624547066127,2011.57490188668
0.039111253177306,2011.58490188668
0.033693389982124,2011.59490188668
0.0282305671772405,2011.60490188668
0.0223438843522104,2011.61490188668
0.0167453105450706,2011.62490188668
0.0108480299554207,2011.63490188668
0.00498307559134936,2011.64490188668
-0.00071897009720805,2011.65490188668
-0.00677039403670924,2011.66490188668
-0.0123068292871392,2011.67490188668
-0.017961322595697,2011.68490188668
-0.0228176096883329,2011.69490188668
-0.0272393660239342,2011.70490188668
-0.031556938995929,2011.71490188668
-0.0361817960002958,2011.72490188668
-0.0414701036689348,2011.73490188668
-0.0465121780806527,2011.74490188668
-0.0513817094086674,2011.75490188668
-0.0557396618266317,2011.76490188668
-0.0598315085032641,2011.77490188668
-0.062691809711589,2011.78490188668
-0.0646319481931105,2011.79490188668
-0.0640925361498356,2011.80490188668
-0.0593080337548926,2011.81490188668
-0.0493874550280853,2011.82490188668
-0.0342737474980203,2011.83490188668
-0.0138642656706349,2011.84490188668
0.0101127019368214,2011.85490188668
0.0368416097791418,2011.86490188668
0.064347534398955,2011.87490188668
0.0910298414086489,2011.88490188668
0.115923142921372,2011.89490188668
0.137503524290104,2011.90490188668
0.155806767631035,2011.91490188668
0.169474524533858,2011.92490188668
0.179083817624159,2011.93490188668
0.184860117061272,2011.94490188668
0.187387351284218,2011.95490188668
0.187170800334813,2011.96490188668
0.18491357069862,2011.97490188668
0.180565443176291,2011.98490188668
0.174653196751433,2011.99490188668
0.1684920629882,2012.00490188668
0.161879770105063,2012.01490188668
0.155271815971382,2012.02490188668
0.148789098560953,2012.03490188668
0.14213941519615,2012.04490188668
0.135380523726712,2012.05490188668
0.128231240409597,2012.06490188668
0.120696917828885,2012.07490188668
0.112267105085079,2012.08490188668
0.1040866487934,2012.09490188668
0.0953385069576329,2012.10490188668
0.0878121411466086,2012.11490188668
0.0812094193054813,2012.12490188668
0.0764663863222452,2012.13490188668
0.0730476358416477,2012.14490188668
0.0712539653995663,2012.15490188668
0.0704506008303768,2012.16490188668
0.07109343907161,2012.17490188668
0.07170171781327,2012.18490188668
0.0731771914028838,2012.19490188668
0.0747786186225171,2012.20490188668
0.0763545837159511,2012.21490188668
0.0776957112646504,2012.22490188668
0.0787606812212902,2012.23490188668
0.0782765270136911,2012.24490188668
0.0770266000461922,2012.25490188668
0.0751494918108477,2012.26490188668
0.0729242337586858,2012.27490188668
0.0700480215118504,2012.28490188668
0.0668590464993083,2012.29490188668
0.0634169155682339,2012.30490188668
0.0589449282320923,2012.31490188668
0.0542740271574962,2012.32490188668
0.0494615773998952,2012.33490188668
0.0442332976462886,2012.34490188668
0.03867190851026,2012.35490188668
0.0324002998486373,2012.36490188668
0.0260161619568906,2012.37490188668
0.018702158041176,2012.38490188668
0.011946096229679,2012.39490188668
0.00578307340114954,2012.40490188668
-0.000164663534013462,2012.41490188668
-0.0060217617317034,2012.42490188668
-0.0118908874858527,2012.43490188668
-0.0175999066837986,2012.44490188668
-0.0230543286641651,2012.45490188668
-0.0283060523196557,2012.46490188668
-0.0326459031056801,2012.47490188668
-0.0368406971071694,2012.48490188668
-0.0409567310964359,2012.49490188668
-0.0449379826885537,2012.50490188668
-0.0491801064742864,2012.51490188668
-0.0525208434601654,2012.52490188668
-0.0561026239667193,2012.53490188668
-0.059906509733363,2012.54490188668
-0.0636444475558403,2012.55490188668
-0.0678603029724573,2012.56490188668
-0.0722158432556486,2012.57490188668
-0.0756296527844058,2012.58490188668
-0.0774865599846026,2012.59490188668
-0.0765507997822093,2012.60490188668
-0.071316505810208,2012.61490188668
-0.0602819190257929,2012.62490188668
-0.0442254306870534,2012.63490188668
-0.0230610746117864,2012.64490188668
0.00192658626644774,2012.65490188668
0.0285970473624761,2012.66490188668
0.0553810146016274,2012.67490188668
0.0811040676182657,2012.68490188668
0.104125101242246,2012.69490188668
0.124276255384514,2012.70490188668
0.140501273300747,2012.71490188668
0.153451156637099,2012.72490188668
0.162630583946565,2012.73490188668
0.168211240294766,2012.74490188668
0.170219165067026,2012.75490188668
0.169562283877391,2012.76490188668
0.166481822078551,2012.77490188668
0.16145456698439,2012.78490188668
0.154938675600786,2012.79490188668
0.147803348875037,2012.80490188668
0.140724957287173,2012.81490188668
0.13340216418658,2012.82490188668
0.126571701995308,2012.83490188668
0.120065546605701,2012.84490188668
0.113583376185645,2012.85490188668
0.106808084154804,2012.86490188668
0.0998434644117455,2012.87490188668
0.0927774281812844,2012.88490188668
0.0854686781086253,2012.89490188668
0.0785863841085658,2012.90490188668
0.0721463729553903,2012.91490188668
0.066461023986063,2012.92490188668
0.062015232303697,2012.93490188668
0.0585038515856739,2012.94490188668
0.0558244731014512,2012.95490188668
0.0544730369097211,2012.96490188668
0.0539524891076094,2012.97490188668
0.0544760921921998,2012.98490188668
0.0556266012034473,2012.99490188668
0.057322680373288,2013.00490188668
0.0587937867842869,2013.01490188668
0.0603515051726326,2013.02490188668
0.0610588284582212,2013.03490188668
0.0607207519307642,2013.04490188668
0.0591370448419714,2013.05490188668
0.0568903266513945,2013.06490188668
0.0534210674482831,2013.07490188668
0.0496106771726775,2013.08490188668
0.045625277985112,2013.09490188668
0.0414794419298616,2013.10490188668
0.0374482671379316,2013.11490188668
0.0331483639744584,2013.12490188668
0.0285331913646983,2013.13490188668
0.0232320887508874,2013.14490188668
0.0178639472860173,2013.15490188668
0.0119551862138205,2013.16490188668
0.0059617682489237,2013.17490188668
-0.000525603112857733,2013.18490188668
-0.00739283720472966,2013.19490188668
-0.0141613092336949,2013.20490188668
-0.0204539614723146,2013.21490188668
-0.0264564442801851,2013.22490188668
-0.0320476346275645,2013.23490188668
-0.0369677557567547,2013.24490188668
-0.0414466886991434,2013.25490188668
-0.0465249035657758,2013.26490188668
-0.0516123904871786,2013.27490188668
-0.0560606542785951,2013.28490188668
-0.0608055807951296,2013.29490188668
-0.0651267644208561,2013.30490188668
-0.0688829067912727,2013.31490188668
-0.0726306671882548,2013.32490188668
-0.0766767249818751,2013.33490188668
-0.0809355781445069,2013.34490188668
-0.0850312081278051,2013.35490188668
-0.0896751034193089,2013.36490188668
-0.0942769030770597,2013.37490188668
-0.0990323104004776,2013.38490188668
-0.103375064782827,2013.39490188668
-0.107647826245465,2013.40490188668
-0.110722676301627,2013.41490188668
-0.112047761325703,2013.42490188668
-0.109758085283979,2013.43490188668
-0.102742295413095,2013.44490188668
-0.090582329732348,2013.45490188668
-0.0732251616011931,2013.46490188668
-0.0508986241148844,2013.47490188668
-0.0248309604747972,2013.48490188668
0.00307583151474097,2013.49490188668
0.0310604309643975,2013.50490188668
0.0577454413718939,2013.51490188668
0.0820863506969114,2013.52490188668
0.102402874195337,2013.53490188668
0.1186656237263,2013.54490188668
0.131043472606952,2013.55490188668
0.13976619965465,2013.56490188668
0.14533248745946,2013.57490188668
0.148315258769681,2013.58490188668
0.148915531717861,2013.59490188668
0.147218413817705,2013.60490188668
0.144135327909481,2013.61490188668
0.140155058244821,2013.62490188668
0.13536282138941,2013.63490188668
0.129885276569757,2013.64490188668
0.124172053392234,2013.65490188668
0.118014098997184,2013.66490188668
0.112176403519633,2013.67490188668
0.107131272565349,2013.68490188668
0.101766533708474,2013.69490188668
0.0971546134177508,2013.70490188668
0.0920070317400502,2013.71490188668
0.0866146451679869,2013.72490188668
0.0810065269510194,2013.73490188668
0.0753097350558807,2013.74490188668
0.0703032531391493,2013.75490188668
0.0658138794241269,2013.76490188668
0.062272126003505,2013.77490188668
0.0596180932343044,2013.78490188668
0.0572453592088129,2013.79490188668
0.056467601887238,2013.80490188668
0.0563849704465715,2013.81490188668
0.0575254220397767,2013.82490188668
0.0596483433630558,2013.83490188668
0.0620676221486071,2013.84490188668
0.0640310936612471,2013.85490188668
0.0655909574832758,2013.86490188668
0.06646436361653,2013.87490188668
0.06644000670471,2013.88490188668
0.0654847824836507,2013.89490188668
0.0636629021702124,2013.90490188668
0.060993444636636,2013.91490188668
0.0579761303622786,2013.92490188668
0.0547887002525726,2013.93490188668
0.0507148363533255,2013.94490188668
0.0463892117638491,2013.95490188668
0.0417389016360506,2013.96490188668
0.036941166895877,2013.97490188668
0.0324273981632544,2013.98490188668
0.0274133828820368,2013.99490188668
0.0224149517947591,2014.00490188668
0.0166954804215063,2014.01490188668
0.0107655616679121,2014.02490188668
0.00470842511344518,2014.03490188668
-0.00141304509083599,2014.04490188668
-0.00769507807982678,2014.05490188668
-0.0138182584890365,2014.06490188668
-0.0194878057710411,2014.07490188668
-0.0250558113560833,2014.08490188668
-0.030439252696857,2014.09490188668
-0.0367796693281951,2014.10490188668
-0.0425833671193885,2014.11490188668
-0.048543092966746,2014.12490188668
-0.0538495739733132,2014.13490188668
-0.0594112596087292,2014.14490188668
-0.0645373165743212,2014.15490188668
-0.0695394246232808,2014.16490188668
-0.0743796681114953,2014.17490188668
-0.0788413255542614,2014.18490188668
-0.0834005334534776,2014.19490188668
-0.08793122213566,2014.20490188668
-0.0930610957894795,2014.21490188668
-0.0984593028833336,2014.22490188668
-0.103437524268481,2014.23490188668
-0.108456860934785,2014.24490188668
-0.113032602055112,2014.25490188668
-0.116837698154811,2014.26490188668
-0.119436235218976,2014.27490188668
-0.118761786333797,2014.28490188668
-0.113972305146058,2014.29490188668
-0.103421073859359,2014.30490188668
-0.087575379421602,2014.31490188668
-0.066623037023863,2014.32490188668
-0.0423558384419402,2014.33490188668
-0.0155370147598665,2014.34490188668
0.0110354662993829,2014.35490188668
0.0367347873058763,2014.36490188668
0.0604500944613968,2014.37490188668
0.0800833939567948,2014.38490188668
0.0958170082178291,2014.39490188668
0.107518291731615,2014.40490188668
0.115089450841661,2014.41490188668
0.120128705824665,2014.42490188668
0.12230629362027,2014.43490188668
0.122293636060855,2014.44490188668
0.120331036151294,2014.45490188668
0.116782726947968,2014.46490188668
0.112052725998832,2014.47490188668
0.106900902744735,2014.48490188668
0.1011401676836,2014.49490188668
0.0952844428340807,2014.50490188668
0.089265952563112,2014.51490188668
0.0830538046985596,2014.52490188668
0.0766656829607377,2014.53490188668
0.0697255316401467,2014.54490188668
0.0630893188521362,2014.55490188668
0.0562568139155063,2014.56490188668
0.0500978637034325,2014.57490188668
0.0434813109578827,2014.58490188668
0.0372325165713095,2014.59490188668
0.0317266988161147,2014.60490188668
0.02665552638313,2014.61490188668
0.0230305225842075,2014.62490188668
0.0202621675449455,2014.63490188668
0.0184385404114695,2014.64490188668
0.0178948298132228,2014.65490188668
0.0181636730128054,2014.66490188668
0.0193999542840855,2014.67490188668
0.0204138968959043,2014.68490188668
0.0219059907760688,2014.69490188668
0.0234637073193668,2014.70490188668
0.0247935634708553,2014.71490188668
0.0252614001543687,2014.72490188668
0.0250564996473516,2014.73490188668
0.0239682024210753,2014.74490188668
0.0216350339847411,2014.75490188668
0.0187085084710671,2014.76490188668
0.0151264084488331,2014.77490188668
0.0109936549868189,2014.78490188668
0.00615556269597742,2014.79490188668
0.00101963267595359,2014.80490188668
-0.00417670898775224,2014.81490188668
-0.00995838643682749,2014.82490188668
-0.0152239923711343,2014.83490188668
-0.0205146490469136,2014.84490188668
-0.0264632047197555,2014.85490188668
-0.0324001545207761,2014.86490188668
-0.0390688551202535,2014.87490188668
-0.0453155745261417,2014.88490188668
-0.0515980777528429,2014.89490188668
-0.057363110599323,2014.90490188668
-0.062928910858406,2014.91490188668
-0.0685434512330604,2014.92490188668
-0.073718537529436,2014.93490188668
-0.0792386939666598,2014.94490188668
-0.0843824802074018,2014.95490188668
-0.0896788858007003,2014.96490188668
-0.0954126464225899,2014.97490188668
-0.10072212816266,2014.98490188668
-0.106503624313647,2014.99490188668
-0.111223804801567,2015.00490188668
-0.115977203189754,2015.01490188668
-0.12018773779084,2015.02490188668
-0.124095770758099,2015.03490188668
-0.127993236559263,2015.04490188668
-0.131985019057352,2015.05490188668
-0.136262160189377,2015.06490188668
-0.140455340603522,2015.07490188668
-0.144668993288441,2015.08490188668
-0.149134489988875,2015.09490188668
-0.153213941143293,2015.10490188668
-0.155957339900307,2015.11490188668
-0.157151009446078,2015.12490188668
-0.154467955892388,2015.13490188668
-0.146932013457704,2015.14490188668
-0.13374382288267,2015.15490188668
-0.115364245398522,2015.16490188668
-0.0925297894310163,2015.17490188668
-0.0665460873042003,2015.18490188668
-0.039808129741292,2015.19490188668
-0.0137968594516886,2015.20490188668
0.0099314689675241,2015.21490188668
0.031298511010192,2015.22490188668
0.0486995539991957,2015.23490188668
0.0630032687404655,2015.24490188668
0.0739677348085291,2015.25490188668
0.081380377099017,2015.26490188668
0.0857285835039073,2015.27490188668
0.0869525035097565,2015.28490188668
0.0861630441065685,2015.29490188668
0.0835926450655748,2015.30490188668
0.0797349504051121,2015.31490188668
0.0747708074311012,2015.32490188668
0.068899604291023,2015.33490188668
0.0626401254755566,2015.34490188668
0.0553290785834425,2015.35490188668
0.0477836733526407,2015.36490188668
0.0405889039972186,2015.37490188668
0.0334369058230621,2015.38490188668
0.0265592890203138,2015.39490188668
0.0200666816405584,2015.40490188668
0.0138994548088454,2015.41490188668
0.00779255048506495,2015.42490188668
0.00230031986325046,2015.43490188668
-0.00225908626877628,2015.44490188668
-0.00643795955434385,2015.45490188668
-0.00947895675964242,2015.46490188668
-0.01109544180735,2015.47490188668
-0.0115280352681661,2015.48490188668
-0.0110747058933706,2015.49490188668
-0.00941155906631793,2015.50490188668
-0.0074351628913928,2015.51490188668
-0.00455240101065085,2015.52490188668
-0.00215580023412298,2015.53490188668
7.13279109559718e-05,2015.54490188668
0.00146689431613361,2015.55490188668
0.00201848959155548,2015.56490188668
0.00170481960630073,2015.57490188668
0.00113504740156512,2015.58490188668
3.69529078381324e-05,2015.59490188668
-0.00110323016707304,2015.60490188668
-0.00217393629243549,2015.61490188668
-0.00426476720874601,2015.62490188668
-0.00620875295980396,2015.63490188668
-0.00881652977389625,2015.64490188668
-0.0121388140048095,2015.65490188668
-0.0157528047459008,2015.66490188668
-0.0199799185138472,2015.67490188668
-0.024388390199046,2015.68490188668
-0.0290214080234693,2015.69490188668
-0.033763105378385,2015.70490188668
-0.0390829673184006,2015.71490188668
-0.0443439240811242,2015.72490188668
-0.049764075921296,2015.73490188668
-0.0549856565517174,2015.74490188668
-0.0599432972103349,2015.75490188668
-0.0647088660727491,2015.76490188668
-0.0690764311864025,2015.77490188668
-0.0730612338726768,2015.78490188668
-0.077383550857273,2015.79490188668
-0.0819241250143426,2015.80490188668
-0.0859024102411153,2015.81490188668
-0.0900455288514475,2015.82490188668
-0.0938922148241545,2015.83490188668
-0.0974676317820593,2015.84490188668
-0.100787332527951,2015.85490188668
-0.103291311232818,2015.86490188668
-0.105873682489546,2015.87490188668
-0.108540743031138,2015.88490188668
-0.111200922091807,2015.89490188668
-0.114238448365389,2015.90490188668
-0.117169409444696,2015.91490188668
-0.120547303916049,2015.92490188668
-0.122831871328509,2015.93490188668
-0.12399762261105,2015.94490188668
-0.122537045264832,2015.95490188668
-0.116904039529361,2015.96490188668
-0.106043500879107,2015.97490188668
-0.0902955968318455,2015.98490188668
-0.0690833984351963,2015.99490188668
-0.0441870670567208,2016.00490188668
-0.0165288293059793,2016.01490188668
0.0117056584920744,2016.02490188668
0.0397684645611873,2016.03490188668
0.0665099422044561,2016.04490188668
0.0895495057210451,2016.05490188668
0.109113382339786,2016.06490188668
0.124663969072674,2016.07490188668
0.136514131008084,2016.08490188668
0.144674533984641,2016.09490188668
0.149465125976798,2016.10490188668
0.151583779498567,2016.11490188668
0.151042147412442,2016.12490188668
0.148777354603591,2016.13490188668
0.145193667263947,2016.14490188668
0.140645057254516,2016.15490188668
0.135607321480268,2016.16490188668
0.130771412388323,2016.17490188668
0.126125051644058,2016.18490188668
0.121445811583095,2016.19490188668
0.116571073159921,2016.20490188668
0.111553952610774,2016.21490188668
0.10648885017357,2016.22490188668
0.101079638841298,2016.23490188668
0.0953827708102597,2016.24490188668
0.0897314867385762,2016.25490188668
0.084334130281911,2016.26490188668
0.0789712830553764,2016.27490188668
0.0737363822233359,2016.28490188668
0.0693563253301344,2016.29490188668
0.0659884784795941,2016.30490188668
0.0644153777360369,2016.31490188668
0.0644398087686034,2016.32490188668
0.0648587800759141,2016.33490188668
0.0667607558590066,2016.34490188668
0.0686589529796685,2016.35490188668
0.0708009586015162,2016.36490188668
0.0728993983567989,2016.37490188668
0.074487610881924,2016.38490188668
0.0753946018493863,2016.39490188668
0.0757276563191131,2016.40490188668
0.0756356833775772,2016.41490188668
0.0749900428699969,2016.42490188668
0.0733480701551061,2016.43490188668
0.070716887016376,2016.44490188668
0.0672692669900129,2016.45490188668
0.0630489210684405,2016.46490188668
0.0582315998432697,2016.47490188668
0.0528309548187677,2016.48490188668
0.0478525903337432,2016.49490188668
0.0431727530222396,2016.50490188668
0.0388983687197144,2016.51490188668
0.0339421783834448,2016.52490188668
0.028773516616863,2016.53490188668
0.0232387111869492,2016.54490188668
0.0170912465790164,2016.55490188668
0.0111220436821644,2016.56490188668
0.00532438109436451,2016.57490188668
-0.00057632927815265,2016.58490188668
-0.00569935554961361,2016.59490188668
-0.0105798411870998,2016.60490188668
-0.0148789193405749,2016.61490188668
-0.0199393588728114,2016.62490188668
-0.0258565233169123,2016.63490188668
-0.0316211190119815,2016.64490188668
-0.0367249180284092,2016.65490188668
-0.0410128632905815,2016.66490188668
-0.0448375149226471,2016.67490188668
-0.0485899522796157,2016.68490188668
-0.0523953530202464,2016.69490188668
-0.0563909249047362,2016.70490188668
-0.0605525237282285,2016.71490188668
-0.0648034352431357,2016.72490188668
-0.0689574178598501,2016.73490188668
-0.0729281238726672,2016.74490188668
-0.0769100004403603,2016.75490188668
-0.0811968167715984,2016.76490188668
-0.0846293770700741,2016.77490188668
-0.0883469237833838,2016.78490188668
-0.0920008165438053,2016.79490188668
-0.095273650899198,2016.80490188668
-0.0977777030236842,2016.81490188668
-0.0983223812031663,2016.82490188668
-0.0957912749485897,2016.83490188668
-0.0877203013879232,2016.84490188668
-0.0737543985030796,2016.85490188668
-0.0536088737623849,2016.86490188668
-0.0278920608732757,2016.87490188668
0.0017003368404631,2016.88490188668
0.033752214133196,2016.89490188668
0.0662901736306996,2016.90490188668
0.0979439900618324,2016.91490188668
0.126428363754537,2016.92490188668
0.152044529428135,2016.93490188668
0.173385343167403,2016.94490188668
0.191110808182759,2016.95490188668
0.20489382301597,2016.96490188668
0.214629762778214,2016.97490188668
0.221120774245587,2016.98490188668
0.224375904374994,2016.99490188668
0.225582905736994,2017.00490188668
0.224647036295528,2017.01490188668
0.222509734154351,2017.02490188668
0.219658730187123,2017.03490188668
0.215736663887072,2017.04490188668
0.211170210427109,2017.05490188668
0.206385752378262,2017.06490188668
0.201107852514663,2017.07490188668
0.196162524339362,2017.08490188668
0.190253647625809,2017.09490188668
0.184171474449879,2017.10490188668
0.177788617599986,2017.11490188668
0.1710327791859,2017.12490188668
0.163638296041427,2017.13490188668
0.156077391709093,2017.14490188668
0.149246522257893,2017.15490188668
0.143018560232912,2017.16490188668
0.137835688660667,2017.17490188668
0.134324240362697,2017.18490188668
