PPG,time
-0.275309701116308,1962.44639529728
-0.552878160429453,1962.45639529728
-0.492720245439285,1962.46639529728
-0.516607317828199,1962.47639529728
-0.46085316284164,1962.48639529728
-0.411099018406625,1962.49639529728
-0.30646099313011,1962.50639529728
-0.187218873292115,1962.51639529728
-0.0371833875861116,1962.52639529728
0.120402903670134,1962.53639529728
0.281479660148318,1962.54639529728
0.432885284592126,1962.55639529728
0.567458339914512,1962.56639529728
0.679821621898465,1962.57639529728
0.768578891252109,1962.58639529728
0.833473532889536,1962.59639529728
0.878009798832688,1962.60639529728
0.905350886452642,1962.61639529728
0.920170654445512,1962.62639529728
0.9253989638143,1962.63639529728
0.924725202250097,1962.64639529728
0.92033368485949,1962.65639529728
0.914275826487498,1962.66639529728
0.907219045620443,1962.67639529728
0.900595092569186,1962.68639529728
0.894220240631571,1962.69639529728
0.888387989433622,1962.70639529728
0.882629528164289,1962.71639529728
0.876378751718912,1962.72639529728
0.869655782637792,1962.73639529728
0.860105496036,1962.74639529728
0.846349668896137,1962.75639529728
0.827684167010681,1962.76639529728
0.802852371002849,1962.77639529728
0.773309837541469,1962.78639529728
0.740806129409463,1962.79639529728
0.707430502508444,1962.80639529728
0.675370587722807,1962.81639529728
0.646774337450649,1962.82639529728
0.622760268631833,1962.83639529728
0.603569669142353,1962.84639529728
0.589094352002901,1962.85639529728
0.578703642616454,1962.86639529728
0.57216502041707,1962.87639529728
0.568576681801311,1962.88639529728
0.566949732397198,1962.89639529728
0.566335326109766,1962.90639529728
0.56509166175761,1962.91639529728
0.562666426461648,1962.92639529728
0.556989850312088,1962.93639529728
0.547790939410912,1962.94639529728
0.535244299151271,1962.95639529728
0.519727583430844,1962.96639529728
0.501340336187299,1962.97639529728
0.481037541645559,1962.98639529728
0.45890062410386,1962.99639529728
0.434990121301404,1963.00639529728
0.410306094623976,1963.01639529728
0.384001752879789,1963.02639529728
0.357279454629142,1963.03639529728
0.330232673893519,1963.04639529728
0.302835719143805,1963.05639529728
0.275400513922856,1963.06639529728
0.248089562709006,1963.07639529728
0.220754723496448,1963.08639529728
0.193852436094279,1963.09639529728
0.16756378742403,1963.10639529728
0.141914246260029,1963.11639529728
0.117271677235597,1963.12639529728
0.0937399019093153,1963.13639529728
0.0709172594174355,1963.14639529728
0.0485260762143448,1963.15639529728
0.0275541496753241,1963.16639529728
0.00745950514921663,1963.17639529728
-0.0119314745161234,1963.18639529728
-0.0306642010355243,1963.19639529728
-0.0491113759179661,1963.20639529728
-0.0673276457316818,1963.21639529728
-0.0847127350334754,1963.22639529728
-0.102290987045686,1963.23639529728
-0.119745401744133,1963.24639529728
-0.137662791645758,1963.25639529728
-0.155404544420441,1963.26639529728
-0.172742863047707,1963.27639529728
-0.189459960829038,1963.28639529728
-0.205370588045044,1963.29639529728
-0.22083535618739,1963.30639529728
-0.236183829090388,1963.31639529728
-0.250987338086608,1963.32639529728
-0.26569557748771,1963.33639529728
-0.28031675514522,1963.34639529728
-0.295245068474954,1963.35639529728
-0.310287757224933,1963.36639529728
-0.325510716680457,1963.37639529728
-0.340809805545422,1963.38639529728
-0.35707892177788,1963.39639529728
-0.373579896176899,1963.40639529728
-0.390498756707569,1963.41639529728
-0.407564708581889,1963.42639529728
-0.424187210392482,1963.43639529728
-0.440232115082702,1963.44639529728
-0.455841247976086,1963.45639529728
-0.471382745287189,1963.46639529728
-0.487209970999742,1963.47639529728
-0.503399896873728,1963.48639529728
-0.52041370405335,1963.49639529728
-0.537616163698833,1963.50639529728
-0.555162582356177,1963.51639529728
-0.572390331851942,1963.52639529728
-0.589787364339702,1963.53639529728
-0.606457365858676,1963.54639529728
-0.622503072784236,1963.55639529728
-0.636699201602944,1963.56639529728
-0.644582365893657,1963.57639529728
-0.640423657480437,1963.58639529728
-0.616589676346676,1963.59639529728
-0.564884134542889,1963.60639529728
-0.482464930989094,1963.61639529728
-0.369776548405062,1963.62639529728
-0.232282764520729,1963.63639529728
-0.0791999669707355,1963.64639529728
0.0794252377367914,1963.65639529728
0.233173550364686,1963.66639529728
0.374047740970019,1963.67639529728
0.495650340383056,1963.68639529728
0.594827033696876,1963.69639529728
0.671272026086955,1963.70639529728
0.726834342735777,1963.71639529728
0.764166319148965,1963.72639529728
0.785398446377374,1963.73639529728
0.794352860611641,1963.74639529728
0.794275247532506,1963.75639529728
0.788342951731224,1963.76639529728
0.778937227856309,1963.77639529728
0.767977674865163,1963.78639529728
0.757195664967453,1963.79639529728
0.74797793032809,1963.80639529728
0.739732739458813,1963.81639529728
0.732336645940767,1963.82639529728
0.724648827746785,1963.83639529728
0.716245875132529,1963.84639529728
0.705313356847486,1963.85639529728
0.690312466485872,1963.86639529728
0.670330053136483,1963.87639529728
0.644551466344059,1963.88639529728
0.614324088323478,1963.89639529728
0.58182246686395,1963.90639529728
0.549515816397581,1963.91639529728
0.519471207790775,1963.92639529728
0.493223224720079,1963.93639529728
0.47135121123444,1963.94639529728
0.454538093279189,1963.95639529728
0.443087600011667,1963.96639529728
0.43580725765022,1963.97639529728
0.432821176610735,1963.98639529728
0.433212931412356,1963.99639529728
0.435821487863493,1964.00639529728
0.438687773541305,1964.01639529728
0.44073582809903,1964.02639529728
0.440408391422317,1964.03639529728
0.437088419608897,1964.04639529728
0.430177947239386,1964.05639529728
0.419899575580274,1964.06639529728
0.405914473602098,1964.07639529728
0.388792334457551,1964.08639529728
0.368715787074222,1964.09639529728
0.346904969502094,1964.10639529728
0.323111371133759,1964.11639529728
0.297443069125263,1964.12639529728
0.270983049579075,1964.13639529728
0.243161223767818,1964.14639529728
0.21428857850526,1964.15639529728
0.185435678485546,1964.16639529728
0.156097338017289,1964.17639529728
0.127053031701569,1964.18639529728
0.0991147185999155,1964.19639529728
0.0724521157640214,1964.20639529728
0.0467030376078621,1964.21639529728
0.0217658614461455,1964.22639529728
-0.00248327908282978,1964.23639529728
-0.0253598668498069,1964.24639529728
-0.0476705450128757,1964.25639529728
-0.0692359559576313,1964.26639529728
-0.0909488454324348,1964.27639529728
-0.1123241976864,1964.28639529728
-0.133298496714615,1964.29639529728
-0.153415930402303,1964.30639529728
-0.172898541816975,1964.31639529728
-0.191626671363212,1964.32639529728
-0.209224932962737,1964.33639529728
-0.226240835269828,1964.34639529728
-0.242346555092642,1964.35639529728
-0.258148009637979,1964.36639529728
-0.274000682307022,1964.37639529728
-0.2905324286554,1964.38639529728
-0.306756667811301,1964.39639529728
-0.322826152919185,1964.40639529728
-0.339412528037193,1964.41639529728
-0.355322929209841,1964.42639529728
-0.371400767800784,1964.43639529728
-0.387064135298572,1964.44639529728
-0.401649380605361,1964.45639529728
-0.416355320302948,1964.46639529728
-0.430962397653269,1964.47639529728
-0.445865155037974,1964.48639529728
-0.460967993669365,1964.49639529728
-0.476429893556275,1964.50639529728
-0.491755451400489,1964.51639529728
-0.506796107852412,1964.52639529728
-0.522136443367628,1964.53639529728
-0.537856749546999,1964.54639529728
-0.553915593135666,1964.55639529728
-0.570456051292575,1964.56639529728
-0.587593444753026,1964.57639529728
-0.604381340792661,1964.58639529728
-0.62056698549291,1964.59639529728
-0.634712702955375,1964.60639529728
-0.64400255495209,1964.61639529728
-0.643189687108851,1964.62639529728
-0.625038730375863,1964.63639529728
-0.582441936769845,1964.64639529728
-0.511334492201969,1964.65639529728
-0.411043030011153,1964.66639529728
-0.285458539841893,1964.67639529728
-0.14111462657034,1964.68639529728
0.0110789184064237,1964.69639529728
0.161451125453496,1964.70639529728
0.301661235352861,1964.71639529728
0.425288656151346,1964.72639529728
0.528321354295414,1964.73639529728
0.610269983135513,1964.74639529728
0.670611167290353,1964.75639529728
0.711563094518802,1964.76639529728
0.73647139264131,1964.77639529728
0.748642858181976,1964.78639529728
0.750781831015259,1964.79639529728
0.745815354625106,1964.80639529728
0.736282577227878,1964.81639529728
0.723773627752992,1964.82639529728
0.710145143434772,1964.83639529728
0.696177747475341,1964.84639529728
0.683373894517933,1964.85639529728
0.671061573755312,1964.86639529728
0.659256114179202,1964.87639529728
0.645542679123028,1964.88639529728
0.628827537209135,1964.89639529728
0.607167267096886,1964.90639529728
0.581127938391561,1964.91639529728
0.55147975235882,1964.92639529728
0.519440903629608,1964.93639529728
0.488177889258397,1964.94639529728
0.459683673159114,1964.95639529728
0.435548661875294,1964.96639529728
0.416177981971894,1964.97639529728
0.401999932955609,1964.98639529728
0.393703581865314,1964.99639529728
0.390974537201704,1965.00639529728
0.392348824779146,1965.01639529728
0.39791519279753,1965.02639529728
0.405890558832373,1965.03639529728
0.414750546937988,1965.04639529728
0.422684134348111,1965.05639529728
0.427711337125784,1965.06639529728
0.429730888895317,1965.07639529728
0.427808736093796,1965.08639529728
0.421866916574659,1965.09639529728
0.412066319298053,1965.10639529728
0.398522040461139,1965.11639529728
0.381266527364468,1965.12639529728
0.361041143682449,1965.13639529728
0.338412865640182,1965.14639529728
0.314574991159613,1965.15639529728
0.289108350293724,1965.16639529728
0.263387329328744,1965.17639529728
0.236298853070392,1965.18639529728
0.208861318287372,1965.19639529728
0.18186351374525,1965.20639529728
0.155105141010581,1965.21639529728
0.128768766845763,1965.22639529728
0.103547040129453,1965.23639529728
0.0793098591641884,1965.24639529728
0.0559910485710075,1965.25639529728
0.0329763976391602,1965.26639529728
0.0107672290394841,1965.27639529728
-0.010807714062918,1965.28639529728
-0.0314912725298317,1965.29639529728
-0.0505512154967022,1965.30639529728
-0.0694948501388528,1965.31639529728
-0.087907741249629,1965.32639529728
-0.106013089452724,1965.33639529728
-0.123990180053905,1965.34639529728
-0.1414928391517,1965.35639529728
-0.159048945700581,1965.36639529728
-0.175955969444816,1965.37639529728
-0.1924571299969,1965.38639529728
-0.207949124391031,1965.39639529728
-0.222762622994192,1965.40639529728
-0.236890207398929,1965.41639529728
-0.250748901776139,1965.42639529728
-0.264450888899074,1965.43639529728
-0.278449259282689,1965.44639529728
-0.292960649842866,1965.45639529728
-0.307555433385402,1965.46639529728
-0.32203734554023,1965.47639529728
-0.336417970106785,1965.48639529728
-0.350398063479191,1965.49639529728
-0.363960313196468,1965.50639529728
-0.377129741470339,1965.51639529728
-0.3901084916478,1965.52639529728
-0.403070695870749,1965.53639529728
-0.416145301693009,1965.54639529728
-0.429719547459332,1965.55639529728
-0.44471766218187,1965.56639529728
-0.460052135242592,1965.57639529728
-0.476198027864824,1965.58639529728
-0.4919799322763,1965.59639529728
-0.507316568580072,1965.60639529728
-0.51932385443199,1965.61639529728
-0.52505601755601,1965.62639529728
-0.518125253222073,1965.63639529728
-0.490234816100903,1965.64639529728
-0.435692067651744,1965.65639529728
-0.350178122688135,1965.66639529728
-0.233904389935928,1965.67639529728
-0.0930312890852329,1965.68639529728
0.0633115909744378,1965.69639529728
0.224983217212616,1965.70639529728
0.382548321737256,1965.71639529728
0.526027995105896,1965.72639529728
0.650533607153483,1965.73639529728
0.751882308531082,1965.74639529728
0.830508774425316,1965.75639529728
0.887946503418754,1965.76639529728
0.927437595264626,1965.77639529728
0.952250654915172,1965.78639529728
0.965006931575932,1965.79639529728
0.969947949306583,1965.80639529728
0.96924359360402,1965.81639529728
0.965523166433027,1965.82639529728
0.960671688992775,1965.83639529728
0.95616780029857,1965.84639529728
0.952445269316162,1965.85639529728
0.950154183931859,1965.86639529728
0.94846778711387,1965.87639529728
0.946499782561033,1965.88639529728
0.943149585185356,1965.89639529728
0.935801591382668,1965.90639529728
0.923866063236146,1965.91639529728
0.905273339022505,1965.92639529728
0.880262705368045,1965.93639529728
0.849972973204692,1965.94639529728
0.815991579542903,1965.95639529728
0.781537917821158,1965.96639529728
0.748410046405536,1965.97639529728
0.718292365491743,1965.98639529728
0.692888986429363,1965.99639529728
0.67299313548903,1966.00639529728
0.658141675126939,1966.01639529728
0.648375124457189,1966.02639529728
0.643287378535725,1966.03639529728
0.641339479885809,1966.04639529728
0.641435423415043,1966.05639529728
0.642365209260122,1966.06639529728
0.642954711000605,1966.07639529728
0.642534770398379,1966.08639529728
0.639818186137383,1966.09639529728
0.634138349002144,1966.10639529728
0.624156566331869,1966.11639529728
0.611101016846977,1966.12639529728
0.594932392816432,1966.13639529728
0.575694126058217,1966.14639529728
0.554459935111373,1966.15639529728
0.531567005161635,1966.16639529728
0.50711116040346,1966.17639529728
0.481953253472106,1966.18639529728
0.455928716147109,1966.19639529728
0.429445670616777,1966.20639529728
0.402246917956725,1966.21639529728
0.374381384233737,1966.22639529728
0.346600189996271,1966.23639529728
0.31812523383517,1966.24639529728
0.28935595552053,1966.25639529728
0.261678310506096,1966.26639529728
0.235044809452731,1966.27639529728
0.209896222734671,1966.28639529728
0.186136886990583,1966.29639529728
0.163163787275986,1966.30639529728
0.141343302343878,1966.31639529728
0.120214918455174,1966.32639529728
0.100571148286022,1966.33639529728
0.0815412799081301,1966.34639529728
0.0632113158155687,1966.35639529728
0.044835749144206,1966.36639529728
0.026487017510529,1966.37639529728
0.00804874448275641,1966.38639529728
-0.00950517360661774,1966.39639529728
-0.0268796263311666,1966.40639529728
-0.0435919100072449,1966.41639529728
-0.0595589932041157,1966.42639529728
-0.07505586010472,1966.43639529728
-0.0904722530308597,1966.44639529728
-0.106114093792314,1966.45639529728
-0.121664738682312,1966.46639529728
-0.136693439516154,1966.47639529728
-0.151591158705719,1966.48639529728
-0.166616722257802,1966.49639529728
-0.18120073219692,1966.50639529728
-0.195647857453069,1966.51639529728
-0.210281983848778,1966.52639529728
-0.225106681114467,1966.53639529728
-0.240015075614686,1966.54639529728
-0.254890180604206,1966.55639529728
-0.27019776795946,1966.56639529728
-0.286371607911573,1966.57639529728
-0.303137869707168,1966.58639529728
-0.319906543472657,1966.59639529728
-0.336442220967574,1966.60639529728
-0.353209215705572,1966.61639529728
-0.369268682721887,1966.62639529728
-0.385145548033833,1966.63639529728
-0.401222362670958,1966.64639529728
-0.417789426442744,1966.65639529728
-0.434200385919514,1966.66639529728
-0.451002398951367,1966.67639529728
-0.466915999240639,1966.68639529728
-0.482176837582249,1966.69639529728
-0.497237177351679,1966.70639529728
-0.512543621687491,1966.71639529728
-0.528017125095135,1966.72639529728
-0.544581091577968,1966.73639529728
-0.560526845213092,1966.74639529728
-0.574661238715539,1966.75639529728
-0.584268364636132,1966.76639529728
-0.583604999426092,1966.77639529728
-0.565312007850942,1966.78639529728
-0.52108925125908,1966.79639529728
-0.445569895792951,1966.80639529728
-0.336290747360015,1966.81639529728
-0.197412707132557,1966.82639529728
-0.0371328468395827,1966.83639529728
0.134051545154306,1966.84639529728
0.30541411809843,1966.85639529728
0.466306765848945,1966.86639529728
0.609076301325291,1966.87639529728
0.728775612503603,1966.88639529728
0.823426400685962,1966.89639529728
0.894125619138728,1966.90639529728
0.943415242437926,1966.91639529728
0.974890460256272,1966.92639529728
0.992470679940066,1966.93639529728
0.99907429959958,1966.94639529728
0.998909339923824,1966.95639529728
0.994360553472931,1966.96639529728
0.988067945179219,1966.97639529728
0.980988645331871,1966.98639529728
0.974297461435456,1966.99639529728
0.967588944839548,1967.00639529728
0.961331280689151,1967.01639529728
0.955261672771822,1967.02639529728
0.948156043917375,1967.03639529728
0.93934826335303,1967.04639529728
0.927088638357182,1967.05639529728
0.909544942883366,1967.06639529728
0.885616070210249,1967.07639529728
0.856449806237569,1967.08639529728
0.822825036463487,1967.09639529728
0.788033240444752,1967.10639529728
0.75463260360382,1967.11639529728
0.724462387677611,1967.12639529728
0.698925221996851,1967.13639529728
0.677355180774875,1967.14639529728
0.660513240884147,1967.15639529728
0.648891466708187,1967.16639529728
0.641753674944097,1967.17639529728
0.638576395570185,1967.18639529728
0.638417839292525,1967.19639529728
0.639440340637082,1967.20639529728
0.640963818440936,1967.21639529728
0.641599570467475,1967.22639529728
0.640138171171708,1967.23639529728
0.63564394707987,1967.24639529728
0.627607962278281,1967.25639529728
0.616011827268781,1967.26639529728
0.601514233354437,1967.27639529728
0.583655958352164,1967.28639529728
0.562343647582842,1967.29639529728
0.538893124796192,1967.30639529728
0.513632953000121,1967.31639529728
0.487152854500373,1967.32639529728
0.460045867650204,1967.33639529728
0.432487387851719,1967.34639529728
0.405067044746411,1967.35639529728
0.377701765824019,1967.36639529728
0.3506440380902,1967.37639529728
0.324158226013485,1967.38639529728
0.29785168928261,1967.39639529728
0.271932601283457,1967.40639529728
0.246018341503556,1967.41639529728
0.220568888259252,1967.42639529728
0.19558588124247,1967.43639529728
0.171430522750486,1967.44639529728
0.148356952745828,1967.45639529728
0.127076032501082,1967.46639529728
0.107061895072027,1967.47639529728
0.087759552291722,1967.48639529728
0.0686632171976315,1967.49639529728
0.0494295041005826,1967.50639529728
0.0303601233529028,1967.51639529728
0.011440237962263,1967.52639529728
-0.00775578102644844,1967.53639529728
-0.0266301571410185,1967.54639529728
-0.0444640331750108,1967.55639529728
-0.0614186969616888,1967.56639529728
-0.0778020941505414,1967.57639529728
-0.0938155929991245,1967.58639529728
-0.109612901231647,1967.59639529728
-0.125240794895118,1967.60639529728
-0.140418684403658,1967.61639529728
-0.155517145659537,1967.62639529728
-0.170646599604629,1967.63639529728
-0.186132984030016,1967.64639529728
-0.202002822859305,1967.65639529728
-0.218263444522176,1967.66639529728
-0.234756726455705,1967.67639529728
-0.250982619203949,1967.68639529728
-0.266952679308482,1967.69639529728
-0.283058751970601,1967.70639529728
-0.298249439285769,1967.71639529728
-0.31301455899378,1967.72639529728
-0.327943525518805,1967.73639529728
-0.343349772931004,1967.74639529728
-0.359262091292815,1967.75639529728
-0.375336910223383,1967.76639529728
-0.391586391586121,1967.77639529728
-0.407879519931148,1967.78639529728
-0.424152293916876,1967.79639529728
-0.439696244421129,1967.80639529728
-0.455478694612434,1967.81639529728
-0.471557619653499,1967.82639529728
-0.48797236209686,1967.83639529728
-0.504927545308051,1967.84639529728
-0.522205566763146,1967.85639529728
-0.539845562530247,1967.86639529728
-0.557005693680549,1967.87639529728
-0.572337846846945,1967.88639529728
-0.582909792758269,1967.89639529728
-0.583143951335314,1967.90639529728
-0.565754116127237,1967.91639529728
-0.523124386040282,1967.92639529728
-0.449002783723423,1967.93639529728
-0.341706548780396,1967.94639529728
-0.205055270519993,1967.95639529728
-0.0473783224206214,1967.96639529728
0.120129510746598,1967.97639529728
0.287178953108806,1967.98639529728
0.443554784124905,1967.99639529728
0.581368507741277,1968.00639529728
0.696650731068509,1968.01639529728
0.787360475761256,1968.02639529728
0.854095105599285,1968.03639529728
0.899423963261036,1968.04639529728
0.92753322514794,1968.05639529728
0.941292497142488,1968.06639529728
0.944930424033282,1968.07639529728
0.9418315414814,1968.08639529728
0.933779032679018,1968.09639529728
0.923785278799133,1968.10639529728
0.91289206235263,1968.11639529728
0.901685870628497,1968.12639529728
0.891673774272022,1968.13639529728
0.881699853669257,1968.14639529728
0.87261291105668,1968.15639529728
0.863132398314837,1968.16639529728
0.850837621927222,1968.17639529728
0.834605643472694,1968.18639529728
0.812436454404467,1968.19639529728
0.784192149548261,1968.20639529728
0.750731164743394,1968.21639529728
0.714609133682787,1968.22639529728
0.67741643216445,1968.23639529728
0.641688615473135,1968.24639529728
0.609215347308152,1968.25639529728
0.581759709422307,1968.26639529728
0.559414175047816,1968.27639529728
0.542680980668523,1968.28639529728
0.531309566658734,1968.29639529728
0.524612373162655,1968.30639529728
0.522141867163026,1968.31639529728
0.522899665100062,1968.32639529728
0.525422290422167,1968.33639529728
0.527868153943086,1968.34639529728
0.529053705104472,1968.35639529728
0.527382676663217,1968.36639529728
0.52188319292768,1968.37639529728
0.513131887493622,1968.38639529728
0.500563905968384,1968.39639529728
0.485202643557545,1968.40639529728
0.467291290968455,1968.41639529728
0.446651928058743,1968.42639529728
0.424201771134603,1968.43639529728
0.399652301232601,1968.44639529728
0.373578088873855,1968.45639529728
0.346494987540166,1968.46639529728
0.318360628150461,1968.47639529728
0.290381940646438,1968.48639529728
0.26237784159552,1968.49639529728
0.234425185030119,1968.50639529728
0.206419316204885,1968.51639529728
0.17883321135433,1968.52639529728
0.151435411998745,1968.53639529728
0.125054889394273,1968.54639529728
0.0994171404359611,1968.55639529728
0.0744064361803822,1968.56639529728
0.0499250012025467,1968.57639529728
0.0259472008102654,1968.58639529728
0.00265823202047589,1968.59639529728
-0.0194120864864259,1968.60639529728
-0.0399401053401891,1968.61639529728
-0.0596857707580868,1968.62639529728
-0.0792886959401425,1968.63639529728
-0.0981713102889671,1968.64639529728
-0.116743527622843,1968.65639529728
-0.135616678759162,1968.66639529728
-0.153655976025354,1968.67639529728
-0.170824013440143,1968.68639529728
-0.18772134146536,1968.69639529728
-0.203732451421815,1968.70639529728
-0.219134325482037,1968.71639529728
-0.235341705207546,1968.72639529728
-0.251231553626564,1968.73639529728
-0.267313715130519,1968.74639529728
-0.282755661749402,1968.75639529728
-0.298062480276393,1968.76639529728
-0.313253161313301,1968.77639529728
-0.328746431134569,1968.78639529728
-0.344358857175109,1968.79639529728
-0.359463744598744,1968.80639529728
-0.374978429433264,1968.81639529728
-0.389802464974414,1968.82639529728
-0.404741676610059,1968.83639529728
-0.419969109533568,1968.84639529728
-0.435560111403611,1968.85639529728
-0.451915803836855,1968.86639529728
-0.468115252209528,1968.87639529728
-0.484584306563468,1968.88639529728
-0.500418060258405,1968.89639529728
-0.515970367861103,1968.90639529728
-0.531978614286596,1968.91639529728
-0.548056217654819,1968.92639529728
-0.564611687477966,1968.93639529728
-0.580974435417168,1968.94639529728
-0.596493051057106,1968.95639529728
-0.609823238109615,1968.96639529728
-0.617622847464647,1968.97639529728
-0.613405593804184,1968.98639529728
-0.591240336942089,1968.99639529728
-0.542687356392059,1969.00639529728
-0.463605535327327,1969.01639529728
-0.354100675533511,1969.02639529728
-0.218521980497518,1969.03639529728
-0.0653892621361838,1969.04639529728
0.0945027168552053,1969.05639529728
0.24969596548456,1969.06639529728
0.392873848815672,1969.07639529728
0.517466275033999,1969.08639529728
0.619631297860385,1969.09639529728
0.698949166143046,1969.10639529728
0.755699200245812,1969.11639529728
0.79285921801468,1969.12639529728
0.813866054483009,1969.13639529728
0.822675249641491,1969.14639529728
0.822582636063325,1969.15639529728
0.816684935176626,1969.16639529728
0.806879504204966,1969.17639529728
0.795071079626651,1969.18639529728
0.781968230228052,1969.19639529728
0.768338232004037,1969.20639529728
0.754790920307029,1969.21639529728
0.7413812870952,1969.22639529728
0.72692653507735,1969.23639529728
0.710204020551808,1969.24639529728
0.690274956703071,1969.25639529728
0.66537498377108,1969.26639529728
0.636538539219156,1969.27639529728
0.604288592901682,1969.28639529728
0.570612947437767,1969.29639529728
0.538091244940939,1969.30639529728
0.507783564774877,1969.31639529728
0.482591802650484,1969.32639529728
0.4628638485248,1969.33639529728
0.448901419817696,1969.34639529728
0.44106041311317,1969.35639529728
0.438262330456117,1969.36639529728
0.439690601697796,1969.37639529728
0.444484395197306,1969.38639529728
0.451427032587747,1969.39639529728
0.459331436618213,1969.40639529728
0.465790375292125,1969.41639529728
0.469991864469872,1969.42639529728
0.470398594204573,1969.43639529728
0.4661094708419,1969.44639529728
0.45747702559036,1969.45639529728
0.44476522490535,1969.46639529728
0.428776695068517,1969.47639529728
0.410834853282737,1969.48639529728
0.390665789050803,1969.49639529728
0.368462248518929,1969.50639529728
0.34502237728634,1969.51639529728
0.320615593810696,1969.52639529728
0.296155727813903,1969.53639529728
0.27176645917456,1969.54639529728
0.247834329375719,1969.55639529728
0.223918426149151,1969.56639529728
0.200263534861225,1969.57639529728
0.17717400464672,1969.58639529728
0.154236525408313,1969.59639529728
0.13217386117065,1969.60639529728
0.110402296864228,1969.61639529728
0.0894518470177993,1969.62639529728
0.068654528968058,1969.63639529728
0.048729005120136,1969.64639529728
0.0294486665404948,1969.65639529728
0.0104913617887449,1969.66639529728
-0.00662536147770158,1969.67639529728
-0.024176702410492,1969.68639529728
-0.0413167467611891,1969.69639529728
-0.0585430448042551,1969.70639529728
-0.0756399313739937,1969.71639529728
-0.0913831755225826,1969.72639529728
-0.106601171930897,1969.73639529728
-0.121190492740072,1969.74639529728
-0.135813882753906,1969.75639529728
-0.149706741962534,1969.76639529728
-0.163406412056594,1969.77639529728
-0.176351589606946,1969.78639529728
-0.188759155947389,1969.79639529728
-0.200598829040198,1969.80639529728
-0.212024694718602,1969.81639529728
-0.223453437638799,1969.82639529728
-0.235393300226148,1969.83639529728
-0.247429685526678,1969.84639529728
-0.259909445103497,1969.85639529728
-0.272899733238731,1969.86639529728
-0.28609262967464,1969.87639529728
-0.299337254749809,1969.88639529728
-0.312243453934006,1969.89639529728
-0.32485265310129,1969.90639529728
-0.337288567110266,1969.91639529728
-0.349737840245907,1969.92639529728
-0.362675591553555,1969.93639529728
-0.37492106167129,1969.94639529728
-0.388201803094979,1969.95639529728
-0.402426807102351,1969.96639529728
-0.416901084166086,1969.97639529728
-0.432323340094527,1969.98639529728
-0.447909451758663,1969.99639529728
-0.462755446976546,1970.00639529728
-0.475141309655111,1970.01639529728
-0.481525563839696,1970.02639529728
-0.476110498029925,1970.03639529728
-0.450864267544731,1970.04639529728
-0.398723751192837,1970.05639529728
-0.31505589184946,1970.06639529728
-0.199813366349035,1970.07639529728
-0.0587817987259662,1970.08639529728
0.0988455172877923,1970.09639529728
0.262460545101409,1970.10639529728
0.421732503450345,1970.11639529728
0.568053602600463,1970.12639529728
0.694520743332475,1970.13639529728
0.798358171225112,1970.14639529728
0.878308194694294,1970.15639529728
0.935845435856778,1970.16639529728
0.974208381645881,1970.17639529728
0.997732232807823,1970.18639529728
1.00973723090649,1970.19639529728
1.01391623065663,1970.20639529728
1.01348239990935,1970.21639529728
1.00984926563728,1970.22639529728
1.00514293323913,1970.23639529728
0.999286781649961,1970.24639529728
0.994067941591479,1970.25639529728
0.989185025591383,1970.26639529728
0.984995675116435,1970.27639529728
0.981239111753384,1970.28639529728
0.976674041934077,1970.29639529728
0.970153634004984,1970.30639529728
0.959523077017551,1970.31639529728
0.942519160251933,1970.32639529728
0.91911803989165,1970.33639529728
0.889165383779471,1970.34639529728
0.855065011870362,1970.35639529728
0.819679060627112,1970.36639529728
0.7848754302566,1970.37639529728
0.75328881061912,1970.38639529728
0.72685396000583,1970.39639529728
0.705581505834974,1970.40639529728
0.689049085838139,1970.41639529728
0.677801984444325,1970.42639529728
0.671010907179306,1970.43639529728
0.667333530434654,1970.44639529728
0.665797996986778,1970.45639529728
0.66536194111994,1970.46639529728
0.665124784998444,1970.47639529728
0.663909686157494,1970.48639529728
0.660990166150855,1970.49639529728
0.655449874941177,1970.50639529728
0.64659056558058,1970.51639529728
0.633946298258634,1970.52639529728
0.618649890813274,1970.53639529728
0.600453126352007,1970.54639529728
0.579694065766947,1970.55639529728
0.557286782117276,1970.56639529728
0.533452067853593,1970.57639529728
0.509034738077552,1970.58639529728
0.483830703111628,1970.59639529728
0.457782799560008,1970.60639529728
0.431776064172532,1970.61639529728
0.405640118113922,1970.62639529728
0.379743009228655,1970.63639529728
0.354447748199977,1970.64639529728
0.330122749544802,1970.65639529728
0.306931219641229,1970.66639529728
0.284822672012008,1970.67639529728
0.263804438726084,1970.68639529728
0.243758265976422,1970.69639529728
0.224104718682472,1970.70639529728
0.20555229218018,1970.71639529728
0.18732948038902,1970.72639529728
0.169985539437758,1970.73639529728
0.153512076568064,1970.74639529728
0.136943347947262,1970.75639529728
0.120540481508933,1970.76639529728
0.10368508117896,1970.77639529728
0.0868377575239293,1970.78639529728
0.0701881220203666,1970.79639529728
0.0547340700309827,1970.80639529728
0.0393367390393209,1970.81639529728
0.0248939230080062,1970.82639529728
0.0109038768986965,1970.83639529728
-0.00315509034029511,1970.84639529728
-0.0176217073717921,1970.85639529728
-0.0318744874912528,1970.86639529728
-0.0461534097278399,1970.87639529728
-0.0603418871693985,1970.88639529728
-0.0742469698989508,1970.89639529728
-0.0878324458664757,1970.90639529728
-0.100776507585181,1970.91639529728
-0.114121875509815,1970.92639529728
-0.127322187070186,1970.93639529728
-0.14161726048949,1970.94639529728
-0.15594760279103,1970.95639529728
-0.170792603181042,1970.96639529728
-0.185699035171697,1970.97639529728
-0.200155880202334,1970.98639529728
-0.214710147597649,1970.99639529728
-0.22925973543065,1971.00639529728
-0.243086366475838,1971.01639529728
-0.256060702478118,1971.02639529728
-0.269254649511038,1971.03639529728
-0.283265189624846,1971.04639529728
-0.297807285428074,1971.05639529728
-0.312570776327918,1971.06639529728
-0.327058806594885,1971.07639529728
-0.340752791838805,1971.08639529728
-0.354652480991377,1971.09639529728
-0.368793029776268,1971.10639529728
-0.383130961259703,1971.11639529728
-0.398408831132563,1971.12639529728
-0.41397826160248,1971.13639529728
-0.429288706545959,1971.14639529728
-0.444305219576527,1971.15639529728
-0.457758044298009,1971.16639529728
-0.46854358842304,1971.17639529728
-0.473625933743069,1971.18639529728
-0.467881087549516,1971.19639529728
-0.443625470853625,1971.20639529728
-0.392341642663249,1971.21639529728
-0.309937616697298,1971.22639529728
-0.196670071231624,1971.23639529728
-0.0566391406906668,1971.24639529728
0.100410407242137,1971.25639529728
0.264206948206375,1971.26639529728
0.423193505041535,1971.27639529728
0.56776802886549,1971.28639529728
0.691404529537186,1971.29639529728
0.791015476974126,1971.30639529728
0.866518836562205,1971.31639529728
0.919712248350738,1971.32639529728
0.954428333277999,1971.33639529728
0.974763178600859,1971.34639529728
0.984669029989084,1971.35639529728
0.986875740869535,1971.36639529728
0.984032743668658,1971.37639529728
0.978140733052872,1971.38639529728
0.970834040980578,1971.39639529728
0.963346040271759,1971.40639529728
0.956701183465206,1971.41639529728
0.951486378665566,1971.42639529728
0.947882577823858,1971.43639529728
0.944406803527414,1971.44639529728
0.940334665579695,1971.45639529728
0.932689112752139,1971.46639529728
0.919260515719573,1971.47639529728
0.898962079923566,1971.48639529728
0.871249563720563,1971.49639529728
0.837996262285291,1971.50639529728
0.802074281229269,1971.51639529728
0.766107718260131,1971.52639529728
0.732364170607929,1971.53639529728
0.7016425866143,1971.54639529728
0.675100870164816,1971.55639529728
0.65355658005906,1971.56639529728
0.637206113593078,1971.57639529728
0.626081852820595,1971.58639529728
0.618915303674392,1971.59639529728
0.615063704773715,1971.60639529728
0.613237816455414,1971.61639529728
0.612768048127799,1971.62639529728
0.612862546802284,1971.63639529728
0.611637113412142,1971.64639529728
0.608138304365156,1971.65639529728
0.602193800236919,1971.66639529728
0.592998369224295,1971.67639529728
0.580002231545572,1971.68639529728
0.563654648890066,1971.69639529728
0.544128230989413,1971.70639529728
0.522203574073612,1971.71639529728
0.498398443035229,1971.72639529728
0.472606604601656,1971.73639529728
0.445060383006877,1971.74639529728
0.417245246158811,1971.75639529728
0.389119071341436,1971.76639529728
0.360734834246974,1971.77639529728
0.333011040866277,1971.78639529728
0.305626513351714,1971.79639529728
0.279246710342201,1971.80639529728
0.254183519357992,1971.81639529728
0.229831840459326,1971.82639529728
0.206231327697914,1971.83639529728
0.184294824112086,1971.84639529728
0.163581499946179,1971.85639529728
0.143907122422974,1971.86639529728
0.125129253515667,1971.87639529728
0.106801163261795,1971.88639529728
0.0892537986268541,1971.89639529728
0.0719870218678695,1971.90639529728
0.0548942830291242,1971.91639529728
0.0378710909750879,1971.92639529728
0.0208956196559548,1971.93639529728
0.00322388880500035,1971.94639529728
-0.0141025164694043,1971.95639529728
-0.0313758736280747,1971.96639529728
-0.0485916437316114,1971.97639529728
-0.0653587965286205,1971.98639529728
-0.0822663800809832,1971.99639529728
-0.0985544856609475,1972.00639529728
-0.114384115492233,1972.01639529728
-0.130476587900143,1972.02639529728
-0.146001810457156,1972.03639529728
-0.161292990230674,1972.04639529728
-0.176189234992112,1972.05639529728
-0.190845537200422,1972.06639529728
-0.205595785604334,1972.07639529728
-0.220091254487138,1972.08639529728
-0.234990931909424,1972.09639529728
-0.250224741329396,1972.10639529728
-0.265682171393398,1972.11639529728
-0.28152721666552,1972.12639529728
-0.297642542263986,1972.13639529728
-0.313746658634249,1972.14639529728
-0.32950558461347,1972.15639529728
-0.345122736034402,1972.16639529728
-0.360373549739156,1972.17639529728
-0.375874916688446,1972.18639529728
-0.391355213873742,1972.19639529728
-0.406111095813432,1972.20639529728
-0.420441444739093,1972.21639529728
-0.435046088417105,1972.22639529728
-0.449764394117776,1972.23639529728
-0.465215598822553,1972.24639529728
-0.481184226908204,1972.25639529728
-0.497540482724394,1972.26639529728
-0.513813801632828,1972.27639529728
-0.530003458054234,1972.28639529728
-0.546025875490112,1972.29639529728
-0.560505468088557,1972.30639529728
-0.571914748819511,1972.31639529728
-0.575918458225151,1972.32639529728
-0.566238470104342,1972.33639529728
-0.53498778218934,1972.34639529728
-0.476220286215366,1972.35639529728
-0.387226826724275,1972.36639529728
-0.269556411473519,1972.37639529728
-0.131139727043515,1972.38639529728
0.0189609298955259,1972.39639529728
0.169700016946196,1972.40639529728
0.311895209264215,1972.41639529728
0.437284076727008,1972.42639529728
0.541395114746163,1972.43639529728
0.622264137806845,1972.44639529728
0.681713948151646,1972.45639529728
0.72163775926229,1972.46639529728
0.745803906390873,1972.47639529728
0.757789210682624,1972.48639529728
0.760904850537441,1972.49639529728
0.7577972123496,1972.50639529728
0.75011207535464,1972.51639529728
0.739589209336943,1972.52639529728
0.728313133972312,1972.53639529728
0.717053578686678,1972.54639529728
0.706383509842122,1972.55639529728
0.696147781272148,1972.56639529728
0.686053341954201,1972.57639529728
0.675082412922847,1972.58639529728
0.661668214064556,1972.59639529728
0.64438022406845,1972.60639529728
0.622555851341001,1972.61639529728
0.594847253094539,1972.62639529728
0.562749192039377,1972.63639529728
0.527955985791254,1972.64639529728
0.493525441580897,1972.65639529728
0.461454164715962,1972.66639529728
0.433622698541727,1972.67639529728
0.411768113243163,1972.68639529728
0.395522618686523,1972.69639529728
0.385261215365865,1972.70639529728
0.380402862202917,1972.71639529728
0.380575826306712,1972.72639529728
0.383722777752459,1972.73639529728
0.389447371714284,1972.74639529728
0.395479071760288,1972.75639529728
0.40064008045515,1972.76639529728
0.403618730272453,1972.77639529728
0.403318060434303,1972.78639529728
0.399253863368953,1972.79639529728
0.390592459518698,1972.80639529728
0.378024397542144,1972.81639529728
0.362504179503149,1972.82639529728
0.34407374929665,1972.83639529728
0.322507230924668,1972.84639529728
0.299930202869775,1972.85639529728
0.276235248716178,1972.86639529728
0.252554635937727,1972.87639529728
0.22837635887742,1972.88639529728
0.203971267450211,1972.89639529728
0.179282490805265,1972.90639529728
0.154357043675594,1972.91639529728
0.129316954773945,1972.92639529728
0.105011959475207,1972.93639529728
0.0817129261793282,1972.94639529728
0.0596986292725833,1972.95639529728
0.0386993508576164,1972.96639529728
0.018496542674941,1972.97639529728
-0.000597690649439884,1972.98639529728
-0.0190248613173302,1972.99639529728
-0.0366105896071509,1973.00639529728
-0.052568077716881,1973.01639529728
-0.0677417375251221,1973.02639529728
-0.0825700710882445,1973.03639529728
-0.0967430919877385,1973.04639529728
-0.110890562006099,1973.05639529728
-0.123876457438506,1973.06639529728
-0.13753223230644,1973.07639529728
-0.151071657944286,1973.08639529728
-0.164176159430735,1973.09639529728
-0.177838576221059,1973.10639529728
-0.190871598135099,1973.11639529728
-0.203918808197209,1973.12639529728
-0.216309944030265,1973.13639529728
-0.228667734108273,1973.14639529728
-0.24141243964578,1973.15639529728
-0.254386421740681,1973.16639529728
-0.26793611903203,1973.17639529728
-0.281344724117841,1973.18639529728
-0.294409369526957,1973.19639529728
-0.307638397203796,1973.20639529728
-0.320292714907844,1973.21639529728
-0.332873849584486,1973.22639529728
-0.34621524007869,1973.23639529728
-0.359884145549131,1973.24639529728
-0.373954139258415,1973.25639529728
-0.388979601516314,1973.26639529728
-0.404223093055802,1973.27639529728
-0.419927668688186,1973.28639529728
-0.434825389628056,1973.29639529728
-0.449036015264132,1973.30639529728
-0.460605073650841,1973.31639529728
-0.466095787151723,1973.32639529728
-0.459104873754682,1973.33639529728
-0.432627936369546,1973.34639529728
-0.380371202373047,1973.35639529728
-0.299844814030449,1973.36639529728
-0.192067579284549,1973.37639529728
-0.0635017978820736,1973.38639529728
0.0765153462961685,1973.39639529728
0.218677210685947,1973.40639529728
0.354367677439803,1973.41639529728
0.475452695446382,1973.42639529728
0.578001266200546,1973.43639529728
0.659178379346307,1973.44639529728
0.719673995626626,1973.45639529728
0.761587133292486,1973.46639529728
0.787927217060706,1973.47639529728
0.803223079570624,1973.48639529728
0.809386184150629,1973.49639529728
0.809444792735947,1973.50639529728
0.806196335834078,1973.51639529728
0.800386225038326,1973.52639529728
0.793406114096456,1973.53639529728
0.786931416258765,1973.54639529728
0.782007209674663,1973.55639529728
0.777923586075085,1973.56639529728
0.774884615550712,1973.57639529728
0.770851960112963,1973.58639529728
0.763852560876635,1973.59639529728
0.75185956688437,1973.60639529728
0.733545920108981,1973.61639529728
0.708709544315698,1973.62639529728
0.678199754029618,1973.63639529728
0.643425367075695,1973.64639529728
0.606896175425353,1973.65639529728
0.570721162134808,1973.66639529728
0.536990070654215,1973.67639529728
0.507318527119742,1973.68639529728
0.484023426958518,1973.69639529728
0.467777901903133,1973.70639529728
0.457591491220166,1973.71639529728
0.452523538033374,1973.72639529728
0.451584580243488,1973.73639529728
0.45258459085821,1973.74639529728
0.454067957066576,1973.75639529728
0.45563709901103,1973.76639529728
0.45565009987066,1973.77639529728
0.453393356519704,1973.78639529728
0.44858594751868,1973.79639529728
0.440280207969071,1973.80639529728
0.428001496158413,1973.81639529728
0.412514583824461,1973.82639529728
0.393528886139321,1973.83639529728
0.371836613324412,1973.84639529728
0.349009979886975,1973.85639529728
0.324549655670729,1973.86639529728
0.299612413722663,1973.87639529728
0.274337681274937,1973.88639529728
0.249117401327049,1973.89639529728
0.22369631105186,1973.90639529728
0.19862041835875,1973.91639529728
0.174238694691068,1973.92639529728
0.149891099561219,1973.93639529728
0.126774868239416,1973.94639529728
0.103888448958157,1973.95639529728
0.0823052366309865,1973.96639529728
0.0618888602826008,1973.97639529728
0.0425032678203016,1973.98639529728
0.0242369140161691,1973.99639529728
0.00609121471089841,1974.00639529728
-0.0116124879849855,1974.01639529728
-0.0295750664405756,1974.02639529728
-0.0474161416146092,1974.03639529728
-0.0651099970642248,1974.04639529728
-0.0824179658461737,1974.05639529728
-0.0985901133448027,1974.06639529728
-0.114249612145702,1974.07639529728
-0.129642846377732,1974.08639529728
-0.144788918826414,1974.09639529728
-0.159452297681839,1974.10639529728
-0.174095183382373,1974.11639529728
-0.188546316074379,1974.12639529728
-0.202992900681499,1974.13639529728
-0.216605101794661,1974.14639529728
-0.230207501294005,1974.15639529728
-0.243577869233411,1974.16639529728
-0.256642410699899,1974.17639529728
-0.269305463129191,1974.18639529728
-0.281556165203592,1974.19639529728
-0.293397112638668,1974.20639529728
-0.305477350653007,1974.21639529728
-0.317947959257445,1974.22639529728
-0.330931548426961,1974.23639529728
-0.344162704676646,1974.24639529728
-0.358237281713351,1974.25639529728
-0.372485549854478,1974.26639529728
-0.387086436185384,1974.27639529728
-0.401732559166521,1974.28639529728
-0.416208565100448,1974.29639529728
-0.431440105466171,1974.30639529728
-0.446596782352889,1974.31639529728
-0.461279649818538,1974.32639529728
-0.475819302016412,1974.33639529728
-0.48989125754626,1974.34639529728
-0.503490869342126,1974.35639529728
-0.517469555001286,1974.36639529728
-0.531371440399899,1974.37639529728
-0.545343940427736,1974.38639529728
-0.559101434066283,1974.39639529728
-0.573218641048076,1974.40639529728
-0.587058175942219,1974.41639529728
-0.599427800690053,1974.42639529728
-0.607911685181098,1974.43639529728
-0.606886825561336,1974.44639529728
-0.589378111805009,1974.45639529728
-0.547984794627919,1974.46639529728
-0.477809397203899,1974.47639529728
-0.37657437829349,1974.48639529728
-0.248581520568777,1974.49639529728
-0.101071620087691,1974.50639529728
0.0555149289408344,1974.51639529728
0.210779818761737,1974.52639529728
0.355021285391294,1974.53639529728
0.480510250694427,1974.54639529728
0.583597595577351,1974.55639529728
0.6626648000094,1974.56639529728
0.719253805923593,1974.57639529728
0.757218442251921,1974.58639529728
0.780209239466436,1974.59639529728
0.792460324854363,1974.60639529728
0.7968758017656,1974.61639529728
0.796511226139263,1974.62639529728
0.793149640514052,1974.63639529728
0.789037086021344,1974.64639529728
0.784433764722805,1974.65639529728
0.779993053551323,1974.66639529728
0.777329853224163,1974.67639529728
0.775527771928312,1974.68639529728
0.773599401425305,1974.69639529728
0.770587569896863,1974.70639529728
0.764582511402123,1974.71639529728
0.754193048868428,1974.72639529728
0.737888700701747,1974.73639529728
0.71440467652298,1974.74639529728
0.684954410659672,1974.75639529728
0.650836651725135,1974.76639529728
0.614211882558138,1974.77639529728
0.578261365787712,1974.78639529728
0.544310130018618,1974.79639529728
0.514616689855629,1974.80639529728
0.489801326271293,1974.81639529728
0.469641188898926,1974.82639529728
0.454896763354278,1974.83639529728
0.444675359637764,1974.84639529728
0.438504552794062,1974.85639529728
0.434833247643182,1974.86639529728
0.433118813482978,1974.87639529728
0.431988235750606,1974.88639529728
0.430991679047112,1974.89639529728
0.428906575035621,1974.90639529728
0.426026907081574,1974.91639529728
0.42045576786837,1974.92639529728
0.410949373651542,1974.93639529728
0.398021956095301,1974.94639529728
0.380606452094602,1974.95639529728
0.360380301765556,1974.96639529728
0.338095143940029,1974.97639529728
0.314867695391546,1974.98639529728
0.290804862974054,1974.99639529728
0.266291015638013,1975.00639529728
0.24203974126887,1975.01639529728
0.217074544625061,1975.02639529728
0.192000130051804,1975.03639529728
0.167252811753753,1975.04639529728
0.142330598928597,1975.05639529728
0.117541151304353,1975.06639529728
0.093412457387105,1975.07639529728
0.0697940725942108,1975.08639529728
0.0466664732703864,1975.09639529728
0.0250090276486481,1975.10639529728
0.0043197541971215,1975.11639529728
-0.015683073647672,1975.12639529728
-0.0349705308876965,1975.13639529728
-0.0531862235755282,1975.14639529728
-0.0708486720290029,1975.15639529728
-0.0879203959284156,1975.16639529728
-0.10399199763654,1975.17639529728
-0.119847266469259,1975.18639529728
-0.135379738394426,1975.19639529728
-0.150852803418873,1975.20639529728
-0.166050486471348,1975.21639529728
-0.181096460450175,1975.22639529728
-0.195910099176387,1975.23639529728
-0.210408639826569,1975.24639529728
-0.225076660915565,1975.25639529728
-0.239070254007145,1975.26639529728
-0.252945973010672,1975.27639529728
-0.266808020437764,1975.28639529728
-0.280887891894611,1975.29639529728
-0.295304577852333,1975.30639529728
-0.309202823359116,1975.31639529728
-0.322799058311639,1975.32639529728
-0.3361180601299,1975.33639529728
-0.348989207737392,1975.34639529728
-0.362194536793451,1975.35639529728
-0.375278896213209,1975.36639529728
-0.388527929028209,1975.37639529728
-0.401705243621212,1975.38639529728
-0.415388612861113,1975.39639529728
-0.429366875148391,1975.40639529728
-0.443700990897728,1975.41639529728
-0.458187965868213,1975.42639529728
-0.472749504258041,1975.43639529728
-0.487272625790487,1975.44639529728
-0.50122898869235,1975.45639529728
-0.515258735299373,1975.46639529728
-0.528377312001709,1975.47639529728
-0.541321117502476,1975.48639529728
-0.554262772385463,1975.49639529728
-0.567432642261825,1975.50639529728
-0.580713601507623,1975.51639529728
-0.593835422992404,1975.52639529728
-0.606707496356622,1975.53639529728
-0.62021862858678,1975.54639529728
-0.633364803276259,1975.55639529728
-0.646903006756092,1975.56639529728
-0.659194445725525,1975.57639529728
-0.668159110115233,1975.58639529728
-0.669409367371343,1975.59639529728
-0.656508716972435,1975.60639529728
-0.62174805859645,1975.61639529728
-0.559492984895635,1975.62639529728
-0.466137267955627,1975.63639529728
-0.344094597028938,1975.64639529728
-0.200114695412783,1975.65639529728
-0.0431001770712561,1975.66639529728
0.11509896235009,1975.67639529728
0.265456257730928,1975.68639529728
0.398523726692608,1975.69639529728
0.509108786976886,1975.70639529728
0.594959363078878,1975.71639529728
0.658463971584046,1975.72639529728
0.701549254302043,1975.73639529728
0.727865188872452,1975.74639529728
0.7415814870432,1975.75639529728
0.746235853162179,1975.76639529728
0.744701820434214,1975.77639529728
0.740177142431647,1975.78639529728
0.732782001931871,1975.79639529728
0.724860879604017,1975.80639529728
0.717113126585621,1975.81639529728
0.710047667056461,1975.82639529728
0.703263666829056,1975.83639529728
0.696776765601449,1975.84639529728
0.69058311582464,1975.85639529728
0.682385498374154,1975.86639529728
0.671415298626643,1975.87639529728
0.655079296727441,1975.88639529728
0.632693125386977,1975.89639529728
0.602951049928876,1975.90639529728
0.568028153010298,1975.91639529728
0.53062215427626,1975.92639529728
0.493079631405375,1975.93639529728
0.458010678893706,1975.94639529728
0.427755394189435,1975.95639529728
0.402969424973578,1975.96639529728
0.383405748134763,1975.97639529728
0.368905989856288,1975.98639529728
0.359099757919196,1975.99639529728
0.353664659239216,1976.00639529728
0.351359871017443,1976.01639529728
0.351340673311948,1976.02639529728
0.352317819162377,1976.03639529728
0.352984174990075,1976.04639529728
0.352350112547989,1976.05639529728
0.348868609141142,1976.06639529728
0.342202971699531,1976.07639529728
0.332529203741608,1976.08639529728
0.319041981143549,1976.09639529728
0.302233624970379,1976.10639529728
0.282919110405643,1976.11639529728
0.261679685737889,1976.12639529728
0.237813010712854,1976.13639529728
0.212247963929272,1976.14639529728
0.185169455288421,1976.15639529728
0.157673901349829,1976.16639529728
0.130333169027253,1976.17639529728
0.103308423465565,1976.18639529728
0.0766264604320788,1976.19639529728
0.0501472275751303,1976.20639529728
0.0240857937930892,1976.21639529728
-0.00183644750161277,1976.22639529728
-0.0266486794694804,1976.23639529728
-0.0507329561960033,1976.24639529728
-0.0737012614179097,1976.25639529728
-0.0960025696386377,1976.26639529728
-0.11708476632006,1976.27639529728
-0.138132608705158,1976.28639529728
-0.15835239459064,1976.29639529728
-0.177743841618387,1976.30639529728
-0.195697615523484,1976.31639529728
-0.212407461304275,1976.32639529728
-0.22880822075054,1976.33639529728
-0.245615337100829,1976.34639529728
-0.262382921672068,1976.35639529728
-0.279097239260772,1976.36639529728
-0.295487294435277,1976.37639529728
-0.311483006671075,1976.38639529728
-0.327257518968491,1976.39639529728
-0.343056954289503,1976.40639529728
-0.358450229426749,1976.41639529728
-0.373570025591578,1976.42639529728
-0.388151420360209,1976.43639529728
-0.401969191107922,1976.44639529728
-0.415464885714922,1976.45639529728
-0.429273050657168,1976.46639529728
-0.44297046326549,1976.47639529728
-0.457172150303727,1976.48639529728
-0.471661896876556,1976.49639529728
-0.486480334109187,1976.50639529728
-0.501191132264355,1976.51639529728
-0.515790481211537,1976.52639529728
-0.530171348837862,1976.53639529728
-0.543895790837296,1976.54639529728
-0.557275380339541,1976.55639529728
-0.570804497074593,1976.56639529728
-0.58428855826925,1976.57639529728
-0.597668373844024,1976.58639529728
-0.611187763231741,1976.59639529728
-0.624539433950822,1976.60639529728
-0.637940298690397,1976.61639529728
-0.652451510451332,1976.62639529728
-0.667480808208975,1976.63639529728
-0.682938351979811,1976.64639529728
-0.69822100840237,1976.65639529728
-0.71283211280784,1976.66639529728
-0.726351735998562,1976.67639529728
-0.737790854467883,1976.68639529728
-0.744499490444377,1976.69639529728
-0.740983059410853,1976.70639529728
-0.719123994302135,1976.71639529728
-0.672245056828185,1976.72639529728
-0.595908507129373,1976.73639529728
-0.49005005346218,1976.74639529728
-0.359017463630624,1976.75639529728
-0.210812722107564,1976.76639529728
-0.0558893368368827,1976.77639529728
0.0955311452584307,1976.78639529728
0.234138462759838,1976.79639529728
0.353811117278764,1976.80639529728
0.450901236437669,1976.81639529728
0.524886491295558,1976.82639529728
0.57724479084608,1976.83639529728
0.610337028391331,1976.84639529728
0.628347015603253,1976.85639529728
0.63477400892098,1976.86639529728
0.63269430298218,1976.87639529728
0.625211336453658,1976.88639529728
0.613991769958802,1976.89639529728
0.601324450348449,1976.90639529728
0.588280778241277,1976.91639529728
0.574739446291156,1976.92639529728
0.562217858324008,1976.93639529728
0.550097130612139,1976.94639529728
0.537609728262559,1976.95639529728
0.523258804285371,1976.96639529728
0.505938732892675,1976.97639529728
0.484278104380168,1976.98639529728
0.457598400712835,1976.99639529728
0.426589212270964,1977.00639529728
0.392104577608942,1977.01639529728
0.357464374323861,1977.02639529728
0.324848512702781,1977.03639529728
0.296637326817445,1977.04639529728
0.274614875178165,1977.05639529728
0.259143613790779,1977.06639529728
0.250204165529012,1977.07639529728
0.247306703460958,1977.08639529728
0.24969991240427,1977.09639529728
0.256018523515358,1977.10639529728
0.264621417866907,1977.11639529728
0.274402668134158,1977.12639529728
0.28380925872769,1977.13639529728
0.290739318784278,1977.14639529728
0.294382898404737,1977.15639529728
0.294475224365798,1977.16639529728
0.289704847743985,1977.17639529728
0.280808908516452,1977.18639529728
0.26794198488638,1977.19639529728
0.251330277601802,1977.20639529728
0.231602594740217,1977.21639529728
0.210087066196965,1977.22639529728
0.186957004544059,1977.23639529728
0.162791446688229,1977.24639529728
0.138034818642943,1977.25639529728
0.112945144761429,1977.26639529728
0.0881116155757633,1977.27639529728
0.0634660546363589,1977.28639529728
0.0389126853112969,1977.29639529728
0.0147629802113114,1977.30639529728
-0.00919461007840612,1977.31639529728
-0.0332220910665403,1977.32639529728
-0.0563567767079623,1977.33639529728
-0.0782322754131025,1977.34639529728
-0.0983977650519272,1977.35639529728
-0.11696652307781,1977.36639529728
-0.134291525237932,1977.37639529728
-0.151399512104238,1977.38639529728
-0.167995004313274,1977.39639529728
-0.184007409212206,1977.40639529728
-0.199353680494559,1977.41639529728
-0.213360184418264,1977.42639529728
-0.22706608201005,1977.43639529728
-0.240204280121956,1977.44639529728
-0.252472766112009,1977.45639529728
-0.264485290715709,1977.46639529728
-0.276080986031984,1977.47639529728
-0.287501015978506,1977.48639529728
-0.299029922015403,1977.49639529728
-0.310916153235108,1977.50639529728
-0.323096193564881,1977.51639529728
-0.335800988104254,1977.52639529728
-0.348321569077379,1977.53639529728
-0.360866426433485,1977.54639529728
-0.373500938682834,1977.55639529728
-0.385995388145038,1977.56639529728
-0.39814329476794,1977.57639529728
-0.410004943034993,1977.58639529728
-0.421971201367174,1977.59639529728
-0.434685158430842,1977.60639529728
-0.447457576196007,1977.61639529728
-0.460608778050759,1977.62639529728
-0.473853845985514,1977.63639529728
-0.48674488285957,1977.64639529728
-0.498640802408175,1977.65639529728
-0.507466142330054,1977.66639529728
-0.509064212732065,1977.67639529728
-0.497102913720604,1977.68639529728
-0.464479185672673,1977.69639529728
-0.404820763997837,1977.70639529728
-0.315657666483118,1977.71639529728
-0.198827863875604,1977.72639529728
-0.0611492827175562,1977.73639529728
0.0884278252917013,1977.74639529728
0.239180233848915,1977.75639529728
0.382184476483806,1977.76639529728
0.508723095236919,1977.77639529728
0.614454215717733,1977.78639529728
0.697574010172634,1977.79639529728
0.759182696265063,1977.80639529728
0.801261365698238,1977.81639529728
0.827249471765594,1977.82639529728
0.841277121006899,1977.83639529728
0.847170539828535,1977.84639529728
0.846772067841228,1977.85639529728
0.842611288150554,1977.86639529728
0.836039641135861,1977.87639529728
0.828402475555724,1977.88639529728
0.820967190882574,1977.89639529728
0.814025571519903,1977.90639529728
0.807367975649404,1977.91639529728
0.800868891579486,1977.92639529728
0.793991239842041,1977.93639529728
0.786026932689194,1977.94639529728
0.774265932101352,1977.95639529728
0.757068037511818,1977.96639529728
0.733492775988441,1977.97639529728
0.702686712373265,1977.98639529728
0.667315162457983,1977.99639529728
0.629041192660779,1978.00639529728
0.591409004994685,1978.01639529728
0.557000695644555,1978.02639529728
0.526608829950651,1978.03639529728
0.501982434361063,1978.04639529728
0.483454010234353,1978.05639529728
0.47102966935719,1978.06639529728
0.464340874816807,1978.07639529728
0.461961382587507,1978.08639529728
0.462455411424715,1978.09639529728
0.464983594634338,1978.10639529728
0.467479339889532,1978.11639529728
0.469068829695043,1978.12639529728
0.468561504937056,1978.13639529728
0.464876749253426,1978.14639529728
0.457692346396664,1978.15639529728
0.446790986863294,1978.16639529728
0.432157038870453,1978.17639529728
0.414117063606626,1978.18639529728
0.393575630707821,1978.19639529728
0.370579995159598,1978.20639529728
0.346330634826073,1978.21639529728
0.320977199183938,1978.22639529728
0.295164314062354,1978.23639529728
0.26908211220352,1978.24639529728
0.242869299248231,1978.25639529728
0.216207386441675,1978.26639529728
0.18959279014566,1978.27639529728
0.163341636647285,1978.28639529728
0.13733138653997,1978.29639529728
0.112146943829277,1978.30639529728
0.0881805072544777,1978.31639529728
0.0644992719725024,1978.32639529728
0.0418055198589442,1978.33639529728
0.0204280601182668,1978.34639529728
0.000511824449824094,1978.35639529728
-0.0186770181797017,1978.36639529728
-0.0373755052033478,1978.37639529728
-0.0554092304214306,1978.38639529728
-0.0733729998704938,1978.39639529728
-0.0906088930151928,1978.40639529728
-0.107616003701773,1978.41639529728
-0.125127242405874,1978.42639529728
-0.142544045416244,1978.43639529728
-0.15941291222173,1978.44639529728
-0.175569466887128,1978.45639529728
-0.192214473363676,1978.46639529728
-0.208134845391604,1978.47639529728
-0.223797392388287,1978.48639529728
-0.238671150125358,1978.49639529728
-0.252848447634016,1978.50639529728
-0.26681201571386,1978.51639529728
-0.280789308757801,1978.52639529728
-0.294029077006021,1978.53639529728
-0.307303986842849,1978.54639529728
-0.32110676742352,1978.55639529728
-0.335073558533323,1978.56639529728
-0.349172611106771,1978.57639529728
-0.363448836502386,1978.58639529728
-0.378021861417159,1978.59639529728
-0.392752302530416,1978.60639529728
-0.407268322505814,1978.61639529728
-0.421767331854415,1978.62639529728
-0.435665379956217,1978.63639529728
-0.449689112080862,1978.64639529728
-0.463434551714684,1978.65639529728
-0.477144386040543,1978.66639529728
-0.490575790279355,1978.67639529728
-0.503681354430066,1978.68639529728
-0.517098909479206,1978.69639529728
-0.529959941645014,1978.70639529728
-0.543532522335173,1978.71639529728
-0.557223775073303,1978.72639529728
-0.571329600400705,1978.73639529728
-0.585145684283352,1978.74639529728
-0.599560700534312,1978.75639529728
-0.613850184742001,1978.76639529728
-0.628399668780536,1978.77639529728
-0.64276184837582,1978.78639529728
-0.65542969609277,1978.79639529728
-0.665497904163085,1978.80639529728
-0.668733202366879,1978.81639529728
-0.658614594339425,1978.82639529728
-0.627439879544057,1978.83639529728
-0.566937089347365,1978.84639529728
-0.473498530629745,1978.85639529728
-0.347911858201384,1978.86639529728
-0.195878583489417,1978.87639529728
-0.0286244892547983,1978.88639529728
0.14146081627805,1978.89639529728
0.303777984514797,1978.90639529728
0.448870064145469,1978.91639529728
0.571095837665284,1978.92639529728
0.667311783177559,1978.93639529728
0.738450026509865,1978.94639529728
0.786796486293529,1978.95639529728
0.816759922823111,1978.96639529728
0.832344425468691,1978.97639529728
0.837815359909981,1978.98639529728
0.835718505101664,1978.99639529728
0.828776063750813,1979.00639529728
0.819200048694269,1979.01639529728
0.808055645815478,1979.02639529728
0.797349069374114,1979.03639529728
0.78725229722499,1979.04639529728
0.777823415722889,1979.05639529728
0.768825277267684,1979.06639529728
0.759584444465199,1979.07639529728
0.748192860098255,1979.08639529728
0.733825098696389,1979.09639529728
0.714555349835151,1979.10639529728
0.689112169664336,1979.11639529728
0.657282427509034,1979.12639529728
0.619757945029949,1979.13639529728
0.578647321153581,1979.14639529728
0.535993800110888,1979.15639529728
0.49461379581579,1979.16639529728
0.456358510536838,1979.17639529728
0.422941767608533,1979.18639529728
0.394697103786681,1979.19639529728
0.372763374077984,1979.20639529728
0.356067975078669,1979.21639529728
0.343829887708102,1979.22639529728
0.335459538650097,1979.23639529728
0.329489789581058,1979.24639529728
0.324933386372138,1979.25639529728
0.321277372533162,1979.26639529728
0.316326459840826,1979.27639529728
0.309609379233279,1979.28639529728
0.298664880711204,1979.29639529728
0.284579895499237,1979.30639529728
0.265801488332698,1979.31639529728
0.243255658898597,1979.32639529728
0.21763701837581,1979.33639529728
0.188974679521024,1979.34639529728
0.158683204020055,1979.35639529728
0.125700608390391,1979.36639529728
0.0914057137209551,1979.37639529728
0.0555675821651849,1979.38639529728
0.0178062273934471,1979.39639529728
-0.0209536904124743,1979.40639529728
-0.0612020324701199,1979.41639529728
-0.10328073421096,1979.42639529728
-0.149017304262202,1979.43639529728
-0.202088563113032,1979.44639529728
-0.26735573503247,1979.45639529728
-0.34804008166826,1979.46639529728
-0.44528919973696,1979.47639529728
-0.557008931292101,1979.48639529728
-0.680125944901816,1979.49639529728
-0.811878415342407,1979.50639529728
-0.948013949528349,1979.51639529728
-1.08517915838035,1979.52639529728
-1.22039692358032,1979.53639529728
-1.35175241109611,1979.54639529728
-1.47686708819219,1979.55639529728
-1.5951284282288,1979.56639529728
-1.7047227725665,1979.57639529728
-1.8049936391532,1979.58639529728
-1.89619850608806,1979.59639529728
-1.97896188242473,1979.60639529728
-2.0533637208169,1979.61639529728
-2.12053562974489,1979.62639529728
-2.18021310702439,1979.63639529728
-2.23424298892063,1979.64639529728
-2.2830565729172,1979.65639529728
-2.3267133180501,1979.66639529728
-2.36596272157053,1979.67639529728
-2.40159428510859,1979.68639529728
-2.43371574398177,1979.69639529728
-2.46261028151609,1979.70639529728
-2.48912370599543,1979.71639529728
-2.51216763404732,1979.72639529728
-2.53222066127629,1979.73639529728
-2.54903669691266,1979.74639529728
-2.56197897216262,1979.75639529728
-2.57142920265826,1979.76639529728
-2.57862545078601,1979.77639529728
-2.58312437414177,1979.78639529728
-2.58576832875547,1979.79639529728
-2.58580044423192,1979.80639529728
-2.58385325675866,1979.81639529728
-2.57824390032863,1979.82639529728
-2.56990323506029,1979.83639529728
-2.55795089263683,1979.84639529728
-2.54374006717139,1979.85639529728
-2.52721439680226,1979.86639529728
-2.50872980147113,1979.87639529728
-2.48837997602746,1979.88639529728
-2.46640410620239,1979.89639529728
-2.4433776119516,1979.90639529728
-2.4189358165832,1979.91639529728
-2.39441015905787,1979.92639529728
-2.3693661273761,1979.93639529728
-2.34470559770341,1979.94639529728
-2.31965356625935,1979.95639529728
-2.29311922286355,1979.96639529728
-2.2622143525014,1979.97639529728
-2.2211088302491,1979.98639529728
-2.16171906026678,1979.99639529728
-2.07349263038033,1980.00639529728
-1.95003121644015,1980.01639529728
-1.78757961516892,1980.02639529728
-1.59015425245854,1980.03639529728
-1.36355270373166,1980.04639529728
-1.12083662514274,1980.05639529728
-0.874685868967198,1980.06639529728
-0.638992677723717,1980.07639529728
-0.423841049675807,1980.08639529728
-0.23685900902436,1980.09639529728
-0.0818006516065978,1980.10639529728
0.0421587131508952,1980.11639529728
0.136039101929997,1980.12639529728
0.204748039015494,1980.13639529728
0.252512176308679,1980.14639529728
0.284117472946948,1980.15639529728
0.304374434056069,1980.16639529728
0.317108309616246,1980.17639529728
0.324483112202168,1980.18639529728
0.32863470966143,1980.19639529728
0.330317333953583,1980.20639529728
0.329912940283736,1980.21639529728
0.328421984229326,1980.22639529728
0.326040407314866,1980.23639529728
0.32230011980756,1980.24639529728
0.316091425337095,1980.25639529728
0.306284442810884,1980.26639529728
0.290497541763356,1980.27639529728
0.268040546088531,1980.28639529728
0.238731189996735,1980.29639529728
0.203152226201997,1980.30639529728
0.165582435066916,1980.31639529728
0.128511692832667,1980.32639529728
0.0945646392429014,1980.33639529728
0.0658702367367288,1980.34639529728
0.0417030281309728,1980.35639529728
0.0237995229247632,1980.36639529728
0.0108918762064748,1980.37639529728
0.00257263749266713,1980.38639529728
-0.00108485950028772,1980.39639529728
-0.00143155464785847,1980.40639529728
0.000516478259243544,1980.41639529728
0.00328615898552992,1980.42639529728
0.00544365773049172,1980.43639529728
0.00482184630001061,1980.44639529728
0.00143746905180851,1980.45639529728
-0.00571330261715158,1980.46639529728
-0.0167625479213485,1980.47639529728
-0.0319814012366855,1980.48639529728
-0.0505736966294726,1980.49639529728
-0.0725627558534901,1980.50639529728
-0.0971528887111087,1980.51639529728
-0.124439883781565,1980.52639529728
-0.153242276100805,1980.53639529728
-0.183203748676987,1980.54639529728
-0.21424105647418,1980.55639529728
-0.246195497919268,1980.56639529728
-0.279350986104762,1980.57639529728
-0.312736403671358,1980.58639529728
-0.346461144507036,1980.59639529728
-0.380278753098126,1980.60639529728
-0.413141838898804,1980.61639529728
-0.44521811366365,1980.62639529728
-0.47619187100343,1980.63639529728
-0.506409667615744,1980.64639529728
-0.536182086169074,1980.65639529728
-0.565391809236337,1980.66639529728
-0.594352566307522,1980.67639529728
-0.622211277465673,1980.68639529728
-0.649482841125719,1980.69639529728
-0.676230875798638,1980.70639529728
-0.70173017715222,1980.71639529728
-0.726550157094872,1980.72639529728
-0.750835562973898,1980.73639529728
-0.77370200018228,1980.74639529728
-0.795925020600405,1980.75639529728
-0.817656943546485,1980.76639529728
-0.838901972974885,1980.77639529728
-0.86039627997646,1980.78639529728
-0.88164071886031,1980.79639529728
-0.902878337040563,1980.80639529728
-0.923916599512052,1980.81639529728
-0.945258737250313,1980.82639529728
-0.967587053248959,1980.83639529728
-0.989696350722786,1980.84639529728
-1.01248334817623,1980.85639529728
-1.03540889386293,1980.86639529728
-1.05791996292572,1980.87639529728
-1.08028170942679,1980.88639529728
-1.10196386576352,1980.89639529728
-1.12344641835623,1980.90639529728
-1.144522029078,1980.91639529728
-1.16577316380315,1980.92639529728
-1.18622491378334,1980.93639529728
-1.20608196245007,1980.94639529728
-1.22529472866787,1980.95639529728
-1.24438023315323,1980.96639529728
-1.26383762633071,1980.97639529728
-1.28511836492894,1980.98639529728
-1.30740763045775,1980.99639529728
-1.33032449846736,1981.00639529728
-1.35385331924427,1981.01639529728
-1.37733097313806,1981.02639529728
-1.40023374014601,1981.03639529728
-1.42054888755236,1981.04639529728
-1.43436018209216,1981.05639529728
-1.43555772155362,1981.06639529728
-1.41833598388604,1981.07639529728
-1.37650982427221,1981.08639529728
-1.30552743407011,1981.09639529728
-1.20721473381041,1981.10639529728
-1.08542962325665,1981.11639529728
-0.947057220230415,1981.12639529728
-0.801427863755897,1981.13639529728
-0.657179002324612,1981.14639529728
-0.521944264166453,1981.15639529728
-0.400962377389152,1981.16639529728
-0.298198850078561,1981.17639529728
-0.215095099626228,1981.18639529728
-0.151890246801694,1981.19639529728
-0.106661725908588,1981.20639529728
-0.0770289940870799,1981.21639529728
-0.0602505000173317,1981.22639529728
-0.0538589067449546,1981.23639529728
-0.0552699682616745,1981.24639529728
-0.0618759648371273,1981.25639529728
-0.0725976233506999,1981.26639529728
-0.0850347579776838,1981.27639529728
-0.0984540393532254,1981.28639529728
-0.111581584596947,1981.29639529728
-0.125306420570129,1981.30639529728
-0.140409648919942,1981.31639529728
-0.158173908911812,1981.32639529728
-0.179516298453708,1981.33639529728
-0.205673258626667,1981.34639529728
-0.236861140671694,1981.35639529728
-0.271644842080868,1981.36639529728
-0.308088800768402,1981.37639529728
-0.344398697716537,1981.38639529728
-0.378146884622573,1981.39639529728
-0.40801910935042,1981.40639529728
-0.432676973739659,1981.41639529728
-0.45207335828948,1981.42639529728
-0.466769651461013,1981.43639529728
-0.475810768877291,1981.44639529728
-0.480142214352451,1981.45639529728
-0.48066611935837,1981.46639529728
-0.478943814823688,1981.47639529728
-0.476569950714766,1981.48639529728
-0.474832680362675,1981.49639529728
-0.475065213956302,1981.50639529728
-0.47845114858372,1981.51639529728
-0.485881414931191,1981.52639529728
-0.496653975013492,1981.53639529728
-0.511275780244212,1981.54639529728
-0.529715430500929,1981.55639529728
-0.551418652384774,1981.56639529728
-0.576296055707345,1981.57639529728
-0.602924197096612,1981.58639529728
-0.631372795547232,1981.59639529728
-0.659963145300727,1981.60639529728
-0.689517232009751,1981.61639529728
-0.71906388221914,1981.62639529728
-0.748417740719847,1981.63639529728
-0.777971423496963,1981.64639529728
-0.807155889287678,1981.65639529728
-0.836125149285361,1981.66639529728
-0.864685755856462,1981.67639529728
-0.893141481205402,1981.68639529728
-0.920539399440925,1981.69639529728
-0.947950031901167,1981.70639529728
-0.975523332317681,1981.71639529728
-1.00273636424677,1981.72639529728
-1.02986722184588,1981.73639529728
-1.05640216629165,1981.74639529728
-1.08181842223901,1981.75639529728
-1.10674581571564,1981.76639529728
-1.13161460476297,1981.77639529728
-1.15625881282911,1981.78639529728
-1.18060449912835,1981.79639529728
-1.20426941090685,1981.80639529728
-1.22732057127155,1981.81639529728
-1.24973012387748,1981.82639529728
-1.27181113723142,1981.83639529728
-1.29359219585034,1981.84639529728
-1.31483177141513,1981.85639529728
-1.33593643048175,1981.86639529728
-1.35619638559859,1981.87639529728
-1.37698721723649,1981.88639529728
-1.39766757032734,1981.89639529728
-1.4183199884246,1981.90639529728
-1.43940088393596,1981.91639529728
-1.45993133290618,1981.92639529728
-1.47996663676428,1981.93639529728
-1.49935586376061,1981.94639529728
-1.51804857383826,1981.95639529728
-1.53622664610533,1981.96639529728
-1.5540517509064,1981.97639529728
-1.57151670509565,1981.98639529728
-1.58897257499682,1981.99639529728
-1.6070772101498,1982.00639529728
-1.62540434524902,1982.01639529728
-1.64396501265767,1982.02639529728
-1.6622850983327,1982.03639529728
-1.680242417119,1982.04639529728
-1.69698805031267,1982.05639529728
-1.70875013851119,1982.06639529728
-1.7101972970834,1982.07639529728
-1.69561980613988,1982.08639529728
-1.65970527110068,1982.09639529728
-1.60050487932584,1982.10639529728
-1.5195656229008,1982.11639529728
-1.41980991334644,1982.12639529728
-1.30721293275738,1982.13639529728
-1.18812789341468,1982.14639529728
-1.06812043053629,1982.15639529728
-0.952621957292688,1982.16639529728
-0.846361420600613,1982.17639529728
-0.75104016557657,1982.18639529728
-0.668585117446031,1982.19639529728
-0.599710075289401,1982.20639529728
-0.543206115022033,1982.21639529728
-0.497717884012285,1982.22639529728
-0.462010018264319,1982.23639529728
-0.433869508879979,1982.24639529728
-0.412367520779944,1982.25639529728
-0.396582276757868,1982.26639529728
-0.384401060462254,1982.27639529728
-0.374928682149928,1982.28639529728
-0.366487290690971,1982.29639529728
-0.35967363624264,1982.30639529728
-0.354228774356376,1982.31639529728
-0.350275681546443,1982.32639529728
-0.349016212139551,1982.33639529728
-0.350891639069179,1982.34639529728
-0.356961992444132,1982.35639529728
-0.367546801463817,1982.36639529728
-0.384541464502906,1982.37639529728
-0.406326661504078,1982.38639529728
-0.431847634888387,1982.39639529728
-0.45966869847016,1982.40639529728
-0.488093662441929,1982.41639529728
-0.515640115071716,1982.42639529728
-0.54130891642836,1982.43639529728
-0.564168390972737,1982.44639529728
-0.583528888784449,1982.45639529728
-0.599169817711377,1982.46639529728
-0.611783656379578,1982.47639529728
-0.621465281407014,1982.48639529728
-0.628674466122136,1982.49639529728
-0.63451688724995,1982.50639529728
-0.639111155308453,1982.51639529728
-0.643550927673724,1982.52639529728
-0.649451877741419,1982.53639529728
-0.657779005708597,1982.54639529728
-0.668356615968235,1982.55639529728
-0.680917202891295,1982.56639529728
-0.695088571884438,1982.57639529728
-0.710820315765227,1982.58639529728
-0.728193565941774,1982.59639529728
-0.747647790124265,1982.60639529728
-0.769160127931159,1982.61639529728
-0.793140252126985,1982.62639529728
-0.818540253514505,1982.63639529728
-0.844864164528485,1982.64639529728
-0.872362508671921,1982.65639529728
-0.899393918534878,1982.66639529728
-0.925802083291717,1982.67639529728
-0.951664824735079,1982.68639529728
-0.97735081475636,1982.69639529728
-1.00229005095765,1982.70639529728
-1.02717280122052,1982.71639529728
-1.05168145743504,1982.72639529728
-1.07610653369777,1982.73639529728
-1.09991993705024,1982.74639529728
-1.12269525219779,1982.75639529728
-1.14591850497374,1982.76639529728
-1.16827266875067,1982.77639529728
-1.19034565148047,1982.78639529728
-1.21220030945708,1982.79639529728
-1.23350882258453,1982.80639529728
-1.25356391099587,1982.81639529728
-1.2730856228557,1982.82639529728
-1.29199562688318,1982.83639529728
-1.31043750467425,1982.84639529728
-1.32973114413242,1982.85639529728
-1.34854188495793,1982.86639529728
-1.36708094982358,1982.87639529728
-1.38500366105619,1982.88639529728
-1.40263213836728,1982.89639529728
-1.41989609028617,1982.90639529728
-1.43745430560719,1982.91639529728
-1.45473279111801,1982.92639529728
-1.47200709440581,1982.93639529728
-1.48950000150709,1982.94639529728
-1.5067126118733,1982.95639529728
-1.52404021781677,1982.96639529728
-1.54089928026366,1982.97639529728
-1.55769925127957,1982.98639529728
-1.57475797797627,1982.99639529728
-1.59171167341237,1983.00639529728
-1.60897520879917,1983.01639529728
-1.62622589190501,1983.02639529728
-1.64360994603912,1983.03639529728
-1.6613300382497,1983.04639529728
-1.67904897119928,1983.05639529728
-1.69605737172684,1983.06639529728
-1.71318539909854,1983.07639529728
-1.72940279644436,1983.08639529728
-1.74539802681691,1983.09639529728
-1.76065895603024,1983.10639529728
-1.77569765269794,1983.11639529728
-1.79159021879954,1983.12639529728
-1.80780161006227,1983.13639529728
-1.82476994376458,1983.14639529728
-1.84175532153707,1983.15639529728
-1.85839149346895,1983.16639529728
-1.8739742871025,1983.17639529728
-1.88854124160428,1983.18639529728
-1.89997915590226,1983.19639529728
-1.90477899735414,1983.20639529728
-1.89833832178897,1983.21639529728
-1.87521736127924,1983.22639529728
-1.83272184764988,1983.23639529728
-1.77068725794546,1983.24639529728
-1.69231930122609,1983.25639529728
-1.60196434069499,1983.26639529728
-1.50538337872129,1983.27639529728
-1.40762842909684,1983.28639529728
-1.31264176352914,1983.29639529728
-1.2244088358527,1983.30639529728
-1.14364608606153,1983.31639529728
-1.07191193313284,1983.32639529728
-1.00887690689379,1983.33639529728
-0.954298754970253,1983.34639529728
-0.9075150757192,1983.35639529728
-0.867187221167828,1983.36639529728
-0.833332473069223,1983.37639529728
-0.80482406092045,1983.38639529728
-0.780812317629407,1983.39639529728
-0.76079377692394,1983.40639529728
-0.744146275920369,1983.41639529728
-0.730140822304299,1983.42639529728
-0.717373482636771,1983.43639529728
-0.705764636412223,1983.44639529728
-0.695345220519852,1983.45639529728
-0.68735097048824,1983.46639529728
-0.681899981067511,1983.47639529728
-0.679947023061747,1983.48639529728
-0.682347940010091,1983.49639529728
-0.689481953587255,1983.50639529728
-0.700120397374212,1983.51639529728
-0.714017958664897,1983.52639529728
-0.729889707828242,1983.53639529728
-0.746674195622685,1983.54639529728
-0.763380473027649,1983.55639529728
-0.779093126801218,1983.56639529728
-0.79310829030559,1983.57639529728
-0.805116174559538,1983.58639529728
-0.8141849476691,1983.59639529728
-0.820673803708662,1983.60639529728
-0.824323879156093,1983.61639529728
-0.825923184406973,1983.62639529728
-0.826087019394856,1983.63639529728
-0.826583007738815,1983.64639529728
-0.827590007382383,1983.65639529728
-0.830050326665193,1983.66639529728
-0.834564880202992,1983.67639529728
-0.840722474992615,1983.68639529728
-0.848811747387444,1983.69639529728
-0.858701978403448,1983.70639529728
-0.869897661848276,1983.71639529728
-0.882586664441314,1983.72639529728
-0.896714285453665,1983.73639529728
-0.912261616042315,1983.74639529728
-0.92929040204175,1983.75639529728
-0.94765383646353,1983.76639529728
-0.966959409980243,1983.77639529728
-0.986720668642778,1983.78639529728
-1.00679702556812,1983.79639529728
-1.0269755004939,1983.80639529728
-1.04705143208316,1983.81639529728
-1.06743326982899,1983.82639529728
-1.08863727405065,1983.83639529728
-1.10936938062806,1983.84639529728
-1.12938415126471,1983.85639529728
-1.14852696357058,1983.86639529728
-1.16680996999895,1983.87639529728
-1.18469103048451,1983.88639529728
-1.20240178622255,1983.89639529728
-1.22032300202324,1983.90639529728
-1.23793189295243,1983.91639529728
-1.25563685509841,1983.92639529728
-1.27303738535544,1983.93639529728
-1.29073687215181,1983.94639529728
-1.30807971256364,1983.95639529728
-1.32564489439123,1983.96639529728
-1.34403747033247,1983.97639529728
-1.36251270991479,1983.98639529728
-1.38078899694515,1983.99639529728
-1.39856376901556,1984.00639529728
-1.41516132721028,1984.01639529728
-1.43132214997464,1984.02639529728
-1.4469678359151,1984.03639529728
-1.46198371852257,1984.04639529728
-1.47667153683315,1984.05639529728
-1.49139184700847,1984.06639529728
-1.50614494270319,1984.07639529728
-1.52088886863382,1984.08639529728
-1.53596804271938,1984.09639529728
-1.55143993097688,1984.10639529728
-1.56759733916496,1984.11639529728
-1.58380210777108,1984.12639529728
-1.59965929685545,1984.13639529728
-1.61570546068221,1984.14639529728
-1.63118305740508,1984.15639529728
-1.64748587701548,1984.16639529728
-1.66352615615682,1984.17639529728
-1.679997497695,1984.18639529728
-1.69571515591639,1984.19639529728
-1.71132488952644,1984.20639529728
-1.72601839439901,1984.21639529728
-1.74044991215073,1984.22639529728
-1.75454749633146,1984.23639529728
-1.76841057247356,1984.24639529728
-1.78244006421527,1984.25639529728
-1.79615441080577,1984.26639529728
-1.80969318443941,1984.27639529728
-1.8230143070939,1984.28639529728
-1.83656710644189,1984.29639529728
-1.84877218085307,1984.30639529728
-1.85930623206575,1984.31639529728
-1.86496355001993,1984.32639529728
-1.86194987043186,1984.33639529728
-1.84532854630453,1984.34639529728
-1.81258317147929,1984.35639529728
-1.76344005702253,1984.36639529728
-1.70043668514202,1984.37639529728
-1.62707903527695,1984.38639529728
-1.54830476439917,1984.39639529728
-1.46750688075183,1984.40639529728
-1.38769689568298,1984.41639529728
-1.31139675898028,1984.42639529728
-1.24065777549734,1984.43639529728
-1.17590932783691,1984.44639529728
-1.11746660475177,1984.45639529728
-1.06610266136835,1984.46639529728
-1.02090889126964,1984.47639529728
-0.982460443965107,1984.48639529728
-0.949354394841321,1984.49639529728
-0.9205882236762,1984.50639529728
-0.896172065436823,1984.51639529728
-0.875446476642242,1984.52639529728
-0.857493065080658,1984.53639529728
-0.84204670450245,1984.54639529728
-0.827735728215294,1984.55639529728
-0.815035773010377,1984.56639529728
-0.804091827795176,1984.57639529728
-0.794720353352284,1984.58639529728
-0.787652937428573,1984.59639529728
-0.783495851083975,1984.60639529728
-0.78272957488365,1984.61639529728
-0.786322309345115,1984.62639529728
-0.79371115810675,1984.63639529728
-0.803614473856525,1984.64639529728
-0.815733473050669,1984.65639529728
-0.828160059361729,1984.66639529728
-0.840183451090156,1984.67639529728
-0.850663498780149,1984.68639529728
-0.859049060852811,1984.69639529728
-0.864361407966961,1984.70639529728
-0.866142578495471,1984.71639529728
-0.865572203613304,1984.72639529728
-0.862940610912668,1984.73639529728
-0.859705802436212,1984.74639529728
-0.85556450537544,1984.75639529728
-0.852080899592647,1984.76639529728
-0.849294258384536,1984.77639529728
-0.848112066466226,1984.78639529728
-0.848439578241648,1984.79639529728
-0.850088689478063,1984.80639529728
-0.85360285137301,1984.81639529728
-0.859733907915566,1984.82639529728
-0.867451063102171,1984.83639529728
-0.877010183199285,1984.84639529728
-0.888081299138789,1984.85639529728
-0.899924389611898,1984.86639529728
-0.912883894921852,1984.87639529728
-0.926026806600667,1984.88639529728
-0.940245606747236,1984.89639529728
-0.955149847163398,1984.90639529728
-0.970673241350763,1984.91639529728
-0.986583493289057,1984.92639529728
-1.00330382099365,1984.93639529728
-1.0196452621047,1984.94639529728
-1.03692668880329,1984.95639529728
-1.05374193392499,1984.96639529728
-1.06948124080736,1984.97639529728
-1.08472082981765,1984.98639529728
-1.099514736797,1984.99639529728
-1.1133980909194,1985.00639529728
-1.1266379685014,1985.01639529728
-1.13943904180609,1985.02639529728
-1.152233223972,1985.03639529728
-1.16450557162827,1985.04639529728
-1.17682489930836,1985.05639529728
-1.18953549573287,1985.06639529728
-1.20210640484058,1985.07639529728
-1.21501656970672,1985.08639529728
-1.22741226987279,1985.09639529728
-1.23943584938923,1985.10639529728
-1.25117177073929,1985.11639529728
-1.26261292906471,1985.12639529728
-1.27439325694014,1985.13639529728
-1.28559722634401,1985.14639529728
-1.29643153933428,1985.15639529728
-1.30685818446275,1985.16639529728
-1.31725284180699,1985.17639529728
-1.32805696498302,1985.18639529728
-1.33897758950084,1985.19639529728
-1.34918822948086,1985.20639529728
-1.35984772332478,1985.21639529728
-1.37001385622095,1985.22639529728
-1.38018399801945,1985.23639529728
-1.38761435177252,1985.24639529728
-1.38927860267289,1985.25639529728
-1.38138069833471,1985.26639529728
-1.36037564965166,1985.27639529728
-1.32387226455178,1985.28639529728
-1.27259737805763,1985.29639529728
-1.20914105616943,1985.30639529728
-1.13716149248714,1985.31639529728
-1.06062009362826,1985.32639529728
-0.982376249917827,1985.33639529728
-0.905343548965682,1985.34639529728
-0.83020343038335,1985.35639529728
-0.75947164226801,1985.36639529728
-0.693477103470176,1985.37639529728
-0.633400755765729,1985.38639529728
-0.579678782637543,1985.39639529728
-0.531530960705166,1985.40639529728
-0.490541746484858,1985.41639529728
-0.454857723401173,1985.42639529728
-0.42445362004761,1985.43639529728
-0.398102745039431,1985.44639529728
-0.37510591409973,1985.45639529728
-0.355145123627907,1985.46639529728
-0.337678642058517,1985.47639529728
-0.322157392323595,1985.48639529728
-0.309113437794218,1985.49639529728
-0.298522489366073,1985.50639529728
-0.291994174856891,1985.51639529728
-0.290336789022283,1985.52639529728
-0.29285737353195,1985.53639529728
-0.299990991441539,1985.54639529728
-0.310167763511824,1985.55639529728
-0.322835677611183,1985.56639529728
-0.336663115043171,1985.57639529728
-0.350147515817077,1985.58639529728
-0.362139635715811,1985.59639529728
-0.371891867646661,1985.60639529728
-0.379228462950948,1985.61639529728
-0.383266351267323,1985.62639529728
-0.384669655039018,1985.63639529728
-0.382927244955786,1985.64639529728
-0.379107265511497,1985.65639529728
-0.374284088273495,1985.66639529728
-0.368866301615097,1985.67639529728
-0.363984919083643,1985.68639529728
-0.359684994142997,1985.69639529728
-0.357717065158904,1985.70639529728
-0.358271661045123,1985.71639529728
-0.361570892450057,1985.72639529728
-0.367768523545142,1985.73639529728
-0.376286792435357,1985.74639529728
-0.386976092827593,1985.75639529728
-0.399477352434903,1985.76639529728
-0.413147877603923,1985.77639529728
-0.427827373693166,1985.78639529728
-0.4431974216006,1985.79639529728
-0.459232264531769,1985.80639529728
-0.476247537714595,1985.81639529728
-0.494040398127076,1985.82639529728
-0.512899816420071,1985.83639529728
-0.532265204785163,1985.84639529728
-0.552366256610568,1985.85639529728
-0.57227358570881,1985.86639529728
-0.592322105852309,1985.87639529728
-0.611412459542468,1985.88639529728
-0.629113388474345,1985.89639529728
-0.645938924645699,1985.90639529728
-0.662373751573457,1985.91639529728
-0.678707577505656,1985.92639529728
-0.695124500959183,1985.93639529728
-0.711250874272532,1985.94639529728
-0.726892282231074,1985.95639529728
-0.741301271280223,1985.96639529728
-0.754944486534295,1985.97639529728
-0.766839346593484,1985.98639529728
-0.777534952864342,1985.99639529728
-0.787380515326731,1986.00639529728
-0.796961158169005,1986.01639529728
-0.806402769602963,1986.02639529728
-0.816201933382744,1986.03639529728
-0.826706438678861,1986.04639529728
-0.837727124877455,1986.05639529728
-0.850166563872373,1986.06639529728
-0.863403317152773,1986.07639529728
-0.877641941890284,1986.08639529728
-0.892453463261384,1986.09639529728
-0.908467181478277,1986.10639529728
-0.925183449725511,1986.11639529728
-0.942088845574499,1986.12639529728
-0.958835882223863,1986.13639529728
-0.975487287984674,1986.14639529728
-0.990351664368448,1986.15639529728
-1.00140885879925,1986.16639529728
-1.00436010274668,1986.17639529728
-0.994124639163268,1986.18639529728
-0.967908163987605,1986.19639529728
-0.926403218498631,1986.20639529728
-0.869840650735739,1986.21639529728
-0.802961443516858,1986.22639529728
-0.729690571254576,1986.23639529728
-0.653792294353792,1986.24639529728
-0.579556961005236,1986.25639529728
-0.508772806551009,1986.26639529728
-0.443834064377732,1986.27639529728
-0.385852816988855,1986.28639529728
-0.334231826783478,1986.29639529728
-0.289317775388873,1986.30639529728
-0.250060105764642,1986.31639529728
-0.216378659572138,1986.32639529728
-0.187699956263769,1986.33639529728
-0.163833174533003,1986.34639529728
-0.143861256000873,1986.35639529728
-0.12667254128698,1986.36639529728
-0.111729289089031,1986.37639529728
-0.0980799517802866,1986.38639529728
-0.0862263214565456,1986.39639529728
-0.0755131118545787,1986.40639529728
-0.065802394717919,1986.41639529728
-0.0581504126131634,1986.42639529728
-0.0530997187120093,1986.43639529728
-0.051270957125406,1986.44639529728
-0.0529548921165449,1986.45639529728
-0.0589367106646413,1986.46639529728
-0.0687784497804235,1986.47639529728
-0.0824910821504547,1986.48639529728
-0.0986913910397297,1986.49639529728
-0.116702286063445,1986.50639529728
-0.134834379177702,1986.51639529728
-0.152284402913924,1986.52639529728
-0.168600755281782,1986.53639529728
-0.183726316924338,1986.54639529728
-0.198167034975696,1986.55639529728
-0.210814673439556,1986.56639529728
-0.222058049567437,1986.57639529728
-0.232263049169991,1986.58639529728
-0.241288547445538,1986.59639529728
-0.249526500940413,1986.60639529728
-0.257608889928404,1986.61639529728
-0.266290704841006,1986.62639529728
-0.276057723688799,1986.63639529728
-0.287422154270459,1986.64639529728
-0.30032342120668,1986.65639529728
-0.315580471134898,1986.66639529728
-0.331905903703242,1986.67639529728
-0.348871751865553,1986.68639529728
-0.367080075228989,1986.69639529728
-0.386036678423278,1986.70639529728
-0.406285246149174,1986.71639529728
-0.427286653046368,1986.72639529728
-0.449445425438071,1986.73639529728
-0.471615241548285,1986.74639529728
-0.493920291184795,1986.75639529728
-0.51691057251801,1986.76639529728
-0.540179587437167,1986.77639529728
-0.56362123819693,1986.78639529728
-0.587259159298955,1986.79639529728
-0.610807131768408,1986.80639529728
-0.633907022601678,1986.81639529728
-0.655753393390492,1986.82639529728
-0.67684281977296,1986.83639529728
-0.696730422838274,1986.84639529728
-0.717322004548561,1986.85639529728
-0.73775989024709,1986.86639529728
-0.758223103380749,1986.87639529728
-0.778683097829582,1986.88639529728
-0.798789978731315,1986.89639529728
-0.81941409101611,1986.90639529728
-0.839137995247729,1986.91639529728
-0.858202388405107,1986.92639529728
-0.877085013818507,1986.93639529728
-0.894995279273033,1986.94639529728
-0.91347416069906,1986.95639529728
-0.931238722778538,1986.96639529728
-0.948910650461666,1986.97639529728
-0.966696344082445,1986.98639529728
-0.984437995581626,1986.99639529728
-1.00257215716748,1987.00639529728
-1.02051439857255,1987.01639529728
-1.03721202091012,1987.02639529728
-1.05403159199963,1987.03639529728
-1.06987940100072,1987.04639529728
-1.08536399499648,1987.05639529728
-1.10133759332642,1987.06639529728
-1.11731673065508,1987.07639529728
-1.13313768067116,1987.08639529728
-1.14915257109056,1987.09639529728
-1.16491545221502,1987.10639529728
-1.18000649094035,1987.11639529728
-1.19471085076995,1987.12639529728
-1.2093683544155,1987.13639529728
-1.22479951021741,1987.14639529728
-1.24048026636697,1987.15639529728
-1.2561268565359,1987.16639529728
-1.27181565987022,1987.17639529728
-1.28740795195823,1987.18639529728
-1.30260151337136,1987.19639529728
-1.31755918958672,1987.20639529728
-1.33218107766932,1987.21639529728
-1.34668891151683,1987.22639529728
-1.36037292115342,1987.23639529728
-1.37261357840496,1987.24639529728
-1.37981474646354,1987.25639529728
-1.37993605451584,1987.26639529728
-1.3686874439629,1987.27639529728
-1.34517764793816,1987.28639529728
-1.30914917762362,1987.29639529728
-1.26408865188292,1987.30639529728
-1.21354150584557,1987.31639529728
-1.16112019655807,1987.32639529728
-1.11065254629484,1987.33639529728
-1.06384670240181,1987.34639529728
-1.02188670309552,1987.35639529728
-0.986344964809637,1987.36639529728
-0.956606821965429,1987.37639529728
-0.931666392564237,1987.38639529728
-0.91102417614125,1987.39639529728
-0.894056785050812,1987.40639529728
-0.87978470658906,1987.41639529728
-0.867598169338072,1987.42639529728
-0.856463819727928,1987.43639529728
-0.845673816854596,1987.44639529728
-0.835334929898706,1987.45639529728
-0.825636753225948,1987.46639529728
-0.815970735974477,1987.47639529728
-0.80739935481209,1987.48639529728
-0.799527712758832,1987.49639529728
-0.792587574165001,1987.50639529728
-0.78670898253336,1987.51639529728
-0.782121557813065,1987.52639529728
-0.780436556062704,1987.53639529728
-0.781835795408477,1987.54639529728
-0.786543843830278,1987.55639529728
-0.79431786790259,1987.56639529728
-0.803613841476792,1987.57639529728
-0.813570186387558,1987.58639529728
-0.823629320933652,1987.59639529728
-0.832822272095912,1987.60639529728
-0.840676793403008,1987.61639529728
-0.847666889182419,1987.62639529728
-0.854172724976639,1987.63639529728
-0.860162482175538,1987.64639529728
-0.866145807587894,1987.65639529728
-0.871554215279332,1987.66639529728
-0.876510344046646,1987.67639529728
-0.88193579836882,1987.68639529728
-0.887333030924786,1987.69639529728
-0.89312108451478,1987.70639529728
-0.898986534412105,1987.71639529728
-0.905610831767916,1987.72639529728
-0.913283171669205,1987.73639529728
-0.921896634805134,1987.74639529728
-0.931558540728438,1987.75639529728
-0.941679864029139,1987.76639529728
-0.953359348632903,1987.77639529728
-0.965192490238518,1987.78639529728
-0.978218626092548,1987.79639529728
-0.991752077677831,1987.80639529728
-1.0053155778563,1987.81639529728
-1.01934563480425,1987.82639529728
-1.03350478663254,1987.83639529728
-1.04804335591761,1987.84639529728
-1.06301922421775,1987.85639529728
-1.07804356821918,1987.86639529728
-1.092941317855,1987.87639529728
-1.108118649483,1987.88639529728
-1.12309731497821,1987.89639529728
-1.13754637409557,1987.90639529728
-1.15191864051736,1987.91639529728
-1.16625325332915,1987.92639529728
-1.17986147614197,1987.93639529728
-1.19349456764722,1987.94639529728
-1.20657498525955,1987.95639529728
-1.2190143365916,1987.96639529728
-1.23165621456716,1987.97639529728
-1.24443406608428,1987.98639529728
-1.25818578298261,1987.99639529728
-1.27163906897894,1988.00639529728
-1.28408438938709,1988.01639529728
-1.29624215915676,1988.02639529728
-1.30835045415613,1988.03639529728
-1.32087484375361,1988.04639529728
-1.33381882044431,1988.05639529728
-1.3465357438524,1988.06639529728
-1.35899951780135,1988.07639529728
-1.37048677735563,1988.08639529728
-1.38217075303037,1988.09639529728
-1.39403507806736,1988.10639529728
-1.40596829707113,1988.11639529728
-1.41786229582594,1988.12639529728
-1.43001667409274,1988.13639529728
-1.44244828853484,1988.14639529728
-1.45469889277528,1988.15639529728
-1.46693865412674,1988.16639529728
-1.47900521694365,1988.17639529728
-1.4915309644517,1988.18639529728
-1.50370006417794,1988.19639529728
-1.51612378060186,1988.20639529728
-1.52862722369737,1988.21639529728
-1.54040849407588,1988.22639529728
-1.55232598647025,1988.23639529728
-1.56367816960316,1988.24639529728
-1.57423607759867,1988.25639529728
-1.58443926186949,1988.26639529728
-1.59548401794892,1988.27639529728
-1.60638516202394,1988.28639529728
-1.61662009925285,1988.29639529728
-1.62697360291708,1988.30639529728
-1.63610921817484,1988.31639529728
-1.64306043976218,1988.32639529728
-1.64585540665087,1988.33639529728
-1.6416871866196,1988.34639529728
-1.62891300113957,1988.35639529728
-1.6059413053917,1988.36639529728
-1.57454469767311,1988.37639529728
-1.53759434964511,1988.38639529728
-1.49840765811383,1988.39639529728
-1.4597389394295,1988.40639529728
-1.42416321984649,1988.41639529728
-1.3928133524453,1988.42639529728
-1.36660386523344,1988.43639529728
-1.34594931387515,1988.44639529728
-1.3301513579169,1988.45639529728
-1.3183961865266,1988.46639529728
-1.31065050567656,1988.47639529728
-1.3050042952855,1988.48639529728
-1.30130356098077,1988.49639529728
-1.29860448881383,1988.50639529728
-1.29623946395852,1988.51639529728
-1.29417419400743,1988.52639529728
-1.29222762334862,1988.53639529728
-1.29000700127793,1988.54639529728
-1.28741240974273,1988.55639529728
-1.2847452209514,1988.56639529728
-1.28194677796738,1988.57639529728
-1.27936522878658,1988.58639529728
-1.27785303373686,1988.59639529728
-1.27813338160627,1988.60639529728
-1.2805389742982,1988.61639529728
-1.2847916084,1988.62639529728
-1.29012290140301,1988.63639529728
-1.29599121789861,1988.64639529728
-1.30094826593231,1988.65639529728
-1.30471994516881,1988.66639529728
-1.3066407990317,1988.67639529728
-1.30677340900537,1988.68639529728
-1.30546004564075,1988.69639529728
-1.30259446358551,1988.70639529728
-1.29868895772663,1988.71639529728
-1.2936653531155,1988.72639529728
-1.28829719007439,1988.73639529728
-1.28320344332,1988.74639529728
-1.27904390382085,1988.75639529728
-1.27629423456638,1988.76639529728
-1.27474522598949,1988.77639529728
-1.27496608680052,1988.78639529728
-1.27603716934698,1988.79639529728
-1.27793938733025,1988.80639529728
-1.28090456114934,1988.81639529728
-1.28472312358852,1988.82639529728
-1.28906724179506,1988.83639529728
-1.29393942984835,1988.84639529728
-1.29917228088035,1988.85639529728
-1.30416535037928,1988.86639529728
-1.30918117427759,1988.87639529728
-1.31426941123069,1988.88639529728
-1.31885999627036,1988.89639529728
-1.32369475129032,1988.90639529728
-1.32921876573254,1988.91639529728
-1.33511949307168,1988.92639529728
-1.34132940681069,1988.93639529728
-1.34764407505181,1988.94639529728
-1.35315815232122,1988.95639529728
-1.35825160383166,1988.96639529728
-1.36311843310955,1988.97639529728
-1.36823667483237,1988.98639529728
-1.37317307431459,1988.99639529728
-1.37813198981113,1989.00639529728
-1.38267062701292,1989.01639529728
-1.3871765293538,1989.02639529728
-1.39199324595894,1989.03639529728
-1.39676448199752,1989.04639529728
-1.40088568724724,1989.05639529728
-1.40500803945692,1989.06639529728
-1.40842760501401,1989.07639529728
-1.41210960097895,1989.08639529728
-1.4153416743709,1989.09639529728
-1.41842026210019,1989.10639529728
-1.42161220435694,1989.11639529728
-1.42476345672017,1989.12639529728
-1.4284033930661,1989.13639529728
-1.43204721134997,1989.14639529728
-1.43672014303993,1989.15639529728
-1.44211041183679,1989.16639529728
-1.44769831471406,1989.17639529728
-1.45298158162634,1989.18639529728
-1.45693387879071,1989.19639529728
-1.46026960737623,1989.20639529728
-1.46171268331823,1989.21639529728
-1.45968140076736,1989.22639529728
-1.4515487274586,1989.23639529728
-1.43514979019267,1989.24639529728
-1.41029333130214,1989.25639529728
-1.3775403130394,1989.26639529728
-1.33946139600168,1989.27639529728
-1.29920380769589,1989.28639529728
-1.26029164012743,1989.29639529728
-1.22454450417802,1989.30639529728
-1.1934312235036,1989.31639529728
-1.16722941945192,1989.32639529728
-1.14598715183974,1989.33639529728
-1.12892462215216,1989.34639529728
-1.11497372519146,1989.35639529728
-1.10398323949064,1989.36639529728
-1.09501154404084,1989.37639529728
-1.08730740611423,1989.38639529728
-1.0799522528433,1989.39639529728
-1.07201082142715,1989.40639529728
-1.0637902529975,1989.41639529728
-1.05519319047084,1989.42639529728
-1.04625886399075,1989.43639529728
-1.03731214408416,1989.44639529728
-1.0286024079835,1989.45639529728
-1.02076435623557,1989.46639529728
-1.01350902767587,1989.47639529728
-1.00776261882281,1989.48639529728
-1.00332759570124,1989.49639529728
-1.00072013287265,1989.50639529728
-0.999916114382949,1989.51639529728
-1.00163951905098,1989.52639529728
-1.00442016379613,1989.53639529728
-1.00770776985899,1989.54639529728
-1.01090071322992,1989.55639529728
-1.01275960928137,1989.56639529728
-1.01348904268179,1989.57639529728
-1.01191319609866,1989.58639529728
-1.00931775188691,1989.59639529728
-1.00537515135676,1989.60639529728
-1.00013423631937,1989.61639529728
-0.99418217473827,1989.62639529728
-0.988570448010766,1989.63639529728
-0.983239111521271,1989.64639529728
-0.978841113049515,1989.65639529728
-0.975628263150269,1989.66639529728
-0.97361030572442,1989.67639529728
-0.97269176858582,1989.68639529728
-0.972578498398771,1989.69639529728
-0.97348790539019,1989.70639529728
-0.975640659175205,1989.71639529728
-0.978563630758717,1989.72639529728
-0.982758937963573,1989.73639529728
-0.987384374268939,1989.74639529728
-0.992472480868018,1989.75639529728
-0.997502715106771,1989.76639529728
-1.00251405002906,1989.77639529728
-1.00640108941107,1989.78639529728
-1.00999194354041,1989.79639529728
-1.01349398014185,1989.80639529728
-1.01742502025976,1989.81639529728
-1.02191598687756,1989.82639529728
-1.02629156653697,1989.83639529728
-1.03157740008874,1989.84639529728
-1.03624928397204,1989.85639529728
-1.0412168933459,1989.86639529728
-1.0457740430976,1989.87639529728
-1.04996812766372,1989.88639529728
-1.05370781307993,1989.89639529728
-1.05766497953151,1989.90639529728
-1.06180675466812,1989.91639529728
-1.06625655834103,1989.92639529728
-1.07151524960764,1989.93639529728
-1.07699915644744,1989.94639529728
-1.08264131291525,1989.95639529728
-1.08845808906104,1989.96639529728
-1.09363005559406,1989.97639529728
-1.09868440489092,1989.98639529728
-1.10318300616253,1989.99639529728
-1.10756375124786,1990.00639529728
-1.11180212205016,1990.01639529728
-1.11604780968437,1990.02639529728
-1.12042300488365,1990.03639529728
-1.12538300726913,1990.04639529728
-1.13001035933556,1990.05639529728
-1.13535361520584,1990.06639529728
-1.13951467306048,1990.07639529728
-1.14420427865795,1990.08639529728
-1.14888253210802,1990.09639529728
-1.15335541969145,1990.10639529728
-1.15812407580012,1990.11639529728
-1.16259301569764,1990.12639529728
-1.16673122191771,1990.13639529728
-1.17067803425943,1990.14639529728
-1.17451464904884,1990.15639529728
-1.17839995960073,1990.16639529728
-1.18301524537853,1990.17639529728
-1.18841889200802,1990.18639529728
-1.19434078109893,1990.19639529728
-1.20041224826267,1990.20639529728
-1.20586592425113,1990.21639529728
-1.21067909561825,1990.22639529728
-1.21370089491629,1990.23639529728
-1.21359056586561,1990.24639529728
-1.20836690232608,1990.25639529728
-1.19529202306775,1990.26639529728
-1.17295255953354,1990.27639529728
-1.14196000152644,1990.28639529728
-1.10373542351029,1990.29639529728
-1.06152071872645,1990.30639529728
-1.01799446368353,1990.31639529728
-0.975769573451408,1990.32639529728
-0.937474019008789,1990.33639529728
-0.903449477608303,1990.34639529728
-0.875030106567928,1990.35639529728
-0.851672462805632,1990.36639529728
-0.832874632255864,1990.37639529728
-0.817690287056887,1990.38639529728
-0.805091231017681,1990.39639529728
-0.793903163416703,1990.40639529728
-0.783405382060344,1990.41639529728
-0.77282196703984,1990.42639529728
-0.76185677358492,1990.43639529728
-0.750183964990076,1990.44639529728
-0.737791265216633,1990.45639529728
-0.724756018642653,1990.46639529728
-0.710862870245281,1990.47639529728
-0.696714660538179,1990.48639529728
-0.683049004554104,1990.49639529728
-0.669804549888495,1990.50639529728
-0.657784465353414,1990.51639529728
-0.646983431728604,1990.52639529728
-0.638675724649621,1990.53639529728
-0.632974132382879,1990.54639529728
-0.629353355699072,1990.55639529728
-0.627557373712346,1990.56639529728
-0.626530669237682,1990.57639529728
-0.6259907841699,1990.58639529728
-0.624866795775527,1990.59639529728
-0.623024004758236,1990.60639529728
-0.619815157722349,1990.61639529728
-0.615860613370632,1990.62639529728
-0.610519289427889,1990.63639529728
-0.604999404654097,1990.64639529728
-0.599447804323161,1990.65639529728
-0.594343169476883,1990.66639529728
-0.588896379772374,1990.67639529728
-0.583147699147868,1990.68639529728
-0.578084070666034,1990.69639529728
-0.573901843422779,1990.70639529728
-0.570641314116915,1990.71639529728
-0.568952248933842,1990.72639529728
-0.568483395353969,1990.73639529728
-0.568741084664511,1990.74639529728
-0.570188035377794,1990.75639529728
-0.572244162194775,1990.76639529728
-0.575098812419406,1990.77639529728
-0.578078748562225,1990.78639529728
-0.582113591464654,1990.79639529728
-0.58635665402044,1990.80639529728
-0.591077832738098,1990.81639529728
-0.596452065733539,1990.82639529728
-0.602248009065708,1990.83639529728
-0.608015694816419,1990.84639529728
-0.613961709000035,1990.85639529728
-0.619624019122522,1990.86639529728
-0.624943774149773,1990.87639529728
-0.630610733930892,1990.88639529728
-0.635971484780305,1990.89639529728
-0.641049374725523,1990.90639529728
-0.646428391165024,1990.91639529728
-0.652190504198995,1990.92639529728
-0.657320523604214,1990.93639529728
-0.662756322947773,1990.94639529728
-0.667887571804043,1990.95639529728
-0.672878448772122,1990.96639529728
-0.677791310286377,1990.97639529728
-0.682448367166178,1990.98639529728
-0.68704314209436,1990.99639529728
-0.690971140755109,1991.00639529728
-0.694914538668808,1991.01639529728
-0.698207052937185,1991.02639529728
-0.701528030819086,1991.03639529728
-0.704649687064941,1991.04639529728
-0.707364311827045,1991.05639529728
-0.710182175701011,1991.06639529728
-0.712687498136502,1991.07639529728
-0.714835171174586,1991.08639529728
-0.717404365850793,1991.09639529728
-0.72001673054671,1991.10639529728
-0.722228353474911,1991.11639529728
-0.724399750522417,1991.12639529728
-0.726518746832445,1991.13639529728
-0.728602740619921,1991.14639529728
-0.731495060317704,1991.15639529728
-0.734690799132082,1991.16639529728
-0.739053551902404,1991.17639529728
-0.743829091859638,1991.18639529728
-0.748870133658309,1991.19639529728
-0.754156768529026,1991.20639529728
-0.759666741489248,1991.21639529728
-0.765641292198827,1991.22639529728
-0.771977721131861,1991.23639529728
-0.778929315699355,1991.24639529728
-0.786203511142537,1991.25639529728
-0.793819988247403,1991.26639529728
-0.801602920802301,1991.27639529728
-0.809324017435936,1991.28639529728
-0.81690644308675,1991.29639529728
-0.824008534874327,1991.30639529728
-0.83063452286283,1991.31639529728
-0.837247602009702,1991.32639529728
-0.842661256034576,1991.33639529728
-0.845345411176534,1991.34639529728
-0.842555398058675,1991.35639529728
-0.831312398459205,1991.36639529728
-0.809768253620561,1991.37639529728
-0.778008199048988,1991.38639529728
-0.737779857322409,1991.39639529728
-0.69144334777276,1991.40639529728
-0.641694879034901,1991.41639529728
-0.59186554871746,1991.42639529728
-0.543522636030726,1991.43639529728
-0.498425624049151,1991.44639529728
-0.456790709971431,1991.45639529728
-0.419025042112626,1991.46639529728
-0.384527610592821,1991.47639529728
-0.352738431595932,1991.48639529728
-0.322898263255646,1991.49639529728
-0.29444574697948,1991.50639529728
-0.266975727052328,1991.51639529728
-0.239558847977746,1991.52639529728
-0.212670018244345,1991.53639529728
-0.185871438208346,1991.54639529728
-0.15909845352856,1991.55639529728
-0.132121638830082,1991.56639529728
-0.104476878429992,1991.57639529728
-0.0757842905709636,1991.58639529728
-0.0470188770306226,1991.59639529728
-0.0183600886580319,1991.60639529728
0.00939242819051163,1991.61639529728
0.0352765705405644,1991.62639529728
0.0572304470119401,1991.63639529728
0.0757329147572398,1991.64639529728
0.0903850088902658,1991.65639529728
0.102022616911169,1991.66639529728
0.111435909234489,1991.67639529728
0.120242948478977,1991.68639529728
0.129490199964881,1991.69639529728
0.138667571681967,1991.70639529728
0.147759817176865,1991.71639529728
0.157117702449837,1991.72639529728
0.167135586843539,1991.73639529728
0.17677303954562,1991.74639529728
0.186863700036468,1991.75639529728
0.197736464466254,1991.76639529728
0.208420405505312,1991.77639529728
0.218930626306882,1991.78639529728
0.227802843943195,1991.79639529728
0.235315807584821,1991.80639529728
0.240639110957934,1991.81639529728
0.244025298335682,1991.82639529728
0.245592256894454,1991.83639529728
0.245527742038769,1991.84639529728
0.244646305508602,1991.85639529728
0.24314384635267,1991.86639529728
0.240818253327243,1991.87639529728
0.238008631552633,1991.88639529728
0.234574564809233,1991.89639529728
0.229970360141285,1991.90639529728
0.224252231280836,1991.91639529728
0.217073477463671,1991.92639529728
0.208644431792485,1991.93639529728
0.199449540661168,1991.94639529728
0.190220614827583,1991.95639529728
0.180745687345421,1991.96639529728
0.171194904116723,1991.97639529728
0.162289615011346,1991.98639529728
0.153506673156758,1991.99639529728
0.144872600640281,1992.00639529728
0.136177014658667,1992.01639529728
0.127125441096739,1992.02639529728
0.117823309770422,1992.03639529728
0.108331311821986,1992.04639529728
0.0988729690085699,1992.05639529728
0.0890763023152232,1992.06639529728
0.0794587816142809,1992.07639529728
0.0692534986481521,1992.08639529728
0.0586442354611645,1992.09639529728
0.048376015053392,1992.10639529728
0.0380145888820874,1992.11639529728
0.0276668115640375,1992.12639529728
0.0178255363217797,1992.13639529728
0.00800184326702376,1992.14639529728
-0.00152051085403328,1992.15639529728
-0.0112505196117677,1992.16639529728
-0.0214501203119309,1992.17639529728
-0.0318321799337167,1992.18639529728
-0.0424145612739466,1992.19639529728
-0.0527351288905859,1992.20639529728
-0.0628007089207641,1992.21639529728
-0.073233290902173,1992.22639529728
-0.0840235789571061,1992.23639529728
-0.094994401880156,1992.24639529728
-0.105758278296026,1992.25639529728
-0.116549890782796,1992.26639529728
-0.127245666987919,1992.27639529728
-0.1374979775329,1992.28639529728
-0.147770945425187,1992.29639529728
-0.157463490064368,1992.30639529728
-0.166712040245146,1992.31639529728
-0.176107553332225,1992.32639529728
-0.185717521658572,1992.33639529728
-0.195426918344212,1992.34639529728
-0.20510371972701,1992.35639529728
-0.214852598336625,1992.36639529728
-0.224932640531527,1992.37639529728
-0.234591661495154,1992.38639529728
-0.244808355506113,1992.39639529728
-0.25487089062539,1992.40639529728
-0.26565207839509,1992.41639529728
-0.276691653003065,1992.42639529728
-0.287923193875814,1992.43639529728
-0.2991021063413,1992.44639529728
-0.30951927845775,1992.45639529728
-0.319622262440764,1992.46639529728
-0.328398859679837,1992.47639529728
-0.333896096903718,1992.48639529728
-0.33301355348078,1992.49639529728
-0.322787859483363,1992.50639529728
-0.300787072546082,1992.51639529728
-0.266563949620583,1992.52639529728
-0.221468956708739,1992.53639529728
-0.16781711978027,1992.54639529728
-0.107764815245857,1992.55639529728
-0.0441749640425963,1992.56639529728
0.0202044223862451,1992.57639529728
0.0847154834539919,1992.58639529728
0.148056758679657,1992.59639529728
0.209371266852195,1992.60639529728
0.268283610148451,1992.61639529728
0.323386369731405,1992.62639529728
0.374226473743954,1992.63639529728
0.421044343197304,1992.64639529728
0.464445088391531,1992.65639529728
0.50472732813585,1992.66639529728
0.541340743544867,1992.67639529728
0.575334190091983,1992.68639529728
0.606989621500533,1992.69639529728
0.636779077159737,1992.70639529728
0.664741111969781,1992.71639529728
0.690985773082095,1992.72639529728
0.715403306180202,1992.73639529728
0.738393335256184,1992.74639529728
0.757774962075265,1992.75639529728
0.773940479940555,1992.76639529728
0.786078080898684,1992.77639529728
0.793511322464293,1992.78639529728
0.797493408454425,1992.79639529728
0.797471208043492,1992.80639529728
0.795098315083775,1992.81639529728
0.79078948433832,1992.82639529728
0.785665299561012,1992.83639529728
0.779905922318373,1992.84639529728
0.774897905857797,1992.85639529728
0.771072060595222,1992.86639529728
0.768597797762295,1992.87639529728
0.768311829112604,1992.88639529728
0.768994577618211,1992.89639529728
0.770922020126919,1992.90639529728
0.772768654373968,1992.91639529728
0.774542384386129,1992.92639529728
0.774886335808359,1992.93639529728
0.774156196122679,1992.94639529728
0.772553067282432,1992.95639529728
0.768759693558515,1992.96639529728
0.763241023452142,1992.97639529728
0.756372488588537,1992.98639529728
0.747706180822766,1992.99639529728
0.737331418511722,1993.00639529728
0.725383269795689,1993.01639529728
0.712074580553263,1993.02639529728
0.697650645156616,1993.03639529728
0.682456158172761,1993.04639529728
0.665844049498028,1993.05639529728
0.648630222305857,1993.06639529728
0.630870948129139,1993.07639529728
0.612811983680642,1993.08639529728
0.594644318795058,1993.09639529728
0.57575357331081,1993.10639529728
0.556022138696507,1993.11639529728
0.536264873879957,1993.12639529728
0.515695896958985,1993.13639529728
0.495146749697177,1993.14639529728
0.474866758517123,1993.15639529728
0.454698478810093,1993.16639529728
0.434983592181574,1993.17639529728
0.415996279066272,1993.18639529728
0.397697098445381,1993.19639529728
0.379956409219972,1993.20639529728
0.362727859678081,1993.21639529728
0.344939088647415,1993.22639529728
0.327518411571239,1993.23639529728
0.309962587410156,1993.24639529728
0.292430892641141,1993.25639529728
0.274633273121255,1993.26639529728
0.257492677320071,1993.27639529728
0.24070491348791,1993.28639529728
0.22448939699182,1993.29639529728
0.208432260852465,1993.30639529728
0.192832847695213,1993.31639529728
0.177418092942676,1993.32639529728
0.162441514751485,1993.33639529728
0.147312193382294,1993.34639529728
0.132642800087919,1993.35639529728
0.118339636930722,1993.36639529728
0.103575494680991,1993.37639529728
0.0888121151533384,1993.38639529728
0.0739888827848696,1993.39639529728
0.0597354657417506,1993.40639529728
0.0458888278131176,1993.41639529728
0.032428418167058,1993.42639529728
0.0195477404583543,1993.43639529728
0.00608151316110916,1993.44639529728
-0.00709703150967823,1993.45639529728
-0.0210919266320279,1993.46639529728
-0.0357636840333011,1993.47639529728
-0.0500689670080254,1993.48639529728
-0.0640670514863676,1993.49639529728
-0.0771987890805324,1993.50639529728
-0.0903030862584508,1993.51639529728
-0.103255312354248,1993.52639529728
-0.115177727833271,1993.53639529728
-0.125179939137204,1993.54639529728
-0.131657667828892,1993.55639529728
-0.131161291501176,1993.56639529728
-0.120006404005199,1993.57639529728
-0.095672017561678,1993.58639529728
-0.0572474948999128,1993.59639529728
-0.00537048435959417,1993.60639529728
0.0578452082344965,1993.61639529728
0.130426226550455,1993.62639529728
0.209222114998551,1993.63639529728
0.291875477846377,1993.64639529728
0.37553582833484,1993.65639529728
0.457776182400828,1993.66639529728
0.536927463832905,1993.67639529728
0.611324817115195,1993.68639529728
0.6796447727197,1993.69639529728
0.740369064395082,1993.70639529728
0.793705369478255,1993.71639529728
0.839513222144619,1993.72639529728
0.878558573027806,1993.73639529728
0.91102256911118,1993.74639529728
0.938255673224043,1993.75639529728
0.960918820278669,1993.76639529728
0.980001576490937,1993.77639529728
0.995823663836783,1993.78639529728
1.0086942058004,1993.79639529728
1.01880666213481,1993.80639529728
1.02540089394029,1993.81639529728
1.02834217874616,1993.82639529728
1.0272202046457,1993.83639529728
1.02204424233285,1993.84639529728
1.01289669369022,1993.85639529728
1.00113840760159,1993.86639529728
0.987830399642095,1993.87639529728
0.974724444135718,1993.88639529728
0.962519245262194,1993.89639529728
0.952858769855531,1993.90639529728
0.945558420314844,1993.91639529728
0.941396985204044,1993.92639529728
0.939555108861111,1993.93639529728
0.940238793114681,1993.94639529728
0.942488505731213,1993.95639529728
0.945701817370776,1993.96639529728
0.949323326721625,1993.97639529728
0.951881318801515,1993.98639529728
0.953451202169093,1993.99639529728
0.952928064871343,1994.00639529728
0.950402580977923,1994.01639529728
0.944846685681297,1994.02639529728
0.936917663676424,1994.03639529728
0.926815172058324,1994.04639529728
0.913995221527528,1994.05639529728
0.899730622517692,1994.06639529728
0.883508759537664,1994.07639529728
0.86657026535057,1994.08639529728
0.84866065016355,1994.09639529728
0.829348372817163,1994.10639529728
0.809010166467716,1994.11639529728
0.787940001200261,1994.12639529728
0.766687179720604,1994.13639529728
0.745233398151172,1994.14639529728
0.723950419736891,1994.15639529728
0.702567980004153,1994.16639529728
0.680744933562475,1994.17639529728
0.658441478597184,1994.18639529728
0.63627147542158,1994.19639529728
0.614309369491828,1994.20639529728
0.593705693944148,1994.21639529728
0.574965462396998,1994.22639529728
0.556467562623025,1994.23639529728
0.538072478820469,1994.24639529728
0.519438991100569,1994.25639529728
0.501083069691615,1994.26639529728
0.482985127224232,1994.27639529728
0.464926107357889,1994.28639529728
0.447506319952861,1994.29639529728
0.430101233373978,1994.30639529728
0.413139435124764,1994.31639529728
0.396076495339936,1994.32639529728
0.379009527985886,1994.33639529728
0.362421276977581,1994.34639529728
0.346407239126125,1994.35639529728
0.330628271163536,1994.36639529728
0.315707529811541,1994.37639529728
0.300943095099661,1994.38639529728
0.28667938923075,1994.39639529728
0.272271250003693,1994.40639529728
0.2585147542834,1994.41639529728
0.244911908608886,1994.42639529728
0.231067764834357,1994.43639529728
0.216936884742659,1994.44639529728
0.202391173973376,1994.45639529728
0.188365370016508,1994.46639529728
0.174069945900251,1994.47639529728
0.159937189255109,1994.48639529728
0.145155519700477,1994.49639529728
0.129967862951238,1994.50639529728
0.114858050281337,1994.51639529728
0.0996517400173251,1994.52639529728
0.0844263209546736,1994.53639529728
0.0694703802456826,1994.54639529728
0.0553006688695142,1994.55639529728
0.0447613625202833,1994.56639529728
0.0404521640654018,1994.57639529728
0.0474960396515349,1994.58639529728
0.0683375403020808,1994.59639529728
0.104948840552222,1994.60639529728
0.158646874657955,1994.61639529728
0.227346965732191,1994.62639529728
0.308628725305593,1994.63639529728
0.399404072601048,1994.64639529728
0.49608544194505,1994.65639529728
0.595557677446002,1994.66639529728
0.693654737968252,1994.67639529728
0.787018637001023,1994.68639529728
0.874037226315181,1994.69639529728
0.952152596636757,1994.70639529728
1.02084925208135,1994.71639529728
1.07981001059026,1994.72639529728
1.12993269477659,1994.73639529728
1.17143740182014,1994.74639529728
1.20626533010949,1994.75639529728
1.23522649639055,1994.76639529728
1.25931034820179,1994.77639529728
1.28020504020246,1994.78639529728
1.29860891412156,1994.79639529728
1.31564513401702,1994.80639529728
1.33187952883715,1994.81639529728
1.34694471837312,1994.82639529728
1.36007066367092,1994.83639529728
1.37059151443287,1994.84639529728
1.37753874978017,1994.85639529728
1.37926563622442,1994.86639529728
1.37553441199977,1994.87639529728
1.36609135613525,1994.88639529728
1.35162079187345,1994.89639529728
1.33420058601148,1994.90639529728
1.31458912303796,1994.91639529728
1.29521316425341,1994.92639529728
1.27639137075847,1994.93639529728
1.2591858301734,1994.94639529728
1.24421131950665,1994.95639529728
1.23113070638873,1994.96639529728
1.22018266927697,1994.97639529728
1.21111801873549,1994.98639529728
1.20338055442044,1994.99639529728
1.19665628042621,1995.00639529728
1.19032430492325,1995.01639529728
1.18335177096932,1995.02639529728
1.17464987967197,1995.03639529728
1.16358575562465,1995.04639529728
1.15071580822018,1995.05639529728
1.13503035052425,1995.06639529728
1.11726386049127,1995.07639529728
1.09761573272309,1995.08639529728
1.0768016838175,1995.09639529728
1.05514915662141,1995.10639529728
1.03239227858501,1995.11639529728
1.00864837935089,1995.12639529728
0.983845457406116,1995.13639529728
0.957891533379083,1995.14639529728
0.931694533625351,1995.15639529728
0.905089970571615,1995.16639529728
0.879188080971806,1995.17639529728
0.853790145452799,1995.18639529728
0.828767854484837,1995.19639529728
0.803349752346217,1995.20639529728
0.778367448297611,1995.21639529728
0.753133015497276,1995.22639529728
0.72819446914161,1995.23639529728
0.703713735696361,1995.24639529728
0.679542248885189,1995.25639529728
0.65615185705588,1995.26639529728
0.632867728712175,1995.27639529728
0.609619980788661,1995.28639529728
0.586729019196208,1995.29639529728
0.564182897237072,1995.30639529728
0.542702877465131,1995.31639529728
0.521372718664628,1995.32639529728
0.500362205520668,1995.33639529728
0.47921825527611,1995.34639529728
0.458441876689894,1995.35639529728
0.43795872342207,1995.36639529728
0.417571360019311,1995.37639529728
0.397991712080669,1995.38639529728
0.378644505364379,1995.39639529728
0.35960260377394,1995.40639529728
0.340505101754732,1995.41639529728
0.321809001915232,1995.42639529728
0.303857917441008,1995.43639529728
0.286009681004344,1995.44639529728
0.268832437307756,1995.45639529728
0.252128042832058,1995.46639529728
0.235246934445447,1995.47639529728
0.218530320561851,1995.48639529728
0.201910041530372,1995.49639529728
0.185630541550263,1995.50639529728
0.169555393689994,1995.51639529728
0.153705797486595,1995.52639529728
0.137784281384601,1995.53639529728
0.122214217590553,1995.54639529728
0.106608527315837,1995.55639529728
0.0909934537191693,1995.56639529728
0.075544847102238,1995.57639529728
0.0598313997718012,1995.58639529728
0.0440079573269602,1995.59639529728
0.028467834108125,1995.60639529728
0.0132462318830309,1995.61639529728
-0.00117984298765751,1995.62639529728
-0.0135886713926294,1995.63639529728
-0.0219977028260822,1995.64639529728
-0.022937728257119,1995.65639529728
-0.0128312909271167,1995.66639529728
0.0119377254455802,1995.67639529728
0.0542071938853041,1995.68639529728
0.114364784445326,1995.69639529728
0.190859491857282,1995.70639529728
0.280576577654984,1995.71639529728
0.379456249387172,1995.72639529728
0.483345146574658,1995.73639529728
0.588097857088466,1995.74639529728
0.690067983925237,1995.75639529728
0.785996285318035,1995.76639529728
0.872392555083098,1995.77639529728
0.947788052945171,1995.78639529728
1.01140861070252,1995.79639529728
1.06362115107524,1995.80639529728
1.10436273119772,1995.81639529728
1.13586943330625,1995.82639529728
1.15958964263902,1995.83639529728
1.17707762207644,1995.84639529728
1.19037549364117,1995.85639529728
1.2008142163443,1995.86639529728
1.20926665598821,1995.87639529728
1.21697501815266,1995.88639529728
1.2241797820559,1995.89639529728
1.2306881094686,1995.90639529728
1.23498476910444,1995.91639529728
1.2361302535928,1995.92639529728
1.23311626067696,1995.93639529728
1.22513884084464,1995.94639529728
1.21225622810725,1995.95639529728
1.19522255026644,1995.96639529728
1.17426855752029,1995.97639529728
1.15162066960239,1995.98639529728
1.12891115682167,1995.99639529728
1.10712239813333,1996.00639529728
1.08694833922469,1996.01639529728
1.06952025454893,1996.02639529728
1.05486292991428,1996.03639529728
1.04310224952677,1996.04639529728
1.03337588366074,1996.05639529728
1.02596738836853,1996.06639529728
1.01916494161265,1996.07639529728
1.0130709171105,1996.08639529728
1.00733935215703,1996.09639529728
1.00064636483738,1996.10639529728
0.993649336586819,1996.11639529728
0.984692718773692,1996.12639529728
0.973412278239693,1996.13639529728
0.959702216503656,1996.14639529728
0.943666317774148,1996.15639529728
0.924995578462453,1996.16639529728
0.904906384269161,1996.17639529728
0.883595105124471,1996.18639529728
0.861490490542671,1996.19639529728
0.838356967252557,1996.20639529728
0.81400329993906,1996.21639529728
0.788296780780443,1996.22639529728
0.762043367276543,1996.23639529728
0.735956083303994,1996.24639529728
0.710343180957439,1996.25639529728
0.684649893566903,1996.26639529728
0.658917987058744,1996.27639529728
0.633960332950879,1996.28639529728
0.609031088530864,1996.29639529728
0.584656638046351,1996.30639529728
0.560862611948712,1996.31639529728
0.537614488606545,1996.32639529728
0.514887405978661,1996.33639529728
0.492711728578763,1996.34639529728
0.471060963260397,1996.35639529728
0.449953431472407,1996.36639529728
