PPG,time
0.0013193299494374,1679.78320095892
0.00181400312969423,1679.79320095892
0.000447545754279055,1679.80320095892
0.000222719191939989,1679.81320095892
-0.00100110017385145,1679.82320095892
-0.00188423952608201,1679.83320095892
-0.00229114344454489,1679.84320095892
-0.00279914405019649,1679.85320095892
-0.00314636858484791,1679.86320095892
-0.00365411146207238,1679.87320095892
-0.00421937806092521,1679.88320095892
-0.00488333667534144,1679.89320095892
-0.00542442462917717,1679.90320095892
-0.00596671442142077,1679.91320095892
-0.00609400819113414,1679.92320095892
-0.00623921279315929,1679.93320095892
-0.00647956132765127,1679.94320095892
-0.00645707472865219,1679.95320095892
-0.00723593630995108,1679.96320095892
-0.00831059344981683,1679.97320095892
-0.00901414370130463,1679.98320095892
-0.0100217000310972,1679.99320095892
-0.0113336757595317,1680.00320095892
-0.0123122723538363,1680.01320095892
-0.0133318638971695,1680.02320095892
-0.0145169117072044,1680.03320095892
-0.0158025902885696,1680.04320095892
-0.0166731540772223,1680.05320095892
-0.0173950222316747,1680.06320095892
-0.0179765722000055,1680.07320095892
-0.0185677945707145,1680.08320095892
-0.0188577023179771,1680.09320095892
-0.0193845793535213,1680.10320095892
-0.0204743044799695,1680.11320095892
-0.02098133022643,1680.12320095892
-0.0208141362916393,1680.13320095892
-0.0189582282294318,1680.14320095892
-0.0147986777505403,1680.15320095892
-0.00723646101940699,1680.16320095892
0.00412966038536134,1680.17320095892
0.0177971015695029,1680.18320095892
0.0328857779548452,1680.19320095892
0.047653297457016,1680.20320095892
0.0613146652979213,1680.21320095892
0.0729283001754867,1680.22320095892
0.0825377317736448,1680.23320095892
0.0900462053899446,1680.24320095892
0.0951183506071266,1680.25320095892
0.0989399086599239,1680.26320095892
0.100923075338727,1680.27320095892
0.101808759600487,1680.28320095892
0.102252502944357,1680.29320095892
0.10257995028919,1680.30320095892
0.102574337615135,1680.31320095892
0.102790104562104,1680.32320095892
0.103287976875471,1680.33320095892
0.104168851206546,1680.34320095892
0.104962080801089,1680.35320095892
0.106758655314415,1680.36320095892
0.108975277735268,1680.37320095892
0.111198400108757,1680.38320095892
0.114040276086072,1680.39320095892
0.117037635398151,1680.40320095892
0.119394791319956,1680.41320095892
0.121070644760313,1680.42320095892
0.121985784184228,1680.43320095892
0.122020442136776,1680.44320095892
0.121410909144448,1680.45320095892
0.120242435081242,1680.46320095892
0.119633652047809,1680.47320095892
0.119214128620061,1680.48320095892
0.11936683063071,1680.49320095892
0.119858253842656,1680.50320095892
0.120053468131172,1680.51320095892
0.11988845833909,1680.52320095892
0.119856817130415,1680.53320095892
0.119499213877596,1680.54320095892
0.119308086143674,1680.55320095892
0.119266944249895,1680.56320095892
0.119557610490787,1680.57320095892
0.119948966475647,1680.58320095892
0.120710877581624,1680.59320095892
0.121230563596434,1680.60320095892
0.121240550434599,1680.61320095892
0.121009704510906,1680.62320095892
0.120313923772507,1680.63320095892
0.119692480890473,1680.64320095892
0.118464278204029,1680.65320095892
0.116934452807332,1680.66320095892
0.114807507762574,1680.67320095892
0.112804067865427,1680.68320095892
0.110538825261108,1680.69320095892
0.108829518250998,1680.70320095892
0.107189533558993,1680.71320095892
0.105221455810827,1680.72320095892
0.102894120334475,1680.73320095892
0.100535694248624,1680.74320095892
0.0983367101591639,1680.75320095892
0.0962232230136114,1680.76320095892
0.0953199008777903,1680.77320095892
0.093684502079855,1680.78320095892
0.0928774509784838,1680.79320095892
0.0922042498207526,1680.80320095892
0.0914490186920317,1680.81320095892
0.0908805505443346,1680.82320095892
0.089906755246429,1680.83320095892
0.0885307101761662,1680.84320095892
0.0869054167817301,1680.85320095892
0.0853184040437197,1680.86320095892
0.0839113834526034,1680.87320095892
0.0832910215542829,1680.88320095892
0.0822347209144932,1680.89320095892
0.0815381071274695,1680.90320095892
0.0805333578199137,1680.91320095892
0.0797002196255644,1680.92320095892
0.0784046658383186,1680.93320095892
0.0767102184775439,1680.94320095892
0.0756263439448608,1680.95320095892
0.0742305305929961,1680.96320095892
0.0727284465496311,1680.97320095892
0.0711244348079472,1680.98320095892
0.0693032099755799,1680.99320095892
0.0676385759262804,1681.00320095892
0.0656403338823634,1681.01320095892
0.0639961069224914,1681.02320095892
0.0620942882812532,1681.03320095892
0.0608368535142382,1681.04320095892
0.0601604814219594,1681.05320095892
0.0595855804824327,1681.06320095892
0.0592417445954053,1681.07320095892
0.0582527321641118,1681.08320095892
0.0567330863681171,1681.09320095892
0.0546969590731409,1681.10320095892
0.0522724060173881,1681.11320095892
0.0499401797491562,1681.12320095892
0.0480047627839465,1681.13320095892
0.0458977433667474,1681.14320095892
0.044145607070466,1681.15320095892
0.0420223623682692,1681.16320095892
0.039261853525327,1681.17320095892
0.0368553323634705,1681.18320095892
0.0343301156567762,1681.19320095892
0.0322474430869588,1681.20320095892
0.0299518066567174,1681.21320095892
0.0280750773351728,1681.22320095892
0.0272237393509909,1681.23320095892
0.0276330273736391,1681.24320095892
0.0305875011092844,1681.25320095892
0.0358393651152821,1681.26320095892
0.0449980491068988,1681.27320095892
0.0565190994298023,1681.28320095892
0.0696933932029931,1681.29320095892
0.0830390062530639,1681.30320095892
0.0950647536260447,1681.31320095892
0.105477953715174,1681.32320095892
0.113343797088766,1681.33320095892
0.119106492706109,1681.34320095892
0.123388045576334,1681.35320095892
0.126540581454895,1681.36320095892
0.129084779877502,1681.37320095892
0.13069507360853,1681.38320095892
0.132197527042301,1681.39320095892
0.132585499898637,1681.40320095892
0.132424174493498,1681.41320095892
0.131465055777189,1681.42320095892
0.12984759223432,1681.43320095892
0.128726147354607,1681.44320095892
0.128243406180505,1681.45320095892
0.127924865900549,1681.46320095892
0.127900221882053,1681.47320095892
0.127833751998907,1681.48320095892
0.127732656210448,1681.49320095892
0.12753817286935,1681.50320095892
0.127222267278956,1681.51320095892
0.127099189675016,1681.52320095892
0.12636898725664,1681.53320095892
0.125361922420272,1681.54320095892
0.124381040685512,1681.55320095892
0.123064025881233,1681.56320095892
0.121766243927489,1681.57320095892
0.120607698172438,1681.58320095892
0.119912913045743,1681.59320095892
0.119345306974971,1681.60320095892
0.119473624276371,1681.61320095892
0.119229268433782,1681.62320095892
0.119324017204854,1681.63320095892
0.119641176677583,1681.64320095892
0.119858325735566,1681.65320095892
0.120203351042051,1681.66320095892
0.11994847940809,1681.67320095892
0.119830163239404,1681.68320095892
0.119208722283113,1681.69320095892
0.118444899297444,1681.70320095892
0.117111635047674,1681.71320095892
0.115497648867911,1681.72320095892
0.113703145377192,1681.73320095892
0.111946980159387,1681.74320095892
0.1100482658767,1681.75320095892
0.10829120530148,1681.76320095892
0.106244204491792,1681.77320095892
0.104269351801129,1681.78320095892
0.101866544727622,1681.79320095892
0.0992605306640033,1681.80320095892
0.0966252996081215,1681.81320095892
0.0939911715028798,1681.82320095892
0.0910267137521164,1681.83320095892
0.0881910170137809,1681.84320095892
0.0854287339611133,1681.85320095892
0.0831539968665591,1681.86320095892
0.0815192849036175,1681.87320095892
0.0801191675169409,1681.88320095892
0.0794121738236933,1681.89320095892
0.0782455946835029,1681.90320095892
0.0764345782947049,1681.91320095892
0.0746285217972268,1681.92320095892
0.0726518325134501,1681.93320095892
0.0703242519195621,1681.94320095892
0.0679863021582458,1681.95320095892
0.0655917516445872,1681.96320095892
0.0631814600021607,1681.97320095892
0.0607439252301497,1681.98320095892
0.0588903988298277,1681.99320095892
0.0574089756413525,1682.00320095892
0.0557228447161904,1682.01320095892
0.0544521741362391,1682.02320095892
0.0524517011634669,1682.03320095892
0.0498899073395706,1682.04320095892
0.0471082839217732,1682.05320095892
0.0439918381711103,1682.06320095892
0.0407820166009721,1682.07320095892
0.0376637203290102,1682.08320095892
0.0352393155603938,1682.09320095892
0.0329689207490467,1682.10320095892
0.0314344265553141,1682.11320095892
0.0299768056894791,1682.12320095892
0.0288310224124382,1682.13320095892
0.0278445444382148,1682.14320095892
0.0267072798710766,1682.15320095892
0.0252934876016888,1682.16320095892
0.0241117384449934,1682.17320095892
0.0226151769053059,1682.18320095892
0.021117530840222,1682.19320095892
0.0187992623247553,1682.20320095892
0.0166998683762205,1682.21320095892
0.0144045199523376,1682.22320095892
0.0124276204764049,1682.23320095892
0.0106870753748344,1682.24320095892
0.0093235161022925,1682.25320095892
0.00794231366739235,1682.26320095892
0.00635172885388106,1682.27320095892
0.00435820755148683,1682.28320095892
0.00228492162248914,1682.29320095892
0.000666990925935235,1682.30320095892
-4.68228984993903e-05,1682.31320095892
0.00109060349217532,1682.32320095892
0.00523931015762982,1682.33320095892
0.0130322551988142,1682.34320095892
0.0236757798377078,1682.35320095892
0.0364781519150951,1682.36320095892
0.0507338907876025,1682.37320095892
0.0641603203472461,1682.38320095892
0.0763712626923639,1682.39320095892
0.0866234672593345,1682.40320095892
0.0947141499976327,1682.41320095892
0.101052160958048,1682.42320095892
0.105722368963193,1682.43320095892
0.109102749750767,1682.44320095892
0.111419589874336,1682.45320095892
0.112715302890163,1682.46320095892
0.114169840079841,1682.47320095892
0.114984644357849,1682.48320095892
0.1154180809432,1682.49320095892
0.116097081924304,1682.50320095892
0.116543646570683,1682.51320095892
0.117386236074282,1682.52320095892
0.118132245519774,1682.53320095892
0.11942686838212,1682.54320095892
0.120882877785684,1682.55320095892
0.122911290015486,1682.56320095892
0.124760693256086,1682.57320095892
0.126299036953376,1682.58320095892
0.127950847686597,1682.59320095892
0.128732681861964,1682.60320095892
0.12917697805243,1682.61320095892
0.128467880545237,1682.62320095892
0.127734365523945,1682.63320095892
0.126640684046402,1682.64320095892
0.125422407313546,1682.65320095892
0.124610827841391,1682.66320095892
0.123617503094625,1682.67320095892
0.122959762595911,1682.68320095892
0.122081332906647,1682.69320095892
0.121286575172947,1682.70320095892
0.121139329997446,1682.71320095892
0.12100425809847,1682.72320095892
0.121415496598769,1682.73320095892
0.122049122485363,1682.74320095892
0.122632762770291,1682.75320095892
0.122700052198033,1682.76320095892
0.122669202164406,1682.77320095892
0.122493108712677,1682.78320095892
0.121991250441472,1682.79320095892
0.121793785929771,1682.80320095892
0.1213448290475,1682.81320095892
0.120664750085755,1682.82320095892
0.120013302365203,1682.83320095892
0.118776350478047,1682.84320095892
0.11750440524082,1682.85320095892
0.116264025687992,1682.86320095892
0.11500125220587,1682.87320095892
0.113181596078579,1682.88320095892
0.111147546442494,1682.89320095892
0.109100340211858,1682.90320095892
0.107558753044701,1682.91320095892
0.105477201139955,1682.92320095892
0.103973728566441,1682.93320095892
0.102784819919499,1682.94320095892
0.100970503581249,1682.95320095892
0.0992238521960048,1682.96320095892
0.0977238277858431,1682.97320095892
0.0963196441149168,1682.98320095892
0.0949240074010357,1682.99320095892
0.0933484526524487,1683.00320095892
0.0913746848095675,1683.01320095892
0.0896693920157667,1683.02320095892
0.0877387813424987,1683.03320095892
0.085921359460791,1683.04320095892
0.0839996155949654,1683.05320095892
0.0823153881849792,1683.06320095892
0.0804405745532993,1683.07320095892
0.0792095926300681,1683.08320095892
0.0773828397701429,1683.09320095892
0.0758772543512754,1683.10320095892
0.0750985999220029,1683.11320095892
0.0744302519099406,1683.12320095892
0.0743039751658692,1683.13320095892
0.0743401545996348,1683.14320095892
0.0735898472374317,1683.15320095892
0.0725153694559,1683.16320095892
0.0714004856507726,1683.17320095892
0.0705181025669977,1683.18320095892
0.0693064193461315,1683.19320095892
0.0682468796051234,1683.20320095892
0.0671329272456887,1683.21320095892
0.0655206240484887,1683.22320095892
0.0634999739401213,1683.23320095892
0.061489523655519,1683.24320095892
0.0597889082855453,1683.25320095892
0.0574186296952276,1683.26320095892
0.055650997405101,1683.27320095892
0.0539257014416671,1683.28320095892
0.0519907145410129,1683.29320095892
0.0503665047082017,1683.30320095892
0.048899709896702,1683.31320095892
0.0474399761917719,1683.32320095892
0.0466634222279348,1683.33320095892
0.0460526643846551,1683.34320095892
0.0454560045149559,1683.35320095892
0.0447573949223114,1683.36320095892
0.0434271120665733,1683.37320095892
0.041655324376654,1683.38320095892
0.0391967624030511,1683.39320095892
0.0366540107189476,1683.40320095892
0.0345915100875173,1683.41320095892
0.0321426087043178,1683.42320095892
0.0306337263531612,1683.43320095892
0.0298862496634015,1683.44320095892
0.0314501888202696,1683.45320095892
0.0362952187600537,1683.46320095892
0.0448837250215362,1683.47320095892
0.0564066239719078,1683.48320095892
0.0701988175100469,1683.49320095892
0.0850599714144886,1683.50320095892
0.099797058113944,1683.51320095892
0.112866486986737,1683.52320095892
0.124090383439552,1683.53320095892
0.132397504009353,1683.54320095892
0.138425551471904,1683.55320095892
0.14250519929752,1683.56320095892
0.145443257795741,1683.57320095892
0.147195979202321,1683.58320095892
0.148414208729571,1683.59320095892
0.149031610748352,1683.60320095892
0.14897500545701,1683.61320095892
0.148914008275801,1683.62320095892
0.148702267918271,1683.63320095892
0.148672030955905,1683.64320095892
0.14870865555085,1683.65320095892
0.149151633927832,1683.66320095892
0.149706742962,1683.67320095892
0.150806093230135,1683.68320095892
0.152270355771255,1683.69320095892
0.153738882282071,1683.70320095892
0.155382346149951,1683.71320095892
0.156424489159019,1683.72320095892
0.157007203353628,1683.73320095892
0.156534053479581,1683.74320095892
0.15531948551713,1683.75320095892
0.154186748286574,1683.76320095892
0.152991757431305,1683.77320095892
0.151973735283402,1683.78320095892
0.151505034402735,1683.79320095892
0.150271314463864,1683.80320095892
0.149385048850735,1683.81320095892
0.148531471327916,1683.82320095892
0.147706126706052,1683.83320095892
0.146912182176921,1683.84320095892
0.146123560653643,1683.85320095892
0.145623638949271,1683.86320095892
0.145526070286826,1683.87320095892
0.146234148375074,1683.88320095892
0.146868885324712,1683.89320095892
0.147327970705622,1683.90320095892
0.147765435930395,1683.91320095892
0.147952216795628,1683.92320095892
0.147072340394477,1683.93320095892
0.145369027084043,1683.94320095892
0.143485933259949,1683.95320095892
0.141197669306936,1683.96320095892
0.138748563762111,1683.97320095892
0.13607339555756,1683.98320095892
0.133642996559404,1683.99320095892
0.13135094596491,1684.00320095892
0.129001185083623,1684.01320095892
0.127008076833588,1684.02320095892
0.12454209201589,1684.03320095892
0.122287444958547,1684.04320095892
0.119624910968717,1684.05320095892
0.117203525931992,1684.06320095892
0.114825146691233,1684.07320095892
0.112474783715437,1684.08320095892
0.110351835275767,1684.09320095892
0.108413934027159,1684.10320095892
0.106393525459181,1684.11320095892
0.104764717825888,1684.12320095892
0.103140128488247,1684.13320095892
0.101081027410248,1684.14320095892
0.0990777821190091,1684.15320095892
0.0969026162673897,1684.16320095892
0.0950366560263073,1684.17320095892
0.0932535654097231,1684.18320095892
0.0915881387169384,1684.19320095892
0.0898411397590371,1684.20320095892
0.0880571058068602,1684.21320095892
0.0864563099164819,1684.22320095892
0.08472846198518,1684.23320095892
0.0832369780561218,1684.24320095892
0.0809910783006518,1684.25320095892
0.0800212661303487,1684.26320095892
0.0786100339341945,1684.27320095892
0.0769198488907974,1684.28320095892
0.0759715174466936,1684.29320095892
0.0751106498503572,1684.30320095892
0.0746192542886289,1684.31320095892
0.0739994220030593,1684.32320095892
0.0732261286715632,1684.33320095892
0.0724523477481592,1684.34320095892
0.0716797784379696,1684.35320095892
0.0704173070128969,1684.36320095892
0.0696710729165874,1684.37320095892
0.0686280056303834,1684.38320095892
0.0677558357106874,1684.39320095892
0.0671024062650137,1684.40320095892
0.0661802388618211,1684.41320095892
0.065505337290066,1684.42320095892
0.0642176601441651,1684.43320095892
0.0625218002823687,1684.44320095892
0.0601117349216815,1684.45320095892
0.0577830529770464,1684.46320095892
0.0560413014501534,1684.47320095892
0.0559122901455799,1684.48320095892
0.0574239600494881,1684.49320095892
0.0627134278535767,1684.50320095892
0.0719738150730047,1684.51320095892
0.0847661585735623,1684.52320095892
0.0994760219215458,1684.53320095892
0.114406382744303,1684.54320095892
0.128303245449872,1684.55320095892
0.140165558708057,1684.56320095892
0.149437009581207,1684.57320095892
0.157070345735592,1684.58320095892
0.162283226915137,1684.59320095892
0.165795297773089,1684.60320095892
0.168039544153502,1684.61320095892
0.169404017798879,1684.62320095892
0.17065843207328,1684.63320095892
0.171329581911746,1684.64320095892
0.1721460591963,1684.65320095892
0.172763629201824,1684.66320095892
0.173366880960057,1684.67320095892
0.174086688091655,1684.68320095892
0.17464615057849,1684.69320095892
0.175595390910809,1684.70320095892
0.176605936536108,1684.71320095892
0.177613880307685,1684.72320095892
0.179062314846341,1684.73320095892
0.180948068910886,1684.74320095892
0.182359704562851,1684.75320095892
0.183497545462508,1684.76320095892
0.184073628689768,1684.77320095892
0.184046369339289,1684.78320095892
0.182927327867213,1684.79320095892
0.181671085128508,1684.80320095892
0.179764873010436,1684.81320095892
0.178007103129246,1684.82320095892
0.175922805011007,1684.83320095892
0.174147923662507,1684.84320095892
0.172929371193228,1684.85320095892
0.17183483145,1684.86320095892
0.171514162512885,1684.87320095892
0.170709715537659,1684.88320095892
0.17101136328859,1684.89320095892
0.170718173322505,1684.90320095892
0.170394844798661,1684.91320095892
0.170468998651489,1684.92320095892
0.170331638482113,1684.93320095892
0.170192341723825,1684.94320095892
0.169619367081846,1684.95320095892
0.168410270774582,1684.96320095892
0.166848185880943,1684.97320095892
0.164698936612436,1684.98320095892
0.162477757827269,1684.99320095892
0.16013010880388,1685.00320095892
0.157908086899662,1685.01320095892
0.15534584767867,1685.02320095892
0.152466248259288,1685.03320095892
0.149551201991698,1685.04320095892
0.146146390539938,1685.05320095892
0.143378630685565,1685.06320095892
0.141080916849699,1685.07320095892
0.138954212880481,1685.08320095892
0.136896696673851,1685.09320095892
0.134791188968454,1685.10320095892
0.133501799663745,1685.11320095892
0.131790032376242,1685.12320095892
0.130218473648889,1685.13320095892
0.129009611798097,1685.14320095892
0.127759432905133,1685.15320095892
0.126213576434361,1685.16320095892
0.124530301662037,1685.17320095892
0.122177634186366,1685.18320095892
0.119591735652547,1685.19320095892
0.117051486181435,1685.20320095892
0.114408151289601,1685.21320095892
0.111961384145796,1685.22320095892
0.109799279943172,1685.23320095892
0.107477653667652,1685.24320095892
0.105610826155039,1685.25320095892
0.104269205156174,1685.26320095892
0.102959655258767,1685.27320095892
0.100957769643091,1685.28320095892
0.0986480676897471,1685.29320095892
0.0960926718535579,1685.30320095892
0.093638409164673,1685.31320095892
0.092031103789381,1685.32320095892
0.0910512082000019,1685.33320095892
0.0902624526151073,1685.34320095892
0.0891232868070186,1685.35320095892
0.0877264520945805,1685.36320095892
0.0861999234131175,1685.37320095892
0.084678612502717,1685.38320095892
0.082511803833856,1685.39320095892
0.0808220815044073,1685.40320095892
0.0797852429068159,1685.41320095892
0.0789126601853759,1685.42320095892
0.0777182902448192,1685.43320095892
0.0764042216337273,1685.44320095892
0.0747235682497161,1685.45320095892
0.0728053229751195,1685.46320095892
0.0713290374365974,1685.47320095892
0.0696895859733393,1685.48320095892
0.0683495825140448,1685.49320095892
0.0668223069963847,1685.50320095892
0.0651989319713866,1685.51320095892
0.0635283186477566,1685.52320095892
0.0615718120189823,1685.53320095892
0.0595178566067424,1685.54320095892
0.0572836948485954,1685.55320095892
0.0551328831302437,1685.56320095892
0.0530529259523559,1685.57320095892
0.0512290662069383,1685.58320095892
0.049779108533927,1685.59320095892
0.0485640236097543,1685.60320095892
0.046903210530234,1685.61320095892
0.0450815767584788,1685.62320095892
0.0434424993043848,1685.63320095892
0.0418075034513373,1685.64320095892
0.0413392883913634,1685.65320095892
0.0433455537858672,1685.66320095892
0.0485825413483236,1685.67320095892
0.0575195265248323,1685.68320095892
0.0701601493561317,1685.69320095892
0.0854661174784376,1685.70320095892
0.102342713046184,1685.71320095892
0.11898501535901,1685.72320095892
0.133738510604433,1685.73320095892
0.146115202989137,1685.74320095892
0.156098498598429,1685.75320095892
0.163499421562372,1685.76320095892
0.168646532134106,1685.77320095892
0.172611348480079,1685.78320095892
0.175148604913136,1685.79320095892
0.177264183393564,1685.80320095892
0.177875346861429,1685.81320095892
0.178404410380727,1685.82320095892
0.178527838645934,1685.83320095892
0.178758876002744,1685.84320095892
0.179057334281235,1685.85320095892
0.179451659591289,1685.86320095892
0.18000668457182,1685.87320095892
0.180690910881256,1685.88320095892
0.181568826393892,1685.89320095892
0.182906645025553,1685.90320095892
0.185123319710502,1685.91320095892
0.186889997181917,1685.92320095892
0.188557251133013,1685.93320095892
0.189874264841126,1685.94320095892
0.190369808071053,1685.95320095892
0.190164884376334,1685.96320095892
0.189245023833753,1685.97320095892
0.188172479552158,1685.98320095892
0.18667786422995,1685.99320095892
0.18579690248109,1686.00320095892
0.18514900616618,1686.01320095892
0.184972634346363,1686.02320095892
0.185630000343388,1686.03320095892
0.186435252953845,1686.04320095892
0.186925248035767,1686.05320095892
0.187631863850979,1686.06320095892
0.187604844644841,1686.07320095892
0.187761812907187,1686.08320095892
0.187976334662057,1686.09320095892
0.188357336208522,1686.10320095892
0.188745190410588,1686.11320095892
0.189148948702384,1686.12320095892
0.188865473737068,1686.13320095892
0.188417257538424,1686.14320095892
0.187359264822696,1686.15320095892
0.185120181321735,1686.16320095892
0.183224569035811,1686.17320095892
0.180458901892615,1686.18320095892
0.177913046398014,1686.19320095892
0.175557681211275,1686.20320095892
0.173381621848742,1686.21320095892
0.171502802980579,1686.22320095892
0.169474234522835,1686.23320095892
0.167507991619101,1686.24320095892
0.165203342231736,1686.25320095892
0.163324248552618,1686.26320095892
0.161288319033855,1686.27320095892
0.159080722264569,1686.28320095892
0.156422678176158,1686.29320095892
0.153872174281062,1686.30320095892
0.151821189731541,1686.31320095892
0.150081219554904,1686.32320095892
0.14829602718124,1686.33320095892
0.146812613336481,1686.34320095892
0.144773239702319,1686.35320095892
0.143142326247191,1686.36320095892
0.14157858002168,1686.37320095892
0.139764870740748,1686.38320095892
0.138242784793923,1686.39320095892
0.136953689170913,1686.40320095892
0.135344623845387,1686.41320095892
0.13409750025335,1686.42320095892
0.132617316688095,1686.43320095892
0.130705688509003,1686.44320095892
0.128583602931667,1686.45320095892
0.126745196770682,1686.46320095892
0.124385466236134,1686.47320095892
0.121669113486956,1686.48320095892
0.119008942526011,1686.49320095892
0.116570270046495,1686.50320095892
0.114357769491876,1686.51320095892
0.112103274706415,1686.52320095892
0.10961124709097,1686.53320095892
0.107131353548525,1686.54320095892
0.104358361644746,1686.55320095892
0.102226363280635,1686.56320095892
0.0997963418736506,1686.57320095892
0.0980166977737926,1686.58320095892
0.0959243263883814,1686.59320095892
0.0939846877332354,1686.60320095892
0.0916118113721392,1686.61320095892
0.0893637112436328,1686.62320095892
0.0868713660254799,1686.63320095892
0.0838760467106609,1686.64320095892
0.0811549012162635,1686.65320095892
0.0791502028960134,1686.66320095892
0.0771780737359083,1686.67320095892
0.0753614811556143,1686.68320095892
0.0735995256816836,1686.69320095892
0.0716958757132806,1686.70320095892
0.0699982020486055,1686.71320095892
0.0687274128925963,1686.72320095892
0.0683547797321475,1686.73320095892
0.0707271015947161,1686.74320095892
0.0769773136091763,1686.75320095892
0.0862585622286612,1686.76320095892
0.098786036191279,1686.77320095892
0.112717321668355,1686.78320095892
0.127201687265023,1686.79320095892
0.141042822194633,1686.80320095892
0.152578758817343,1686.81320095892
0.161633247539907,1686.82320095892
0.168880172444849,1686.83320095892
0.174050668232851,1686.84320095892
0.17728436206772,1686.85320095892
0.179281360292817,1686.86320095892
0.18059115579051,1686.87320095892
0.18139317919605,1686.88320095892
0.18203752694251,1686.89320095892
0.18212557740494,1686.90320095892
0.182359616314736,1686.91320095892
0.181988577312605,1686.92320095892
0.181664800427172,1686.93320095892
0.181310892280466,1686.94320095892
0.180864380387321,1686.95320095892
0.181036237435065,1686.96320095892
0.18189009704148,1686.97320095892
0.182204429869828,1686.98320095892
0.182818847001282,1686.99320095892
0.18278144861126,1687.00320095892
0.182343442502774,1687.01320095892
0.181089714050756,1687.02320095892
0.179080907882378,1687.03320095892
0.177226647517121,1687.04320095892
0.176059721485629,1687.05320095892
0.174972377423945,1687.06320095892
0.173908464835159,1687.07320095892
0.173155747300207,1687.08320095892
0.172872092006559,1687.09320095892
0.172655983940052,1687.10320095892
0.172430877542273,1687.11320095892
0.172405777124636,1687.12320095892
0.172527665376757,1687.13320095892
0.172817163594347,1687.14320095892
0.173108760342138,1687.15320095892
0.173258967727516,1687.16320095892
0.173481317605515,1687.17320095892
0.173031303441278,1687.18320095892
0.172447718127822,1687.19320095892
0.171472934754778,1687.20320095892
0.169934544924704,1687.21320095892
0.167811395862707,1687.22320095892
0.164865854289324,1687.23320095892
0.161335841660555,1687.24320095892
0.158195056936047,1687.25320095892
0.154984569982181,1687.26320095892
0.152513898354618,1687.27320095892
0.150285963369848,1687.28320095892
0.14847049055849,1687.29320095892
0.146606494497832,1687.30320095892
0.144421831737363,1687.31320095892
0.142466831981477,1687.32320095892
0.139460046224638,1687.33320095892
0.137189274263895,1687.34320095892
0.134504753911775,1687.35320095892
0.131513996384929,1687.36320095892
0.128864057278805,1687.37320095892
0.126639983300972,1687.38320095892
0.124955393073289,1687.39320095892
0.123577863804166,1687.40320095892
0.122424610935493,1687.41320095892
0.121262157049525,1687.42320095892
0.120050599208344,1687.43320095892
0.118132185828203,1687.44320095892
0.116127812849094,1687.45320095892
0.113970821894667,1687.46320095892
0.111419216668843,1687.47320095892
0.109577545586164,1687.48320095892
0.107427162729905,1687.49320095892
0.105293449781343,1687.50320095892
0.103512462007853,1687.51320095892
0.101592568287248,1687.52320095892
0.0997015461161237,1687.53320095892
0.0971856578342142,1687.54320095892
0.0952971400450406,1687.55320095892
0.0927923633280362,1687.56320095892
0.0903577684580862,1687.57320095892
0.0880376881981062,1687.58320095892
0.0863033073277189,1687.59320095892
0.0840820108667888,1687.60320095892
0.0815726014092365,1687.61320095892
0.0792449491641413,1687.62320095892
0.0759907483799802,1687.63320095892
0.0732296062811447,1687.64320095892
0.0710770034058296,1687.65320095892
0.0687358713291661,1687.66320095892
0.0666389848928196,1687.67320095892
0.0645397533976717,1687.68320095892
0.0620355057798837,1687.69320095892
0.0596479408731493,1687.70320095892
0.0570039279190696,1687.71320095892
0.0547733315375791,1687.72320095892
0.0526294621786316,1687.73320095892
0.0504224671185647,1687.74320095892
0.0481330155006449,1687.75320095892
0.0454890314173709,1687.76320095892
0.0426178332961451,1687.77320095892
0.0399852481054921,1687.78320095892
0.0371701601024384,1687.79320095892
0.0344710204800502,1687.80320095892
0.0321744655293478,1687.81320095892
0.0309148047196651,1687.82320095892
0.030032122632736,1687.83320095892
0.0305321433526583,1687.84320095892
0.0333555068442171,1687.85320095892
0.0398876259570142,1687.86320095892
0.0503522460233281,1687.87320095892
0.0648839272913761,1687.88320095892
0.0812801162893838,1687.89320095892
0.0985001511319313,1687.90320095892
0.114149703624412,1687.91320095892
0.127184406449747,1687.92320095892
0.137471796434559,1687.93320095892
0.145248438876151,1687.94320095892
0.150980000249563,1687.95320095892
0.155390732396477,1687.96320095892
0.158758314545064,1687.97320095892
0.161335470679865,1687.98320095892
0.162611071175261,1687.99320095892
0.162798158255673,1688.00320095892
0.162790538067693,1688.01320095892
0.162498389716728,1688.02320095892
0.162571373555733,1688.03320095892
0.162857403077745,1688.04320095892
0.163715806243725,1688.05320095892
0.164618609257852,1688.06320095892
0.166024427084147,1688.07320095892
0.166999769195783,1688.08320095892
0.168572205859492,1688.09320095892
0.170440460459125,1688.10320095892
0.172268836383695,1688.11320095892
0.17348204884773,1688.12320095892
0.174392445742312,1688.13320095892
0.174500118983459,1688.14320095892
0.173544801033371,1688.15320095892
0.17243172015779,1688.16320095892
0.171064462290258,1688.17320095892
0.16970417509496,1688.18320095892
0.168785370948721,1688.19320095892
0.168300927255606,1688.20320095892
0.167572102604946,1688.21320095892
0.167349978747899,1688.22320095892
0.167485364519583,1688.23320095892
0.167421582870207,1688.24320095892
0.167706875157091,1688.25320095892
0.168455921696118,1688.26320095892
0.168952969565649,1688.27320095892
0.169609217642558,1688.28320095892
0.169743148913432,1688.29320095892
0.169430916374713,1688.30320095892
0.16856107473158,1688.31320095892
0.16700891231503,1688.32320095892
0.165663351616394,1688.33320095892
0.16385117856335,1688.34320095892
0.162753673977537,1688.35320095892
0.161504688366927,1688.36320095892
0.160106870938296,1688.37320095892
0.158037842881889,1688.38320095892
0.15541430453377,1688.39320095892
0.152287041512836,1688.40320095892
0.149157646686882,1688.41320095892
0.146428212634307,1688.42320095892
0.143780628990813,1688.43320095892
0.141170379029799,1688.44320095892
0.138943766831959,1688.45320095892
0.136632407786051,1688.46320095892
0.134002313254516,1688.47320095892
0.13169290350459,1688.48320095892
0.129105799273844,1688.49320095892
0.127001679396988,1688.50320095892
0.125217217450901,1688.51320095892
0.124506098508911,1688.52320095892
0.124163472523508,1688.53320095892
0.124081273892801,1688.54320095892
0.123983370829895,1688.55320095892
0.123478261792602,1688.56320095892
0.121969131993634,1688.57320095892
0.120469788245941,1688.58320095892
0.118536546794115,1688.59320095892
0.116370717517537,1688.60320095892
0.114930153097096,1688.61320095892
0.112803431452341,1688.62320095892
0.110708057047159,1688.63320095892
0.108973037682461,1688.64320095892
0.106304535463912,1688.65320095892
0.103912725187841,1688.66320095892
0.10145978750567,1688.67320095892
0.0992388113825624,1688.68320095892
0.0974428431041707,1688.69320095892
0.0954045064127872,1688.70320095892
0.0936751587803963,1688.71320095892
0.0915619059489419,1688.72320095892
0.0896006020839391,1688.73320095892
0.0881161106762794,1688.74320095892
0.0867631644435045,1688.75320095892
0.0854687517782785,1688.76320095892
0.083850763342713,1688.77320095892
0.0817251192740712,1688.78320095892
0.079604552686594,1688.79320095892
0.0771054981525317,1688.80320095892
0.0748770759556049,1688.81320095892
0.0729334235137541,1688.82320095892
0.0709689375094437,1688.83320095892
0.0691340781802286,1688.84320095892
0.0672771259650011,1688.85320095892
0.0663793673402728,1688.86320095892
0.0650654488315427,1688.87320095892
0.0640628969466679,1688.88320095892
0.0624963756698258,1688.89320095892
0.0606928518250294,1688.90320095892
0.0590289954669589,1688.91320095892
0.0568367928229398,1688.92320095892
0.0549178961267059,1688.93320095892
0.0528247072713483,1688.94320095892
0.0504786904049263,1688.95320095892
0.0485278962357143,1688.96320095892
0.0467490917092695,1688.97320095892
0.0454743965155662,1688.98320095892
0.0455325357110471,1688.99320095892
0.0479275972761353,1689.00320095892
0.0537354022673517,1689.01320095892
0.0637800048897262,1689.02320095892
0.0773429937648601,1689.03320095892
0.0937405935904604,1689.04320095892
0.110838773121724,1689.05320095892
0.126737398195959,1689.06320095892
0.14096668472229,1689.07320095892
0.152442338775712,1689.08320095892
0.16126894524082,1689.09320095892
0.167952007086998,1689.10320095892
0.172258941251557,1689.11320095892
0.174573856533481,1689.12320095892
0.175604223730595,1689.13320095892
0.175422338901378,1689.14320095892
0.174582941863424,1689.15320095892
0.173625820077482,1689.16320095892
0.172718802491856,1689.17320095892
0.172406646397281,1689.18320095892
0.172774240702318,1689.19320095892
0.173129506553323,1689.20320095892
0.173483970763794,1689.21320095892
0.174031329890283,1689.22320095892
0.174371003906057,1689.23320095892
0.174904501994505,1689.24320095892
0.175584083392344,1689.25320095892
0.17582674829285,1689.26320095892
0.176195597989378,1689.27320095892
0.176317171469301,1689.28320095892
0.175510152575594,1689.29320095892
0.174258714121619,1689.30320095892
0.172707301653014,1689.31320095892
0.171175581715692,1689.32320095892
0.169318696150385,1689.33320095892
0.167507048680896,1689.34320095892
0.166137403336317,1689.35320095892
0.165354997379496,1689.36320095892
0.164467160330414,1689.37320095892
0.164104801282051,1689.38320095892
0.164166350939274,1689.39320095892
0.164389204523845,1689.40320095892
0.164488168805809,1689.41320095892
0.164117317529421,1689.42320095892
0.163862515729179,1689.43320095892
0.163352724657961,1689.44320095892
0.162399394099755,1689.45320095892
0.161651205250576,1689.46320095892
0.160291191965344,1689.47320095892
0.158950639324875,1689.48320095892
0.157431477433831,1689.49320095892
0.15483880853118,1689.50320095892
0.153015577032621,1689.51320095892
0.151403255078994,1689.52320095892
0.149447461907974,1689.53320095892
0.147367844948575,1689.54320095892
0.145605217606487,1689.55320095892
0.143271033874803,1689.56320095892
0.140714965052677,1689.57320095892
0.137905589693214,1689.58320095892
0.13502305121789,1689.59320095892
0.131935623956739,1689.60320095892
0.128886325753237,1689.61320095892
0.12621304620374,1689.62320095892
0.123525678958871,1689.63320095892
0.120754285882288,1689.64320095892
0.118187217181458,1689.65320095892
0.115485460999342,1689.66320095892
0.112898086464226,1689.67320095892
0.110910337178719,1689.68320095892
0.109389717702041,1689.69320095892
0.107463261852302,1689.70320095892
0.105327532713356,1689.71320095892
0.103161153457037,1689.72320095892
0.100524622154855,1689.73320095892
0.0975732728179825,1689.74320095892
0.0947117221343132,1689.75320095892
0.0919876975783195,1689.76320095892
0.0896174104887399,1689.77320095892
0.0872259442360886,1689.78320095892
0.0852308051859428,1689.79320095892
0.0828979602116365,1689.80320095892
0.0809428712674511,1689.81320095892
0.0791696765591802,1689.82320095892
0.0765093505292515,1689.83320095892
0.0739978348333745,1689.84320095892
0.0712442857691781,1689.85320095892
0.0681303430688906,1689.86320095892
0.0653508912003828,1689.87320095892
0.0634681216464093,1689.88320095892
0.0618303405731367,1689.89320095892
0.0604865239861437,1689.90320095892
0.0587965429840131,1689.91320095892
0.0566810520137713,1689.92320095892
0.0544462371226249,1689.93320095892
0.0519593141470871,1689.94320095892
0.0498625498915292,1689.95320095892
0.0480852427090899,1689.96320095892
0.0462296917551193,1689.97320095892
0.0447014440137455,1689.98320095892
0.043019239123075,1689.99320095892
0.0411143369384403,1690.00320095892
0.0391528291486541,1690.01320095892
0.0365351779122349,1690.02320095892
0.0341423837501389,1690.03320095892
0.0319928989330841,1690.04320095892
0.0314772869858285,1690.05320095892
0.0337584569335826,1690.06320095892
0.0401271897364539,1690.07320095892
0.0505022880036263,1690.08320095892
0.0643679619881471,1690.09320095892
0.0806486516731368,1690.10320095892
0.0971734583207232,1690.11320095892
0.112246068290525,1690.12320095892
0.125480118807128,1690.13320095892
0.135703674021506,1690.14320095892
0.143812857917171,1690.15320095892
0.149480234324488,1690.16320095892
0.153368398464872,1690.17320095892
0.155949018603829,1690.18320095892
0.157804012366361,1690.19320095892
0.158792904251338,1690.20320095892
0.159412972300211,1690.21320095892
0.160016979031221,1690.22320095892
0.16067855318309,1690.23320095892
0.161103336094827,1690.24320095892
0.161252653740358,1690.25320095892
0.161868549684059,1690.26320095892
0.162777376222956,1690.27320095892
0.164376179119249,1690.28320095892
0.166042040870074,1690.29320095892
0.167876843269473,1690.30320095892
0.169655994199486,1690.31320095892
0.171028944011049,1690.32320095892
0.172086669176553,1690.33320095892
0.172143545059495,1690.34320095892
0.171281255384609,1690.35320095892
0.169391665094726,1690.36320095892
0.167048021213566,1690.37320095892
0.164390112900209,1690.38320095892
0.162056304884945,1690.39320095892
0.159943792339199,1690.40320095892
0.157908051016108,1690.41320095892
0.156415553445265,1690.42320095892
0.15501491146801,1690.43320095892
0.154420589607285,1690.44320095892
0.154374279484145,1690.45320095892
0.155028944148952,1690.46320095892
0.156291204710119,1690.47320095892
0.157321339825953,1690.48320095892
0.157805910434922,1690.49320095892
0.157388274215271,1690.50320095892
0.156593284227658,1690.51320095892
0.155234514552586,1690.52320095892
0.154187907305346,1690.53320095892
0.152493559324413,1690.54320095892
0.150786376623454,1690.55320095892
0.14923773247315,1690.56320095892
0.147499156924216,1690.57320095892
0.145245090978731,1690.58320095892
0.142720409426299,1690.59320095892
0.140195663474419,1690.60320095892
0.137295606800281,1690.61320095892
0.134475567295923,1690.62320095892
0.132127585034568,1690.63320095892
0.130140135463097,1690.64320095892
0.128112382216519,1690.65320095892
0.12572140728645,1690.66320095892
0.123266246928463,1690.67320095892
0.120734193296288,1690.68320095892
0.118406839008546,1690.69320095892
0.115954358485783,1690.70320095892
0.114043831486985,1690.71320095892
0.112418701419082,1690.72320095892
0.110612702569807,1690.73320095892
0.109183665930248,1690.74320095892
0.107387385314512,1690.75320095892
0.105737889249889,1690.76320095892
0.103820082494518,1690.77320095892
0.10199354706843,1690.78320095892
0.100234259341961,1690.79320095892
0.0989473609724951,1690.80320095892
0.0972938558285464,1690.81320095892
0.0952697959896198,1690.82320095892
0.09282599083687,1690.83320095892
0.0903218156855493,1690.84320095892
0.0875463112678462,1690.85320095892
0.0854076196503569,1690.86320095892
0.0829176038479776,1690.87320095892
0.0806005919358413,1690.88320095892
0.0782435134571458,1690.89320095892
0.0760241199764088,1690.90320095892
0.0743333550994512,1690.91320095892
0.0726578505718504,1690.92320095892
0.0713245639950905,1690.93320095892
0.0696497391998562,1690.94320095892
0.0675318284631701,1690.95320095892
0.0654872426642743,1690.96320095892
0.0631694726792523,1690.97320095892
0.0606621865285123,1690.98320095892
0.0581710213276226,1690.99320095892
0.0556414042765561,1691.00320095892
0.0536422934476719,1691.01320095892
0.0513510664614752,1691.02320095892
0.049215606258887,1691.03320095892
0.0473893914681585,1691.04320095892
0.0455280379788802,1691.05320095892
0.0439573891324218,1691.06320095892
0.0420234714043727,1691.07320095892
0.0408403132535049,1691.08320095892
0.0392100252444769,1691.09320095892
0.0371646740535225,1691.10320095892
0.0360904190519855,1691.11320095892
0.0349255932762329,1691.12320095892
0.0339491950308099,1691.13320095892
0.0331411995202028,1691.14320095892
0.0321862494082906,1691.15320095892
0.031076764720928,1691.16320095892
0.0300047298254381,1691.17320095892
0.0286900681921626,1691.18320095892
0.0272390716706172,1691.19320095892
0.0268463427280174,1691.20320095892
0.0280753777123764,1691.21320095892
0.0329678405006615,1691.22320095892
0.0420594585151589,1691.23320095892
0.0556449623370197,1691.24320095892
0.0718175594760431,1691.25320095892
0.0898038502913432,1691.26320095892
0.107372636754016,1691.27320095892
0.123705378352406,1691.28320095892
0.13740334806403,1691.29320095892
0.148055553042999,1691.30320095892
0.156141339320596,1691.31320095892
0.162013920863926,1691.32320095892
0.165892321806114,1691.33320095892
0.167688955430159,1691.34320095892
0.168589807172653,1691.35320095892
0.168990008306307,1691.36320095892
0.169450155716814,1691.37320095892
0.170175683278487,1691.38320095892
0.170535095682845,1691.39320095892
0.171308715747764,1691.40320095892
0.172153950396636,1691.41320095892
0.173269011951645,1691.42320095892
0.175173029559487,1691.43320095892
0.177306857732823,1691.44320095892
0.180190922207028,1691.45320095892
0.183172620913192,1691.46320095892
0.185859439241211,1691.47320095892
0.187887400576515,1691.48320095892
0.189672677567058,1691.49320095892
0.190273611008394,1691.50320095892
0.189908482394669,1691.51320095892
0.189305281455822,1691.52320095892
0.188320823223036,1691.53320095892
0.186682885520783,1691.54320095892
0.184504053486498,1691.55320095892
0.182652069433704,1691.56320095892
0.180563786796721,1691.57320095892
0.178878914927646,1691.58320095892
0.178172476324826,1691.59320095892
0.178319610178927,1691.60320095892
0.178706850034222,1691.61320095892
0.179678523684061,1691.62320095892
0.181204635593662,1691.63320095892
0.18220285306624,1691.64320095892
0.182812742585052,1691.65320095892
0.182779416827034,1691.66320095892
0.182749121553156,1691.67320095892
0.182541288535411,1691.68320095892
0.181519892612288,1691.69320095892
0.179951430091325,1691.70320095892
0.178249877986172,1691.71320095892
0.176301998083215,1691.72320095892
0.174268643415516,1691.73320095892
0.17232928281306,1691.74320095892
0.170077803470831,1691.75320095892
0.167616238277315,1691.76320095892
0.16499091459424,1691.77320095892
0.161638254573322,1691.78320095892
0.158308124170191,1691.79320095892
0.154560748815586,1691.80320095892
0.151227406173036,1691.81320095892
0.148510537520333,1691.82320095892
0.146336113062463,1691.83320095892
0.144767186491348,1691.84320095892
0.143472034911048,1691.85320095892
0.141648261625325,1691.86320095892
0.140032623710591,1691.87320095892
0.138310164907553,1691.88320095892
0.136461605866966,1691.89320095892
0.134924124028708,1691.90320095892
0.133358475293047,1691.91320095892
0.131426219024859,1691.92320095892
0.129307758843933,1691.93320095892
0.126995361666515,1691.94320095892
0.124678575206839,1691.95320095892
0.122406223739416,1691.96320095892
0.119934635590755,1691.97320095892
0.117540528766176,1691.98320095892
0.115234704545929,1691.99320095892
0.113298705869886,1692.00320095892
0.111476647622388,1692.01320095892
0.109854093129983,1692.02320095892
0.108234949602076,1692.03320095892
0.106153340910769,1692.04320095892
0.104613135899499,1692.05320095892
0.102963054312555,1692.06320095892
0.100841032277401,1692.07320095892
0.0987133990499054,1692.08320095892
0.0963520107651416,1692.09320095892
0.0941270322730232,1692.10320095892
0.0918726289083555,1692.11320095892
0.0902926122522455,1692.12320095892
0.0886849103891789,1692.13320095892
0.0866502459140848,1692.14320095892
0.0840965897584662,1692.15320095892
0.0814654008239576,1692.16320095892
0.0790312160655047,1692.17320095892
0.0766181454447443,1692.18320095892
0.0742767734856163,1692.19320095892
0.0722820697364495,1692.20320095892
0.069832644088769,1692.21320095892
0.0675861026050628,1692.22320095892
0.0652626866112389,1692.23320095892
0.0631903958232026,1692.24320095892
0.0611012579477904,1692.25320095892
0.0588069880173176,1692.26320095892
0.0565757808284378,1692.27320095892
0.0539903003818191,1692.28320095892
0.05172121903547,1692.29320095892
0.051175799845282,1692.30320095892
0.0529011260126157,1692.31320095892
0.0585547508502196,1692.32320095892
0.0686372044978378,1692.33320095892
0.0819314137006636,1692.34320095892
0.0979068208047526,1692.35320095892
0.114910169949289,1692.36320095892
0.131381480664861,1692.37320095892
0.145878659767905,1692.38320095892
0.157468692319941,1692.39320095892
0.165842751347086,1692.40320095892
0.171744746289072,1692.41320095892
0.17501468364064,1692.42320095892
0.176820165276982,1692.43320095892
0.177353565570176,1692.44320095892
0.177166242188801,1692.45320095892
0.176623875782084,1692.46320095892
0.176202642168287,1692.47320095892
0.175468357913287,1692.48320095892
0.174527752662373,1692.49320095892
0.174374290679824,1692.50320095892
0.174563024067777,1692.51320095892
0.175123053083742,1692.52320095892
0.176393342062319,1692.53320095892
0.177621880293072,1692.54320095892
0.178917237487265,1692.55320095892
0.179918190204537,1692.56320095892
0.181014563719372,1692.57320095892
0.181126325739314,1692.58320095892
0.18011556158002,1692.59320095892
0.178153093618264,1692.60320095892
0.175317004436309,1692.61320095892
0.171839161873793,1692.62320095892
0.168678497904738,1692.63320095892
0.165846981117922,1692.64320095892
0.163608455491842,1692.65320095892
0.162741778090272,1692.66320095892
0.162436618277247,1692.67320095892
0.162733793972307,1692.68320095892
0.162817528615791,1692.69320095892
0.162630002203103,1692.70320095892
0.162495443929695,1692.71320095892
0.162273294714729,1692.72320095892
0.161815227805126,1692.73320095892
0.162138568859567,1692.74320095892
0.162385282222114,1692.75320095892
0.162128340218513,1692.76320095892
0.160890919712541,1692.77320095892
0.158844708666276,1692.78320095892
0.156687419288091,1692.79320095892
0.154053379141006,1692.80320095892
0.151593295817693,1692.81320095892
0.149103214967981,1692.82320095892
0.146546163421599,1692.83320095892
0.143774469464169,1692.84320095892
0.141432883828035,1692.85320095892
0.139175459380186,1692.86320095892
0.13661822218981,1692.87320095892
0.134137776042013,1692.88320095892
0.131980949786632,1692.89320095892
0.129003838785064,1692.90320095892
0.126239646262712,1692.91320095892
0.122942689718958,1692.92320095892
0.120121359827042,1692.93320095892
0.117302560541607,1692.94320095892
0.114918762227096,1692.95320095892
0.11278235119713,1692.96320095892
0.110941917699722,1692.97320095892
0.109507666997121,1692.98320095892
0.108036187012395,1692.99320095892
0.106150064973783,1693.00320095892
0.103709321591689,1693.01320095892
0.100912292228046,1693.02320095892
0.0986344957308631,1693.03320095892
0.0957324461012386,1693.04320095892
0.0937675467503625,1693.05320095892
0.0917832180561948,1693.06320095892
0.0898228314901305,1693.07320095892
0.0882266431542355,1693.08320095892
0.0863410219676769,1693.09320095892
0.0847603040458195,1693.10320095892
0.0828009405535042,1693.11320095892
0.0807549918451346,1693.12320095892
0.0786268191316933,1693.13320095892
0.0762337632438665,1693.14320095892
0.0739536263126997,1693.15320095892
0.0710744437100468,1693.16320095892
0.0687336608308799,1693.17320095892
0.0661485927905584,1693.18320095892
0.0638560083353252,1693.19320095892
0.0613622703131194,1693.20320095892
0.0593918760143334,1693.21320095892
0.0573338496272083,1693.22320095892
0.0554469906784212,1693.23320095892
0.0534885717207842,1693.24320095892
0.0515305294821162,1693.25320095892
0.0496046420775078,1693.26320095892
0.0474786297160008,1693.27320095892
0.0459616640729873,1693.28320095892
0.0438245893140118,1693.29320095892
0.0416423925892079,1693.30320095892
0.0395028085951139,1693.31320095892
0.036933468269624,1693.32320095892
0.0346315749297998,1693.33320095892
0.0318375859491061,1693.34320095892
0.0299510691178286,1693.35320095892
0.0280677624120396,1693.36320095892
0.0264875463922978,1693.37320095892
0.0249211925798071,1693.38320095892
0.0227545632261439,1693.39320095892
0.0202623109281891,1693.40320095892
0.0175131825524858,1693.41320095892
0.0151472662344196,1693.42320095892
0.0136582896317401,1693.43320095892
0.0143000559144981,1693.44320095892
0.018513772073196,1693.45320095892
0.0270189036562984,1693.46320095892
0.0400600070700835,1693.47320095892
0.056182446601623,1693.48320095892
0.0739094608095656,1693.49320095892
0.0913540810158911,1693.50320095892
0.106991932689416,1693.51320095892
0.120299394185557,1693.52320095892
0.130425957095908,1693.53320095892
0.13880104160486,1693.54320095892
0.144643271891928,1693.55320095892
0.149124027345754,1693.56320095892
0.152289803343316,1693.57320095892
0.154081892687085,1693.58320095892
0.155163244019314,1693.59320095892
0.155444380325365,1693.60320095892
0.155755116053965,1693.61320095892
0.155771371722131,1693.62320095892
0.15633995839209,1693.63320095892
0.157113717398226,1693.64320095892
0.15843014461193,1693.65320095892
0.159724418326866,1693.66320095892
0.161532641253865,1693.67320095892
0.163373316525297,1693.68320095892
0.164653532002349,1693.69320095892
0.166858490371999,1693.70320095892
0.168250888187756,1693.71320095892
0.169409980764251,1693.72320095892
0.170121652422158,1693.73320095892
0.169667576559419,1693.74320095892
0.168749086045892,1693.75320095892
0.166876505068439,1693.76320095892
0.164720635740548,1693.77320095892
0.162828855883762,1693.78320095892
0.161009762371633,1693.79320095892
0.159249343755294,1693.80320095892
0.158059077634559,1693.81320095892
0.157460267614557,1693.82320095892
0.157384335291202,1693.83320095892
0.157089518729807,1693.84320095892
0.157226626725105,1693.85320095892
0.1572963067562,1693.86320095892
0.157478639946659,1693.87320095892
0.157365622105744,1693.88320095892
0.15758328266186,1693.89320095892
0.157542237395124,1693.90320095892
0.156885325503554,1693.91320095892
0.155743643019146,1693.92320095892
0.15392794836809,1693.93320095892
0.152200912250063,1693.94320095892
0.149997765359582,1693.95320095892
0.14787411162377,1693.96320095892
0.145573341671733,1693.97320095892
0.143025794625579,1693.98320095892
0.140362339715186,1693.99320095892
0.137734845686672,1694.00320095892
0.135235043074148,1694.01320095892
0.13279266043703,1694.02320095892
0.130369084801133,1694.03320095892
0.128020812745997,1694.04320095892
0.125663844069988,1694.05320095892
0.122861154494975,1694.06320095892
0.120313021020345,1694.07320095892
0.117887064782194,1694.08320095892
0.115547300773531,1694.09320095892
0.113266105336283,1694.10320095892
0.111192160650255,1694.11320095892
0.109202533984559,1694.12320095892
0.107663136653257,1694.13320095892
0.105928718939047,1694.14320095892
0.104155970919637,1694.15320095892
0.102470296400979,1694.16320095892
0.100211027133703,1694.17320095892
0.0978578621706778,1694.18320095892
0.0959867086335781,1694.19320095892
0.0940632895692499,1694.20320095892
0.0923322934580358,1694.21320095892
0.0908188866730226,1694.22320095892
0.0895927285633662,1694.23320095892
0.0880836880069022,1694.24320095892
0.0865708028935455,1694.25320095892
0.0847813300670927,1694.26320095892
0.0825301338659321,1694.27320095892
0.0805359583622606,1694.28320095892
0.0790180147619167,1694.29320095892
0.0770935205668874,1694.30320095892
0.0757329058127178,1694.31320095892
0.0740048080293348,1694.32320095892
0.0719690905686028,1694.33320095892
0.0699881615338156,1694.34320095892
0.0680127514338617,1694.35320095892
0.066616859409748,1694.36320095892
0.0650354808935208,1694.37320095892
0.0637689052759426,1694.38320095892
0.0623155532798937,1694.39320095892
0.0605576088473398,1694.40320095892
0.0588476353895444,1694.41320095892
0.0566375541497653,1694.42320095892
0.0543196368609271,1694.43320095892
0.0522257536938275,1694.44320095892
0.0502827977992544,1694.45320095892
0.0482048967701252,1694.46320095892
0.0457254993831812,1694.47320095892
0.0439779813514309,1694.48320095892
0.0421855712517781,1694.49320095892
0.0404445236242685,1694.50320095892
0.0390831168437795,1694.51320095892
0.0375710195345463,1694.52320095892
0.0366684963670538,1694.53320095892
0.0360822356318375,1694.54320095892
0.0351721276773474,1694.55320095892
0.0341663848239023,1694.56320095892
0.0325900428886572,1694.57320095892
0.0303206986293288,1694.58320095892
0.028135463972802,1694.59320095892
0.0254596019144156,1694.60320095892
0.0227651341307021,1694.61320095892
0.02058912948588,1694.62320095892
0.0194202891901235,1694.63320095892
0.0202061547128496,1694.64320095892
0.0246104308309494,1694.65320095892
0.0330560971169761,1694.66320095892
0.0472460853750432,1694.67320095892
0.065087527308499,1694.68320095892
0.0839980979863597,1694.69320095892
0.102884151736066,1694.70320095892
0.119959358172643,1694.71320095892
0.134357024866802,1694.72320095892
0.146120977830706,1694.73320095892
0.155654772818184,1694.74320095892
0.162943227625477,1694.75320095892
0.168926637149555,1694.76320095892
0.173180560590246,1694.77320095892
0.175752001063444,1694.78320095892
0.178056357122688,1694.79320095892
0.178810648827472,1694.80320095892
0.17883213100833,1694.81320095892
0.178309520083911,1694.82320095892
0.177786066926477,1694.83320095892
0.177564679206248,1694.84320095892
0.177951194246209,1694.85320095892
0.178959446087061,1694.86320095892
0.181139185907571,1694.87320095892
0.183826978085027,1694.88320095892
0.186318979106676,1694.89320095892
0.189206729040565,1694.90320095892
0.190909720959847,1694.91320095892
0.192234182957847,1694.92320095892
0.192696410721763,1694.93320095892
0.191980685823143,1694.94320095892
0.191436138769525,1694.95320095892
0.190078650920389,1694.96320095892
0.188504659086918,1694.97320095892
0.187351870797792,1694.98320095892
0.186387750845218,1694.99320095892
0.185720786189888,1695.00320095892
0.185341310894919,1695.01320095892
0.185305338679239,1695.02320095892
0.185539946373685,1695.03320095892
0.185882881997127,1695.04320095892
0.186329868318989,1695.05320095892
0.186513935857832,1695.06320095892
0.186715458507988,1695.07320095892
0.186874926018203,1695.08320095892
0.187053754010706,1695.09320095892
0.186743218454017,1695.10320095892
0.186009961038705,1695.11320095892
0.18493315990712,1695.12320095892
0.182717269638288,1695.13320095892
0.179820269215921,1695.14320095892
0.17663970854409,1695.15320095892
0.173387958249854,1695.16320095892
0.169939700630043,1695.17320095892
0.166802045560132,1695.18320095892
0.163614594976534,1695.19320095892
0.160589688028184,1695.20320095892
0.157965177857126,1695.21320095892
0.154874429702642,1695.22320095892
0.15288112837827,1695.23320095892
0.151153222965567,1695.24320095892
0.149635075437768,1695.25320095892
0.148556692377963,1695.26320095892
0.147313962157453,1695.27320095892
0.146328314076573,1695.28320095892
0.144985118441301,1695.29320095892
0.142844199986258,1695.30320095892
0.140530373416404,1695.31320095892
0.138155185426107,1695.32320095892
0.136292530933902,1695.33320095892
0.134596924347431,1695.34320095892
0.133038204249275,1695.35320095892
0.131007898306834,1695.36320095892
0.129383478745588,1695.37320095892
0.128272143472192,1695.38320095892
0.126837351796336,1695.39320095892
0.125543206252333,1695.40320095892
0.123684968665181,1695.41320095892
0.121861083496128,1695.42320095892
0.119817227543194,1695.43320095892
0.117230183625484,1695.44320095892
0.114642464145776,1695.45320095892
0.111937754426747,1695.46320095892
0.109614150321088,1695.47320095892
0.10733872256434,1695.48320095892
0.105044634266709,1695.49320095892
0.102622081081542,1695.50320095892
0.100282874814491,1695.51320095892
0.0981455893643598,1695.52320095892
0.0955017900726615,1695.53320095892
0.0928206250194908,1695.54320095892
0.0896211565494301,1695.55320095892
0.0862868485666189,1695.56320095892
0.082985993508794,1695.57320095892
0.0803577182245885,1695.58320095892
0.0784267179888095,1695.59320095892
0.0765328944693298,1695.60320095892
0.0749940922025435,1695.61320095892
0.0739427701991129,1695.62320095892
0.0728894658627984,1695.63320095892
0.0711748613823648,1695.64320095892
0.0691582521837574,1695.65320095892
0.0663360896063122,1695.66320095892
0.0638077295968679,1695.67320095892
0.0613916361097698,1695.68320095892
0.0584135820185119,1695.69320095892
0.0560604293800437,1695.70320095892
0.0535099308298549,1695.71320095892
0.0511261274005927,1695.72320095892
0.0500416771868901,1695.73320095892
0.049682940638451,1695.74320095892
0.0512290043974493,1695.75320095892
0.0556270472629385,1695.76320095892
0.0637510549621888,1695.77320095892
0.0752878352165329,1695.78320095892
0.0899467998942863,1695.79320095892
0.105665892537996,1695.80320095892
0.121252019423291,1695.81320095892
0.135658432618558,1695.82320095892
0.148155602429947,1695.83320095892
0.159067707856979,1695.84320095892
0.167600575803027,1695.85320095892
0.174066027966283,1695.86320095892
0.17881920436209,1695.87320095892
0.181644595654439,1695.88320095892
0.182731285498477,1695.89320095892
0.182533521104096,1695.90320095892
0.181516495187146,1695.91320095892
0.18019506248521,1695.92320095892
0.17975841727999,1695.93320095892
0.1799955506381,1695.94320095892
0.180421637355335,1695.95320095892
0.181677927572921,1695.96320095892
0.182691993908142,1695.97320095892
0.184579252631673,1695.98320095892
0.186397072136674,1695.99320095892
0.188343844914718,1696.00320095892
0.190503351842151,1696.01320095892
0.191585043965919,1696.02320095892
0.192238275821774,1696.03320095892
0.191813464962555,1696.04320095892
0.190040570331065,1696.05320095892
0.187380917538671,1696.06320095892
0.18461507795447,1696.07320095892
0.182296122536749,1696.08320095892
0.180853882377265,1696.09320095892
0.179769501240034,1696.10320095892
0.179387691594839,1696.11320095892
0.179597841914031,1696.12320095892
0.180557499638548,1696.13320095892
0.181148075139545,1696.14320095892
0.181251543255928,1696.15320095892
0.180944854410895,1696.16320095892
0.180072018607315,1696.17320095892
0.179221573898377,1696.18320095892
0.178511578371185,1696.19320095892
0.177710965717872,1696.20320095892
0.176611816488999,1696.21320095892
0.175268467811723,1696.22320095892
0.17401098005425,1696.23320095892
0.172339165632612,1696.24320095892
0.170334729032282,1696.25320095892
0.168199046017942,1696.26320095892
0.165466955043422,1696.27320095892
0.162561547827768,1696.28320095892
0.159647635030459,1696.29320095892
0.157246117959058,1696.30320095892
0.15455113185768,1696.31320095892
0.152408330052908,1696.32320095892
0.150434130958176,1696.33320095892
0.148139835237038,1696.34320095892
0.146794045664683,1696.35320095892
0.144699844862541,1696.36320095892
0.142751858640272,1696.37320095892
0.140596011928253,1696.38320095892
0.138951541567131,1696.39320095892
0.136696379040834,1696.40320095892
0.134735752882295,1696.41320095892
0.132756511249135,1696.42320095892
0.130266288206515,1696.43320095892
0.127264499845994,1696.44320095892
0.124097122421773,1696.45320095892
0.120823337633833,1696.46320095892
0.118193209924686,1696.47320095892
0.115570167813366,1696.48320095892
0.112662833136225,1696.49320095892
0.110015705912355,1696.50320095892
0.107348406083177,1696.51320095892
0.104991115353389,1696.52320095892
0.103130355311178,1696.53320095892
0.10157224818652,1696.54320095892
0.100179205461418,1696.55320095892
0.0988437969707884,1696.56320095892
0.0974166889992479,1696.57320095892
0.0961314824938281,1696.58320095892
0.0949757014066979,1696.59320095892
0.0937278237955227,1696.60320095892
0.0919771756669851,1696.61320095892
0.0896032881553663,1696.62320095892
0.0872213339406358,1696.63320095892
0.0845645090642092,1696.64320095892
0.0816415406956694,1696.65320095892
0.0788963413345929,1696.66320095892
0.0758962842845942,1696.67320095892
0.0729557162867467,1696.68320095892
0.0701712078836738,1696.69320095892
0.0671497635658255,1696.70320095892
0.0643483869887789,1696.71320095892
0.061918177487088,1696.72320095892
0.0594106095958453,1696.73320095892
0.0567788052034126,1696.74320095892
0.0542734498342956,1696.75320095892
0.0521688605781335,1696.76320095892
0.0505305253177606,1696.77320095892
0.0483809305770307,1696.78320095892
0.0464601121369775,1696.79320095892
0.0442385201237205,1696.80320095892
0.0416461194692794,1696.81320095892
0.039536283338647,1696.82320095892
0.037218460946485,1696.83320095892
0.0353019201696596,1696.84320095892
0.0340658113802655,1696.85320095892
0.0345056575478991,1696.86320095892
0.0378812175186599,1696.87320095892
0.0453816287866261,1696.88320095892
0.0567579940171273,1696.89320095892
0.0717234241220677,1696.90320095892
0.0887972353607539,1696.91320095892
0.106339051994856,1696.92320095892
0.123543101982411,1696.93320095892
0.139536091350516,1696.94320095892
0.153600858610389,1696.95320095892
0.164899636059222,1696.96320095892
0.174188036372607,1696.97320095892
0.181255399512483,1696.98320095892
0.185891529017564,1696.99320095892
0.188715812933627,1697.00320095892
0.189683067518757,1697.01320095892
0.189547937891098,1697.02320095892
0.188459314457421,1697.03320095892
0.187165451691659,1697.04320095892
0.186194044509031,1697.05320095892
0.185655974451879,1697.06320095892
0.18613098249532,1697.07320095892
0.187514649844118,1697.08320095892
0.189711660305103,1697.09320095892
0.192973627428675,1697.10320095892
0.196138805663842,1697.11320095892
0.199484044236203,1697.12320095892
0.202143203130869,1697.13320095892
0.204171696484235,1697.14320095892
0.20547994494367,1697.15320095892
0.205763047594381,1697.16320095892
0.204748399928633,1697.17320095892
0.202671016758499,1697.18320095892
0.200642657545527,1697.19320095892
0.19795423289326,1697.20320095892
0.195711899971837,1697.21320095892
0.193990633985285,1697.22320095892
0.193223947806333,1697.23320095892
0.19225866489384,1697.24320095892
0.192042042639874,1697.25320095892
0.192114128631595,1697.26320095892
0.193076673921543,1697.27320095892
0.194059514482413,1697.28320095892
0.194383600901875,1697.29320095892
0.194579302382462,1697.30320095892
0.194220778724962,1697.31320095892
0.19345173987881,1697.32320095892
0.192638740822552,1697.33320095892
0.191729178071213,1697.34320095892
0.190975488146086,1697.35320095892
0.190213733936795,1697.36320095892
0.189539825469174,1697.37320095892
0.188777558426406,1697.38320095892
0.187469096978271,1697.39320095892
0.185632329081863,1697.40320095892
0.183114289774246,1697.41320095892
0.180741383285602,1697.42320095892
0.178296802972631,1697.43320095892
0.176134808675985,1697.44320095892
0.17442594992104,1697.45320095892
0.173129527643403,1697.46320095892
0.171562956041091,1697.47320095892
0.169300402211969,1697.48320095892
0.167292591229864,1697.49320095892
0.165119956190608,1697.50320095892
0.163364329908521,1697.51320095892
0.1617099215434,1697.52320095892
0.15983368199512,1697.53320095892
0.157423357962687,1697.54320095892
0.154654668368817,1697.55320095892
0.151842203032,1697.56320095892
0.149473013524864,1697.57320095892
0.147209576991936,1697.58320095892
0.144996907535672,1697.59320095892
0.14329171592613,1697.60320095892
0.141221397345054,1697.61320095892
0.139078218275533,1697.62320095892
0.136525165968479,1697.63320095892
0.134709173423494,1697.64320095892
0.132931819534144,1697.65320095892
0.1306052588503,1697.66320095892
0.128587425011018,1697.67320095892
0.126486159550387,1697.68320095892
0.124286850193184,1697.69320095892
0.122451758085995,1697.70320095892
0.120556876062577,1697.71320095892
0.119271402434618,1697.72320095892
0.117326168502787,1697.73320095892
0.115392713442388,1697.74320095892
0.113145095386666,1697.75320095892
0.110504495175053,1697.76320095892
0.108357000022494,1697.77320095892
0.105795108966427,1697.78320095892
0.103201703352653,1697.79320095892
0.100965820582055,1697.80320095892
0.0989752319869895,1697.81320095892
0.0961477150705015,1697.82320095892
0.0939180158781993,1697.83320095892
0.0921035151461103,1697.84320095892
0.0899480457337012,1697.85320095892
0.0878304985762657,1697.86320095892
0.0853019972595039,1697.87320095892
0.0832080472039746,1697.88320095892
0.0810748107601164,1697.89320095892
0.0791465576038948,1697.90320095892
0.0772661742307271,1697.91320095892
0.0748763764782203,1697.92320095892
0.0731193939128004,1697.93320095892
0.0707948173243656,1697.94320095892
0.068569169433176,1697.95320095892
0.0657849948023879,1697.96320095892
0.0629210743637274,1697.97320095892
0.0604468428424582,1697.98320095892
0.0587292576562356,1697.99320095892
0.0576959565971755,1698.00320095892
0.0583399783546481,1698.01320095892
0.062055574896199,1698.02320095892
0.0692751088469673,1698.03320095892
0.0808697920538106,1698.04320095892
0.0961231906162935,1698.05320095892
0.113316650225645,1698.06320095892
0.130628217325083,1698.07320095892
0.147016687153287,1698.08320095892
0.161483796535483,1698.09320095892
0.174114355209395,1698.10320095892
0.183856954069434,1698.11320095892
0.190841009951781,1698.12320095892
0.195915157273808,1698.13320095892
0.198849375622043,1698.14320095892
0.20021752820756,1698.15320095892
0.200280828906912,1698.16320095892
0.199619944173716,1698.17320095892
0.199152944111362,1698.18320095892
0.198068740199986,1698.19320095892
0.197620724069347,1698.20320095892
0.197364318059106,1698.21320095892
0.197479539309522,1698.22320095892
0.19804101805311,1698.23320095892
0.198493014097482,1698.24320095892
0.199539708450369,1698.25320095892
0.201077335965531,1698.26320095892
0.202810171433827,1698.27320095892
0.204660622190286,1698.28320095892
0.206219205944089,1698.29320095892
0.207263169669497,1698.30320095892
0.208057059693706,1698.31320095892
0.20768042368068,1698.32320095892
0.206756398391213,1698.33320095892
0.205738661598694,1698.34320095892
0.204369270530867,1698.35320095892
0.203502351167993,1698.36320095892
0.202605438668228,1698.37320095892
0.202609562579334,1698.38320095892
0.203360629060306,1698.39320095892
0.20441214501728,1698.40320095892
0.205179443856371,1698.41320095892
0.205457419375192,1698.42320095892
0.205352311582394,1698.43320095892
0.204479996946058,1698.44320095892
0.203367559777218,1698.45320095892
0.202371525179053,1698.46320095892
0.201303132583136,1698.47320095892
0.200131175349198,1698.48320095892
0.198419064791144,1698.49320095892
0.196741085222884,1698.50320095892
0.194755161944992,1698.51320095892
0.192373322726708,1698.52320095892
0.190040393986534,1698.53320095892
0.187507717837869,1698.54320095892
0.184822567560778,1698.55320095892
0.182667226891908,1698.56320095892
0.18087049620061,1698.57320095892
0.178443513470266,1698.58320095892
0.176152431857926,1698.59320095892
0.173725987175433,1698.60320095892
0.170569646034023,1698.61320095892
0.167331854993208,1698.62320095892
0.1641645986763,1698.63320095892
0.161346953376238,1698.64320095892
0.158839959307901,1698.65320095892
0.156273983030925,1698.66320095892
0.153689784040046,1698.67320095892
0.150854133294065,1698.68320095892
0.148335378899761,1698.69320095892
0.145406756105549,1698.70320095892
0.142798342477739,1698.71320095892
0.140009073585116,1698.72320095892
0.136938144716814,1698.73320095892
0.133903814082595,1698.74320095892
0.131083356748548,1698.75320095892
0.128646268354473,1698.76320095892
0.125877328411655,1698.77320095892
0.123743315800792,1698.78320095892
0.121244835194438,1698.79320095892
0.118725221743954,1698.80320095892
0.116235055178596,1698.81320095892
0.113636655511848,1698.82320095892
0.111249377196197,1698.83320095892
0.10899301756852,1698.84320095892
0.10690068340482,1698.85320095892
0.104615100174552,1698.86320095892
0.102428387839012,1698.87320095892
0.0999685245223521,1698.88320095892
0.0975857938033042,1698.89320095892
0.0952698578303988,1698.90320095892
0.093128860186944,1698.91320095892
0.0908278101652672,1698.92320095892
0.088621018071117,1698.93320095892
0.0861685460597834,1698.94320095892
0.0832631263802942,1698.95320095892
0.0805673677178286,1698.96320095892
0.0783426806862674,1698.97320095892
0.0757402332710968,1698.98320095892
0.0733271498617089,1698.99320095892
0.0705009295130037,1699.00320095892
0.0673753622653286,1699.01320095892
0.065372896330289,1699.02320095892
0.064729438434964,1699.03320095892
0.0666927924474811,1699.04320095892
0.0718399436590483,1699.05320095892
0.0803863522751058,1699.06320095892
0.0918195739026594,1699.07320095892
0.105126465741572,1699.08320095892
0.119689209241398,1699.09320095892
0.135086243436765,1699.10320095892
0.149119858114673,1699.11320095892
0.16207313676895,1699.12320095892
0.172350405902424,1699.13320095892
0.180325438279905,1699.14320095892
0.18618852427601,1699.15320095892
0.189657682508835,1699.16320095892
0.191457172798907,1699.17320095892
0.192219193686629,1699.18320095892
0.192279418590898,1699.19320095892
0.191923117398589,1699.20320095892
0.19170474328736,1699.21320095892
0.191912288315508,1699.22320095892
0.191994180681987,1699.23320095892
0.192295215054272,1699.24320095892
0.193281876959088,1699.25320095892
0.195242657028945,1699.26320095892
0.197611958201801,1699.27320095892
0.200396925926528,1699.28320095892
0.203225907824976,1699.29320095892
0.205750328700421,1699.30320095892
0.207602662616832,1699.31320095892
0.208058891840174,1699.32320095892
0.208084858952506,1699.33320095892
0.207026695716715,1699.34320095892
0.204690116524736,1699.35320095892
0.202328847257607,1699.36320095892
0.200240114098275,1699.37320095892
0.198418508623451,1699.38320095892
0.197284337382078,1699.39320095892
0.196248996112009,1699.40320095892
0.195735507248102,1699.41320095892
0.195128742936209,1699.42320095892
0.194632474365289,1699.43320095892
0.19430772438702,1699.44320095892
0.193953083908713,1699.45320095892
0.193421476952652,1699.46320095892
0.192993009426299,1699.47320095892
0.192546749086087,1699.48320095892
0.191494953281191,1699.49320095892
0.190566231429653,1699.50320095892
0.189187992524581,1699.51320095892
0.187461819483498,1699.52320095892
0.185439336349578,1699.53320095892
0.183628316837972,1699.54320095892
0.181251755126808,1699.55320095892
0.17901074336921,1699.56320095892
0.17632249631228,1699.57320095892
0.17325300913605,1699.58320095892
0.170446722386231,1699.59320095892
0.167771086797836,1699.60320095892
0.165252454437656,1699.61320095892
0.162311284426546,1699.62320095892
0.159671660002533,1699.63320095892
0.156813284139418,1699.64320095892
0.153768492855993,1699.65320095892
0.151159611536666,1699.66320095892
0.148978244704048,1699.67320095892
0.147124889482259,1699.68320095892
0.144877873070253,1699.69320095892
0.142701988741074,1699.70320095892
0.139986519241577,1699.71320095892
0.13690560463366,1699.72320095892
0.133648672222062,1699.73320095892
0.130412134207095,1699.74320095892
0.127592179454459,1699.75320095892
0.125249235147251,1699.76320095892
0.123525630752823,1699.77320095892
0.121501318387568,1699.78320095892
0.119352151780236,1699.79320095892
0.11715468426429,1699.80320095892
0.115030508036577,1699.81320095892
0.11308312830687,1699.82320095892
0.110757180255843,1699.83320095892
0.10823169842275,1699.84320095892
0.105291600415691,1699.85320095892
0.102923045055595,1699.86320095892
0.0996667005982485,1699.87320095892
0.0966956725706812,1699.88320095892
0.0940343833987462,1699.89320095892
0.0911598813222436,1699.90320095892
0.0892860652134775,1699.91320095892
0.0871202453773957,1699.92320095892
0.0850609752373701,1699.93320095892
0.0831864444384709,1699.94320095892
0.0812605802136534,1699.95320095892
0.0796373602260961,1699.96320095892
0.0775221954967608,1699.97320095892
0.0747629085832454,1699.98320095892
0.0724511281180543,1699.99320095892
0.0704609351345906,1700.00320095892
0.0686317392495962,1700.01320095892
0.0667618622681058,1700.02320095892
0.0652700723871798,1700.03320095892
0.0629952880433342,1700.04320095892
0.0604318710132013,1700.05320095892
0.0576887821787175,1700.06320095892
0.0549526972266264,1700.07320095892
0.0523213732389987,1700.08320095892
0.0498110264263191,1700.09320095892
0.0470390045428457,1700.10320095892
0.0441407869802116,1700.11320095892
0.0421823489880728,1700.12320095892
0.0421166253178691,1700.13320095892
0.0442668744729249,1700.14320095892
0.050193081425715,1700.15320095892
0.0596586744812653,1700.16320095892
0.0723195674761472,1700.17320095892
0.0868289380303271,1700.18320095892
0.102407158466263,1700.19320095892
0.117704953342205,1700.20320095892
0.132027667734601,1700.21320095892
0.144311032679191,1700.22320095892
0.154206476255459,1700.23320095892
0.161669961342206,1700.24320095892
0.166964441602359,1700.25320095892
0.170137860572113,1700.26320095892
0.17202345415174,1700.27320095892
0.172947683388255,1700.28320095892
0.173446154721536,1700.29320095892
0.17336400332342,1700.30320095892
0.173539795861685,1700.31320095892
0.173496028394625,1700.32320095892
0.173801718886502,1700.33320095892
0.174663948478313,1700.34320095892
0.176478083898045,1700.35320095892
0.178689800241503,1700.36320095892
0.181355456202711,1700.37320095892
0.183220653409023,1700.38320095892
0.184639587000419,1700.39320095892
0.185654936701868,1700.40320095892
0.18640641495049,1700.41320095892
0.187069985938577,1700.42320095892
0.18711647723577,1700.43320095892
0.186665484347032,1700.44320095892
0.185417549100414,1700.45320095892
0.183457126691953,1700.46320095892
0.181719679315387,1700.47320095892
0.180002028322569,1700.48320095892
0.179034950612081,1700.49320095892
0.17852649788105,1700.50320095892
0.178591585918136,1700.51320095892
0.178712076399562,1700.52320095892
0.178988874341789,1700.53320095892
0.179312894624525,1700.54320095892
0.179379728186155,1700.55320095892
0.179005194792536,1700.56320095892
0.178548586041658,1700.57320095892
0.177568137463393,1700.58320095892
0.176169566848116,1700.59320095892
0.174219559708125,1700.60320095892
0.172197927666331,1700.61320095892
0.170340503271254,1700.62320095892
0.168402247595661,1700.63320095892
0.166718426442027,1700.64320095892
0.164673081411655,1700.65320095892
0.16283437312233,1700.66320095892
0.160825348430683,1700.67320095892
0.158701870577745,1700.68320095892
0.156462516989141,1700.69320095892
0.153790050426552,1700.70320095892
0.151177240064769,1700.71320095892
0.148501161976328,1700.72320095892
0.145666333856274,1700.73320095892
0.142639015857136,1700.74320095892
0.140066770056405,1700.75320095892
0.137878421736235,1700.76320095892
0.135558482081274,1700.77320095892
0.133488461850178,1700.78320095892
0.131512612376292,1700.79320095892
0.129237385543625,1700.80320095892
0.126678595263199,1700.81320095892
0.123920081154786,1700.82320095892
0.121187573975502,1700.83320095892
0.118103517281882,1700.84320095892
0.115783402946084,1700.85320095892
0.113401007707093,1700.86320095892
0.111392025511098,1700.87320095892
0.109612485909077,1700.88320095892
0.107905309075659,1700.89320095892
0.106256417277974,1700.90320095892
0.104428561226791,1700.91320095892
0.102534009258099,1700.92320095892
0.100219210417838,1700.93320095892
0.0977058927044399,1700.94320095892
0.0947688349717511,1700.95320095892
0.0919251506105249,1700.96320095892
0.0894348270438721,1700.97320095892
0.0864982635925035,1700.98320095892
0.0838742080634801,1700.99320095892
0.0813064463988555,1701.00320095892
0.0787497685172677,1701.01320095892
0.0763857501286958,1701.02320095892
0.0739227008626023,1701.03320095892
0.0712293503282657,1701.04320095892
0.0688668300000265,1701.05320095892
0.0659949423271695,1701.06320095892
0.0629336699066413,1701.07320095892
0.0598631048716588,1701.08320095892
0.0570266290152686,1701.09320095892
0.0541108035083654,1701.10320095892
0.0517314533395157,1701.11320095892
0.0498734640777018,1701.12320095892
0.0476564728051029,1701.13320095892
0.0456871286770449,1701.14320095892
0.0440296382932261,1701.15320095892
0.0434806376206392,1701.16320095892
0.0450028842666433,1701.17320095892
0.0489458978895043,1701.18320095892
0.0554803312963764,1701.19320095892
0.0645754739859145,1701.20320095892
0.0756319294329414,1701.21320095892
0.0879637830706189,1701.22320095892
0.101433825810765,1701.23320095892
0.113576748087259,1701.24320095892
0.124049765629909,1701.25320095892
0.132267615387667,1701.26320095892
0.137869315921229,1701.27320095892
0.141004093014294,1701.28320095892
0.142912500615209,1701.29320095892
0.143881846022357,1701.30320095892
0.143603509377709,1701.31320095892
0.143288588467249,1701.32320095892
0.14238188797513,1701.33320095892
0.141189114355029,1701.34320095892
0.140914843280346,1701.35320095892
0.141105438713464,1701.36320095892
0.141650286762583,1701.37320095892
0.143035443551325,1701.38320095892
0.144520639447614,1701.39320095892
0.145591754191408,1701.40320095892
0.146766275769449,1701.41320095892
0.147802281298698,1701.42320095892
0.148517421444985,1701.43320095892
0.148175311164296,1701.44320095892
0.147579791362081,1701.45320095892
0.145640821648304,1701.46320095892
0.143263321584126,1701.47320095892
0.140692145507017,1701.48320095892
0.138195564815808,1701.49320095892
0.136373803981425,1701.50320095892
0.134714379032451,1701.51320095892
0.133577877310327,1701.52320095892
0.132964705399556,1701.53320095892
0.132836968703215,1701.54320095892
0.133070233241974,1701.55320095892
0.13356640660881,1701.56320095892
0.134346638265862,1701.57320095892
0.134222340304604,1701.58320095892
0.133876432930944,1701.59320095892
0.133051384710388,1701.60320095892
0.132343250928519,1701.61320095892
0.131130688466883,1701.62320095892
0.129630173410271,1701.63320095892
0.127908260537313,1701.64320095892
0.125874572381339,1701.65320095892
0.123561831030248,1701.66320095892
0.121223600992595,1701.67320095892
0.118820224887869,1701.68320095892
0.116181550477036,1701.69320095892
0.113584652816157,1701.70320095892
0.110511206850096,1701.71320095892
0.107372300070175,1701.72320095892
0.103960874538978,1701.73320095892
0.100670285639529,1701.74320095892
0.0974303756639511,1701.75320095892
0.0945399893314312,1701.76320095892
0.092171453760855,1701.77320095892
0.0897027327070794,1701.78320095892
0.0876560623835581,1701.79320095892
0.0856674253561165,1701.80320095892
0.0839025000543413,1701.81320095892
0.0822707590086157,1701.82320095892
0.0808009037880843,1701.83320095892
0.0791728280641798,1701.84320095892
0.0766447694779375,1701.85320095892
0.0741299776945278,1701.86320095892
0.0713106142544322,1701.87320095892
0.0687331425993363,1701.88320095892
0.065994405873467,1701.89320095892
0.0639695406164819,1701.90320095892
0.0619233475892305,1701.91320095892
0.0595934156017707,1701.92320095892
0.0576574480854076,1701.93320095892
0.055422455397757,1701.94320095892
0.0536579072155936,1701.95320095892
0.0513957309065698,1701.96320095892
0.0493351845798321,1701.97320095892
0.0472839201638478,1701.98320095892
0.0453064238181016,1701.99320095892
0.0430606562684088,1702.00320095892
0.0406630664360761,1702.01320095892
0.0381742115389108,1702.02320095892
0.0351654222346584,1702.03320095892
0.0317874428499623,1702.04320095892
0.0289832934811823,1702.05320095892
0.0259467196194052,1702.06320095892
0.0230114638237356,1702.07320095892
0.0205190219270768,1702.08320095892
0.018191346384255,1702.09320095892
0.0161571491060177,1702.10320095892
0.0140058074400256,1702.11320095892
0.0121957372270364,1702.12320095892
0.00951851004999787,1702.13320095892
0.00756119983092025,1702.14320095892
0.00546005164341235,1702.15320095892
0.00353184587539514,1702.16320095892
0.0012741241568142,1702.17320095892
-0.00141977362184123,1702.18320095892
-0.00414794259340231,1702.19320095892
-0.00633933041648973,1702.20320095892
-0.00715797309297768,1702.21320095892
-0.00587051528669855,1702.22320095892
-0.00180766508379345,1702.23320095892
0.00575945106016597,1702.24320095892
0.0161222053444309,1702.25320095892
0.0288847758227965,1702.26320095892
0.0429378981435213,1702.27320095892
0.0571568528070263,1702.28320095892
0.0705737885197812,1702.29320095892
0.0812505982565572,1702.30320095892
0.0899479863888738,1702.31320095892
0.0964249867931449,1702.32320095892
0.101397071728238,1702.33320095892
0.104996585166653,1702.34320095892
0.107708626182539,1702.35320095892
0.109466861051283,1702.36320095892
0.110174818553313,1702.37320095892
0.110795721123303,1702.38320095892
0.111120285489658,1702.39320095892
0.111548015603342,1702.40320095892
0.112427677683048,1702.41320095892
0.113428913285546,1702.42320095892
0.115134628486614,1702.43320095892
0.117571256441155,1702.44320095892
0.12037314919141,1702.45320095892
0.12318424854112,1702.46320095892
0.126129096138885,1702.47320095892
0.127878705797757,1702.48320095892
0.128966152316635,1702.49320095892
0.129556006801659,1702.50320095892
0.128780044342565,1702.51320095892
0.127758101854195,1702.52320095892
0.125869249625993,1702.53320095892
0.124016263127092,1702.54320095892
0.122623877397791,1702.55320095892
0.121484730090013,1702.56320095892
0.120646995082007,1702.57320095892
0.120259048907022,1702.58320095892
0.12026593201419,1702.59320095892
0.120236119028714,1702.60320095892
0.120250946024571,1702.61320095892
0.12005023892153,1702.62320095892
0.120278423395412,1702.63320095892
0.120279547694312,1702.64320095892
0.120051806207456,1702.65320095892
0.118906144970522,1702.66320095892
0.117545837899904,1702.67320095892
0.115931943329498,1702.68320095892
0.11381632787718,1702.69320095892
0.111790832183794,1702.70320095892
0.109738591363409,1702.71320095892
0.107816138619046,1702.72320095892
0.105347255848959,1702.73320095892
0.103299019155175,1702.74320095892
0.101040677535479,1702.75320095892
0.0987207836830865,1702.76320095892
0.0967677156376543,1702.77320095892
0.0947577835032338,1702.78320095892
0.0930031344651848,1702.79320095892
0.0911629669092126,1702.80320095892
0.0890674772988607,1702.81320095892
0.0868239566160681,1702.82320095892
0.0835436419029126,1702.83320095892
0.0804629157290239,1702.84320095892
0.0776738650080472,1702.85320095892
0.0748479228197006,1702.86320095892
0.0723521649530838,1702.87320095892
0.0705504290039893,1702.88320095892
0.0688313615120061,1702.89320095892
0.0665968256315661,1702.90320095892
0.0652981541291721,1702.91320095892
0.0639776514889152,1702.92320095892
0.0629554030906258,1702.93320095892
0.0617414313923415,1702.94320095892
0.060249998990837,1702.95320095892
0.0581510479600432,1702.96320095892
0.0562846865575069,1702.97320095892
0.0549681558931449,1702.98320095892
0.0531619506013957,1702.99320095892
0.0517358798060208,1703.00320095892
0.0500318779580461,1703.01320095892
0.0482402188922617,1703.02320095892
0.046124327747588,1703.03320095892
0.0438892017327802,1703.04320095892
0.0418816755460713,1703.05320095892
0.0398443311122368,1703.06320095892
0.0384146166847215,1703.07320095892
0.0368819818791579,1703.08320095892
0.0351244614760787,1703.09320095892
0.0331585874950835,1703.10320095892
0.0310219761663356,1703.11320095892
0.0287841804442288,1703.12320095892
0.0263098620738527,1703.13320095892
0.0239602331079322,1703.14320095892
0.0212544014271318,1703.15320095892
0.0188197541426996,1703.16320095892
0.0166631316320474,1703.17320095892
0.014872030292757,1703.18320095892
0.0130213388515041,1703.19320095892
0.0107151031571833,1703.20320095892
0.00871046948131017,1703.21320095892
0.00659350398148067,1703.22320095892
0.0045207914857274,1703.23320095892
0.00282303198634077,1703.24320095892
0.000940662351778796,1703.25320095892
-0.0010279099945252,1703.26320095892
-0.00290518812911983,1703.27320095892
-0.00564857838663968,1703.28320095892
-0.00801963607136477,1703.29320095892
-0.0101282641627313,1703.30320095892
-0.0113623350650471,1703.31320095892
-0.0125685729726772,1703.32320095892
-0.013916570997914,1703.33320095892
-0.0156333749843482,1703.34320095892
-0.0176345372488421,1703.35320095892
-0.0199969359215413,1703.36320095892
-0.0225127686154026,1703.37320095892
-0.0251440125837621,1703.38320095892
-0.0273913095193554,1703.39320095892
-0.0292654619996215,1703.40320095892
-0.0300533937452642,1703.41320095892
-0.0281845410321975,1703.42320095892
-0.0231134635526307,1703.43320095892
-0.0152180445836516,1703.44320095892
-0.00382963906177401,1703.45320095892
0.00956609124954394,1703.46320095892
0.0238577973962572,1703.47320095892
0.0382406080233599,1703.48320095892
0.0504126546914059,1703.49320095892
0.0610639006596507,1703.50320095892
0.0697576699667095,1703.51320095892
0.0765262760096463,1703.52320095892
0.0820513190585581,1703.53320095892
0.085806647294945,1703.54320095892
0.0882758429765204,1703.55320095892
0.0894935371608986,1703.56320095892
0.0900517706272569,1703.57320095892
0.0901211291978587,1703.58320095892
0.0898303141339439,1703.59320095892
0.089753654961043,1703.60320095892
0.090453471395665,1703.61320095892
0.0914260388746904,1703.62320095892
0.0931520900346406,1703.63320095892
0.0950197288134544,1703.64320095892
0.096349349351369,1703.65320095892
0.0980583937735302,1703.66320095892
0.0993593734645535,1703.67320095892
0.100813074289857,1703.68320095892
0.102349378399868,1703.69320095892
0.103230640780173,1703.70320095892
0.103252409505374,1703.71320095892
0.102550244333681,1703.72320095892
0.101866092421705,1703.73320095892
0.100790757965824,1703.74320095892
0.0996428298187063,1703.75320095892
0.0985633054248679,1703.76320095892
0.0973713050803413,1703.77320095892
0.0971074056844454,1703.78320095892
0.0967977637304569,1703.79320095892
0.0971118810353953,1703.80320095892
0.0971422917492663,1703.81320095892
0.0969611158310689,1703.82320095892
0.0968109495923473,1703.83320095892
0.0966287601323407,1703.84320095892
0.0965872488216567,1703.85320095892
0.0967155535483399,1703.86320095892
0.0963431671843609,1703.87320095892
0.0964574873774917,1703.88320095892
0.0959320965061137,1703.89320095892
0.0949395459627713,1703.90320095892
0.0933215561564599,1703.91320095892
0.091409305535273,1703.92320095892
0.0900086665178151,1703.93320095892
0.0879460331987955,1703.94320095892
0.0860099272990086,1703.95320095892
0.0837960274126729,1703.96320095892
0.0815484192989952,1703.97320095892
0.0800600370703288,1703.98320095892
0.0783412546438563,1703.99320095892
0.0764482197625898,1704.00320095892
0.0751466565013094,1704.01320095892
0.0734721384939685,1704.02320095892
0.0717919621078292,1704.03320095892
0.0699669324802277,1704.04320095892
0.0680058423547596,1704.05320095892
0.0659265374182993,1704.06320095892
0.0638344741201192,1704.07320095892
0.0612964461270323,1704.08320095892
0.0592952820484649,1704.09320095892
0.0572171615316594,1704.10320095892
0.0554624760015855,1704.11320095892
0.0536606854394401,1704.12320095892
0.0521661110843291,1704.13320095892
0.0505417952100738,1704.14320095892
0.0490979215237275,1704.15320095892
0.0472838183801021,1704.16320095892
0.045207686566411,1704.17320095892
0.0424678662954666,1704.18320095892
0.0396099016725862,1704.19320095892
0.0366514493241887,1704.20320095892
0.0340385147238501,1704.21320095892
0.0316016688183682,1704.22320095892
0.0296738210614281,1704.23320095892
0.0281332601767522,1704.24320095892
0.0270028164321518,1704.25320095892
0.0257429792023335,1704.26320095892
0.0240397913938191,1704.27320095892
0.0219070133973731,1704.28320095892
0.0195790701120492,1704.29320095892
0.0165035378480467,1704.30320095892
0.0136238660005021,1704.31320095892
0.0103753955637528,1704.32320095892
0.00730632778758102,1704.33320095892
0.00467323914790913,1704.34320095892
0.00208353129285751,1704.35320095892
-0.000321596183317171,1704.36320095892
-0.00291527116938931,1704.37320095892
-0.00574813568359855,1704.38320095892
-0.00783239959368906,1704.39320095892
-0.0096304080110575,1704.40320095892
-0.0113161056618293,1704.41320095892
-0.0132131511957136,1704.42320095892
-0.0159054192491409,1704.43320095892
-0.0189339150109387,1704.44320095892
-0.0219025054039315,1704.45320095892
-0.0237588498159529,1704.46320095892
-0.0239026762817517,1704.47320095892
-0.0214763828147353,1704.48320095892
-0.0166040604288881,1704.49320095892
-0.00882168550814833,1704.50320095892
0.00127186494402558,1704.51320095892
0.0134218432748232,1704.52320095892
0.0263578000801203,1704.53320095892
0.0382786736387608,1704.54320095892
0.0488929037783898,1704.55320095892
0.0575067114514549,1704.56320095892
0.0643915563315683,1704.57320095892
0.069390513806789,1704.58320095892
0.0733403593746502,1704.59320095892
0.0757118955530593,1704.60320095892
0.0764581041995288,1704.61320095892
0.0765136493682948,1704.62320095892
0.0755634330361559,1704.63320095892
0.0738669080797892,1704.64320095892
0.0720387935478463,1704.65320095892
0.0705346525286693,1704.66320095892
0.0697702225616167,1704.67320095892
0.0701703635387928,1704.68320095892
0.0713213067370794,1704.69320095892
0.0731123473749055,1704.70320095892
0.0752793057730853,1704.71320095892
0.0778808394367845,1704.72320095892
0.0800594728126282,1704.73320095892
0.0808338088254041,1704.74320095892
0.0812731488936946,1704.75320095892
0.0799364323832616,1704.76320095892
0.0779142320256466,1704.77320095892
0.0755408109767465,1704.78320095892
0.0735339158817007,1704.79320095892
0.0716809022443844,1704.80320095892
0.070110972667516,1704.81320095892
0.0686638972776574,1704.82320095892
0.0673989546913986,1704.83320095892
0.0666021956449554,1704.84320095892
0.0662216893516682,1704.85320095892
0.0660988971266285,1704.86320095892
0.0662270638375429,1704.87320095892
0.0669097541119843,1704.88320095892
0.0674927502171467,1704.89320095892
0.0677196575757694,1704.90320095892
0.0676747427358058,1704.91320095892
0.0667462289413346,1704.92320095892
0.0656787957465846,1704.93320095892
0.0639838043866535,1704.94320095892
0.0618053925500347,1704.95320095892
0.0597739288824726,1704.96320095892
0.0574419962127564,1704.97320095892
0.0555773493460254,1704.98320095892
0.0532173927116848,1704.99320095892
0.0513431016522667,1705.00320095892
0.049375932568158,1705.01320095892
0.047335071358946,1705.02320095892
0.0458311583738727,1705.03320095892
0.0443821594271511,1705.04320095892
0.042495874435942,1705.05320095892
0.0411989150239064,1705.06320095892
0.0393840867881924,1705.07320095892
0.0373429025708488,1705.08320095892
0.0355797515860408,1705.09320095892
0.0332280649345715,1705.10320095892
0.0314615174297569,1705.11320095892
0.0293235317886716,1705.12320095892
0.0280038004224351,1705.13320095892
0.0265247482231245,1705.14320095892
0.0242186667536641,1705.15320095892
0.0222387314625177,1705.16320095892
0.0202516118305479,1705.17320095892
0.0184334340304066,1705.18320095892
0.0164411256551989,1705.19320095892
0.0139672632050058,1705.20320095892
0.011449316070754,1705.21320095892
0.00838574537957809,1705.22320095892
0.00490322447824814,1705.23320095892
0.00156897206790416,1705.24320095892
-0.00132263287503736,1705.25320095892
-0.00401794564609849,1705.26320095892
-0.0064499238012684,1705.27320095892
-0.00860384566542105,1705.28320095892
-0.010469915117285,1705.29320095892
-0.0122100579151069,1705.30320095892
-0.0137219293583418,1705.31320095892
-0.0156099140571724,1705.32320095892
-0.0178131661832378,1705.33320095892
-0.0198135287410483,1705.34320095892
-0.0219751109144608,1705.35320095892
-0.0243868048833311,1705.36320095892
-0.026749862427855,1705.37320095892
-0.0293742224965134,1705.38320095892
-0.0319906404091314,1705.39320095892
-0.0347626365331464,1705.40320095892
-0.0371623412582266,1705.41320095892
-0.0401236548853845,1705.42320095892
-0.0423270178582685,1705.43320095892
-0.0447398403822821,1705.44320095892
-0.0471901359241042,1705.45320095892
-0.0497089797864275,1705.46320095892
-0.0522575234495467,1705.47320095892
-0.0549754276174704,1705.48320095892
-0.0579511225614729,1705.49320095892
-0.0606904724455429,1705.50320095892
-0.0630667043589387,1705.51320095892
-0.0648636112396928,1705.52320095892
-0.0668194774258441,1705.53320095892
-0.0679979602950236,1705.54320095892
-0.0693160117944586,1705.55320095892
-0.0705603512277043,1705.56320095892
-0.0719839160502387,1705.57320095892
-0.0735304012291991,1705.58320095892
-0.0751387774568481,1705.59320095892
-0.0769683462981121,1705.60320095892
-0.0785184396068687,1705.61320095892
-0.0799599350277607,1705.62320095892
-0.0803375465221031,1705.63320095892
-0.0784921905815461,1705.64320095892
-0.0743181786633655,1705.65320095892
-0.0669460512992334,1705.66320095892
-0.056511909137025,1705.67320095892
-0.0434169588913224,1705.68320095892
-0.0291503781260627,1705.69320095892
-0.0155083076015728,1705.70320095892
-0.00278666312035717,1705.71320095892
0.00781093118048913,1705.72320095892
0.0163040889893813,1705.73320095892
0.0225073395775342,1705.74320095892
0.0269604186989824,1705.75320095892
0.0303049866712072,1705.76320095892
0.0321433599249091,1705.77320095892
0.0334154606276601,1705.78320095892
0.0343770897077401,1705.79320095892
0.0351491001438927,1705.80320095892
0.0364417175743847,1705.81320095892
0.0383469023570695,1705.82320095892
0.0406742934238484,1705.83320095892
0.0429104830688544,1705.84320095892
0.0453287078024307,1705.85320095892
0.048237186404761,1705.86320095892
0.0517538473660539,1705.87320095892
0.0556035527012185,1705.88320095892
0.059591889624162,1705.89320095892
0.0632809942109105,1705.90320095892
0.0656568241280764,1705.91320095892
0.0673137516775618,1705.92320095892
0.0679214808437008,1705.93320095892
0.0674588975327984,1705.94320095892
0.0662369364513356,1705.95320095892
0.0646165881380105,1705.96320095892
0.062893249180077,1705.97320095892
0.0614259944597027,1705.98320095892
0.0607533104099597,1705.99320095892
0.0603402810284315,1706.00320095892
0.060531475334817,1706.01320095892
0.0609961129185427,1706.02320095892
0.0619072695781431,1706.03320095892
0.062526781566704,1706.04320095892
0.0631657882802941,1706.05320095892
0.0634176538778961,1706.06320095892
0.0634981730873869,1706.07320095892
0.0639023916032107,1706.08320095892
0.0638189524696325,1706.09320095892
0.0639262656926624,1706.10320095892
0.0637616963265394,1706.11320095892
0.0633522687756734,1706.12320095892
0.0623605239245816,1706.13320095892
0.0611672502095504,1706.14320095892
0.0598252756790386,1706.15320095892
0.0584442127246373,1706.16320095892
0.0565720089527183,1706.17320095892
0.0548148710265207,1706.18320095892
0.0527565538800118,1706.19320095892
0.0507766687778627,1706.20320095892
0.0495211478347465,1706.21320095892
0.0482133252739565,1706.22320095892
0.0466359503336374,1706.23320095892
0.045744349011787,1706.24320095892
0.0447798665340688,1706.25320095892
0.0440833786773051,1706.26320095892
0.0430290625161489,1706.27320095892
0.0416247991299494,1706.28320095892
0.0400989941108531,1706.29320095892
0.0381950239806515,1706.30320095892
0.0366454864434965,1706.31320095892
0.0347882595756459,1706.32320095892
0.0326797267215611,1706.33320095892
0.0309741753778974,1706.34320095892
0.0286933998018304,1706.35320095892
0.0264620482158725,1706.36320095892
0.0237635245517597,1706.37320095892
0.0220239670255334,1706.38320095892
0.0197889535052787,1706.39320095892
0.0180472910434214,1706.40320095892
0.016601214830619,1706.41320095892
0.0152807373897951,1706.42320095892
0.0138003765900634,1706.43320095892
0.012224751931409,1706.44320095892
0.0106303927487306,1706.45320095892
0.00906536765793105,1706.46320095892
0.00750527372564657,1706.47320095892
0.00639091956357023,1706.48320095892
0.00518749935345775,1706.49320095892
0.00323321466882735,1706.50320095892
0.00141277111476049,1706.51320095892
-0.000781748999552299,1706.52320095892
-0.00346110663125821,1706.53320095892
-0.00550765105183627,1706.54320095892
-0.00779252954083443,1706.55320095892
-0.00942884736088412,1706.56320095892
-0.0112124097623839,1706.57320095892
-0.0123067665987659,1706.58320095892
-0.0135962913011021,1706.59320095892
-0.0145299702923953,1706.60320095892
-0.0161187819614735,1706.61320095892
-0.0178936324092611,1706.62320095892
-0.0198962596953006,1706.63320095892
-0.0221975163390795,1706.64320095892
-0.0236553513722505,1706.65320095892
-0.0251233042324244,1706.66320095892
-0.0264852201921554,1706.67320095892
-0.0275342177389656,1706.68320095892
-0.0284942144130533,1706.69320095892
-0.0291397119091056,1706.70320095892
-0.0295497764243757,1706.71320095892
-0.0303651064799905,1706.72320095892
-0.0304693866649409,1706.73320095892
-0.0306973033292819,1706.74320095892
-0.0304075586558783,1706.75320095892
-0.0282880791549037,1706.76320095892
-0.0242395767880213,1706.77320095892
-0.0176616152882132,1706.78320095892
-0.00901929996548756,1706.79320095892
0.0013846935762574,1706.80320095892
0.0133988108216828,1706.81320095892
0.025699999927783,1706.82320095892
0.0378406059794297,1706.83320095892
0.047817103616271,1706.84320095892
0.0562548608020615,1706.85320095892
0.0626134283955287,1706.86320095892
0.067078237670245,1706.87320095892
0.0705851731065055,1706.88320095892
0.0728560120233934,1706.89320095892
0.0748202543539064,1706.90320095892
0.0757986632139335,1706.91320095892
0.0766488323013473,1706.92320095892
0.0767566559167629,1706.93320095892
0.0764273762858376,1706.94320095892
0.0763008850427885,1706.95320095892
0.0767272274950216,1706.96320095892
0.077737823984552,1706.97320095892
0.0795611217411597,1706.98320095892
0.0815409230168449,1706.99320095892
0.0843480944545211,1707.00320095892
0.0869650782580013,1707.01320095892
0.0891321757852648,1707.02320095892
0.0908631806165812,1707.03320095892
0.0917411414500749,1707.04320095892
0.0914121240580131,1707.05320095892
0.0905308289795189,1707.06320095892
0.0892190349778189,1707.07320095892
0.087155706814433,1707.08320095892
0.0852568329380539,1707.09320095892
0.0837992271331268,1707.10320095892
0.0830513038249908,1707.11320095892
0.0815007542842622,1707.12320095892
0.0808839400983418,1707.13320095892
0.0807420798819252,1707.14320095892
0.0805954869015508,1707.15320095892
0.0810446345444206,1707.16320095892
0.081462324295686,1707.17320095892
0.081332088934931,1707.18320095892
0.0810016638030871,1707.19320095892
0.0801407034254905,1707.20320095892
0.079369000066771,1707.21320095892
0.0787468508126429,1707.22320095892
0.0778095961064521,1707.23320095892
0.0773288489659755,1707.24320095892
0.0769614137960235,1707.25320095892
0.0766406512859451,1707.26320095892
0.0753151673823841,1707.27320095892
0.0735920263410997,1707.28320095892
0.0710365755286721,1707.29320095892
0.0681538876614246,1707.30320095892
0.0655165173854056,1707.31320095892
0.0617019248334854,1707.32320095892
0.0573715359140786,1707.33320095892
0.0513305524773239,1707.34320095892
0.0426059126274026,1707.35320095892
0.0308659278997546,1707.36320095892
0.017123129926341,1707.37320095892
0.00316909002961991,1707.38320095892
-0.010528233890295,1707.39320095892
-0.0238136382246181,1707.40320095892
-0.0375279754854602,1707.41320095892
-0.0510559836252261,1707.42320095892
-0.0638773796373058,1707.43320095892
-0.0753359082224792,1707.44320095892
-0.0852672079281969,1707.45320095892
-0.0933329475188024,1707.46320095892
-0.100134522067385,1707.47320095892
-0.10566255967023,1707.48320095892
-0.110304989726604,1707.49320095892
-0.115060670283004,1707.50320095892
-0.119556633299915,1707.51320095892
-0.123489533132147,1707.52320095892
-0.127319839391731,1707.53320095892
-0.131147581828406,1707.54320095892
-0.135030349953705,1707.55320095892
-0.138374152971081,1707.56320095892
-0.141898734983673,1707.57320095892
-0.145440931847592,1707.58320095892
-0.148614242189146,1707.59320095892
-0.151153599976744,1707.60320095892
-0.153043850812022,1707.61320095892
-0.154795404418159,1707.62320095892
-0.155446069788512,1707.63320095892
-0.155082804931756,1707.64320095892
-0.154218653619735,1707.65320095892
-0.154488946273259,1707.66320095892
-0.155293796904068,1707.67320095892
-0.157298391997208,1707.68320095892
-0.160065185408968,1707.69320095892
-0.163443553606274,1707.70320095892
-0.166650480720228,1707.71320095892
-0.169137288802231,1707.72320095892
-0.17068744227944,1707.73320095892
-0.171927742065856,1707.74320095892
-0.172327538864874,1707.75320095892
-0.172822548448633,1707.76320095892
-0.172448660169347,1707.77320095892
-0.170455263845762,1707.78320095892
-0.166230635273911,1707.79320095892
-0.159209504917595,1707.80320095892
-0.149174782262046,1707.81320095892
-0.136961652814163,1707.82320095892
-0.123500013460383,1707.83320095892
-0.11015025787466,1707.84320095892
-0.0981773978516953,1707.85320095892
-0.0881096222978986,1707.86320095892
-0.0801306099285335,1707.87320095892
-0.0742727940321394,1707.88320095892
-0.0699002445506444,1707.89320095892
-0.0669952769983353,1707.90320095892
-0.0642098319483808,1707.91320095892
-0.0617257461561306,1707.92320095892
-0.0593709280729764,1707.93320095892
-0.0565473575530033,1707.94320095892
-0.0541604808036601,1707.95320095892
-0.0513759256628138,1707.96320095892
-0.0485019975456036,1707.97320095892
-0.0443570251794111,1707.98320095892
-0.0390004951299441,1707.99320095892
-0.0325963565735711,1708.00320095892
-0.0250147559385586,1708.01320095892
-0.01693546653339,1708.02320095892
-0.00921478697327854,1708.03320095892
-0.00276065135796057,1708.04320095892
0.00263167615545164,1708.05320095892
0.00649589558883504,1708.06320095892
0.00897835724959706,1708.07320095892
0.0110065560868948,1708.08320095892
0.0116831172852893,1708.09320095892
0.0126221678198498,1708.10320095892
0.0131256077324413,1708.11320095892
0.0135291205444738,1708.12320095892
0.0143176873829788,1708.13320095892
0.014978106908787,1708.14320095892
0.0163669389793758,1708.15320095892
0.0180512121881356,1708.16320095892
0.0203488155536255,1708.17320095892
0.0227861245317792,1708.18320095892
0.0254164669000533,1708.19320095892
0.0274434044647359,1708.20320095892
0.028280793590474,1708.21320095892
0.0282731894516452,1708.22320095892
0.027561834000422,1708.23320095892
0.0261095418491446,1708.24320095892
0.0243327778831547,1708.25320095892
0.0223846960398168,1708.26320095892
0.0208631276421995,1708.27320095892
0.0191932921036309,1708.28320095892
0.0172592153448093,1708.29320095892
0.0151920408127214,1708.30320095892
0.0125720067028023,1708.31320095892
0.00950610770285578,1708.32320095892
0.00672865302909213,1708.33320095892
0.00406019630197384,1708.34320095892
0.00149415541460371,1708.35320095892
-0.000215351329088869,1708.36320095892
-0.00214218729921746,1708.37320095892
-0.00358976861436219,1708.38320095892
-0.00494439338775408,1708.39320095892
-0.00665363758144576,1708.40320095892
-0.00829520036387056,1708.41320095892
-0.00943751567828882,1708.42320095892
-0.0102497575591274,1708.43320095892
-0.0111731346398829,1708.44320095892
-0.0122371196385203,1708.45320095892
-0.0136428535590197,1708.46320095892
-0.015439045921198,1708.47320095892
-0.0174314053939558,1708.48320095892
-0.0196073907343265,1708.49320095892
-0.0215805843843201,1708.50320095892
-0.0231616618275317,1708.51320095892
-0.0241905298403469,1708.52320095892
-0.0250153088216573,1708.53320095892
-0.0259454110855538,1708.54320095892
-0.02671433117052,1708.55320095892
-0.0279910748313547,1708.56320095892
-0.0294665373392448,1708.57320095892
-0.0310412101561905,1708.58320095892
-0.0327181526399463,1708.59320095892
-0.0339573956020046,1708.60320095892
-0.035455040780443,1708.61320095892
-0.0369301306193317,1708.62320095892
-0.0386584527258069,1708.63320095892
-0.0403483098309529,1708.64320095892
-0.04194682238494,1708.65320095892
-0.0433125612158307,1708.66320095892
-0.0447478902695272,1708.67320095892
-0.0459965529887262,1708.68320095892
-0.0470445725133483,1708.69320095892
-0.0471448236586781,1708.70320095892
-0.0464367810929287,1708.71320095892
-0.0437719574812039,1708.72320095892
-0.0382940531414401,1708.73320095892
-0.0302706775188271,1708.74320095892
-0.0192341914844201,1708.75320095892
-0.00644492145702934,1708.76320095892
0.00732885590632254,1708.77320095892
0.0211858075583616,1708.78320095892
0.0347102087882782,1708.79320095892
0.0466741486352321,1708.80320095892
0.0574921598375967,1708.81320095892
0.066763912106281,1708.82320095892
0.0743894149630235,1708.83320095892
0.079799716055065,1708.84320095892
0.0836217660324706,1708.85320095892
0.0856734143305421,1708.86320095892
0.0870839623708479,1708.87320095892
0.0883661973762407,1708.88320095892
0.0892554330091496,1708.89320095892
0.0914465744478665,1708.90320095892
0.0935988800926059,1708.91320095892
0.096175815095438,1708.92320095892
0.0994803598065014,1708.93320095892
0.102758136597997,1708.94320095892
0.106557586371808,1708.95320095892
0.110026188819658,1708.96320095892
0.113172119730352,1708.97320095892
0.116275915335674,1708.98320095892
0.118740652343682,1708.99320095892
0.120042759226474,1709.00320095892
0.120343654497477,1709.01320095892
0.120069295340482,1709.02320095892
0.119257712524829,1709.03320095892
0.117975203922259,1709.04320095892
0.116779654256875,1709.05320095892
0.115586566342362,1709.06320095892
0.115101500238587,1709.07320095892
0.114609577887015,1709.08320095892
0.114691892985701,1709.09320095892
0.114755928668528,1709.10320095892
0.114704702696938,1709.11320095892
0.114930971085931,1709.12320095892
0.115068130260757,1709.13320095892
0.11542153313533,1709.14320095892
0.115539156520742,1709.15320095892
0.115458931709016,1709.16320095892
0.114935291411204,1709.17320095892
0.114104378510554,1709.18320095892
0.112995058836318,1709.19320095892
0.111390081190288,1709.20320095892
0.110069972669474,1709.21320095892
0.108691556766641,1709.22320095892
0.107699647778975,1709.23320095892
0.107668823665129,1709.24320095892
0.108173441602189,1709.25320095892
0.108765745137123,1709.26320095892
0.109352135698685,1709.27320095892
0.109714096805679,1709.28320095892
0.109454409542493,1709.29320095892
0.108820658228215,1709.30320095892
0.107724491601768,1709.31320095892
0.10589434383603,1709.32320095892
0.104291329718143,1709.33320095892
0.102933450430267,1709.34320095892
0.101620385601269,1709.35320095892
0.101314476890171,1709.36320095892
0.101203127635424,1709.37320095892
0.100921598254301,1709.38320095892
0.100457056723662,1709.39320095892
0.0989784363757233,1709.40320095892
0.0965518077614428,1709.41320095892
0.0937951272351933,1709.42320095892
0.0908121631935474,1709.43320095892
0.087794161336923,1709.44320095892
0.0848937906019307,1709.45320095892
0.0821284682269887,1709.46320095892
0.0790879409161705,1709.47320095892
0.0765100729710115,1709.48320095892
0.0739305089608043,1709.49320095892
0.0712243176637246,1709.50320095892
0.0690041996791993,1709.51320095892
0.0668907161025638,1709.52320095892
0.0655743902811367,1709.53320095892
0.0638781214110003,1709.54320095892
0.0622972966640677,1709.55320095892
0.0606852491916275,1709.56320095892
0.05906311650498,1709.57320095892
0.057060232876842,1709.58320095892
0.0555446241757072,1709.59320095892
0.0549124423826153,1709.60320095892
0.0555536754086521,1709.61320095892
0.0584959095984423,1709.62320095892
0.0646290931513481,1709.63320095892
0.0741277347325112,1709.64320095892
0.0864984384497086,1709.65320095892
0.100775686605182,1709.66320095892
0.1152332230169,1709.67320095892
0.128982014664089,1709.68320095892
0.140926107581259,1709.69320095892
0.150182554317457,1709.70320095892
0.15740130979432,1709.71320095892
0.16303749291385,1709.72320095892
0.167374760773839,1709.73320095892
0.170847306507375,1709.74320095892
0.173781242054797,1709.75320095892
0.175793912082055,1709.76320095892
0.177745023309966,1709.77320095892
0.179155259945915,1709.78320095892
0.181258142214916,1709.79320095892
0.183747137123069,1709.80320095892
0.18660676665833,1709.81320095892
0.189469090118711,1709.82320095892
0.193102859876855,1709.83320095892
0.197380871350634,1709.84320095892
0.201813328296745,1709.85320095892
0.205730603391022,1709.86320095892
0.209348453857981,1709.87320095892
0.212140370904855,1709.88320095892
0.213414665686176,1709.89320095892
0.213332219511768,1709.90320095892
0.212177862391506,1709.91320095892
0.210322263543929,1709.92320095892
0.207675709721464,1709.93320095892
0.205511959752688,1709.94320095892
0.203241463096938,1709.95320095892
0.201451209154083,1709.96320095892
0.200539831421915,1709.97320095892
0.200072880468619,1709.98320095892
0.200416406431573,1709.99320095892
0.20094884087896,1710.00320095892
0.201217163386688,1710.01320095892
0.201148574315212,1710.02320095892
0.20085692862002,1710.03320095892
0.200347942856914,1710.04320095892
0.199635767111677,1710.05320095892
0.199086242039437,1710.06320095892
0.197937430518578,1710.07320095892
0.19654385249766,1710.08320095892
0.194830261543523,1710.09320095892
0.192847077900301,1710.10320095892
0.190871402487959,1710.11320095892
0.188224518245719,1710.12320095892
0.18516153021686,1710.13320095892
0.182126274625723,1710.14320095892
0.178996574328896,1710.15320095892
0.17561978174947,1710.16320095892
0.17230064101555,1710.17320095892
0.168833170641702,1710.18320095892
0.166138951768511,1710.19320095892
0.163117998026861,1710.20320095892
0.160137462342235,1710.21320095892
0.156956368807696,1710.22320095892
0.153809011887233,1710.23320095892
0.151039441973861,1710.24320095892
0.148216143567806,1710.25320095892
0.145685640784685,1710.26320095892
0.143429523307041,1710.27320095892
0.141563670133282,1710.28320095892
0.13948178507415,1710.29320095892
0.13740765551294,1710.30320095892
0.13494738859391,1710.31320095892
0.132251879514764,1710.32320095892
0.129209781898856,1710.33320095892
0.125988406701211,1710.34320095892
0.122767014695292,1710.35320095892
0.120177953308591,1710.36320095892
0.117697058756337,1710.37320095892
0.115534899132691,1710.38320095892
0.113637338310941,1710.39320095892
0.111072152379985,1710.40320095892
0.108833018601111,1710.41320095892
0.106376341426903,1710.42320095892
0.10440750322893,1710.43320095892
0.102716612231852,1710.44320095892
0.101195090299997,1710.45320095892
0.0998871760845736,1710.46320095892
0.0983822026458038,1710.47320095892
0.0966331296036089,1710.48320095892
0.0941768825739325,1710.49320095892
0.0924095507293381,1710.50320095892
0.0900491013443432,1710.51320095892
0.0876442330371665,1710.52320095892
0.08487933842359,1710.53320095892
0.0820492488143919,1710.54320095892
0.0799285881659734,1710.55320095892
0.0789048181826593,1710.56320095892
0.0795676509515234,1710.57320095892
0.0830619767191009,1710.58320095892
0.0902218525533,1710.59320095892
0.101058252147231,1710.60320095892
0.114793741109221,1710.61320095892
0.130213459087183,1710.62320095892
0.145717344513164,1710.63320095892
0.160309881170897,1710.64320095892
0.172485998568604,1710.65320095892
0.18196118367915,1710.66320095892
0.189232616801387,1710.67320095892
0.1942222883834,1710.68320095892
0.19778782225408,1710.69320095892
0.199435793467957,1710.70320095892
0.201238847018015,1710.71320095892
0.20257696070381,1710.72320095892
0.20446679185001,1710.73320095892
0.206107379580922,1710.74320095892
0.207893440235647,1710.75320095892
0.209867377009229,1710.76320095892
0.2119702648221,1710.77320095892
0.214611354777404,1710.78320095892
0.217057959946631,1710.79320095892
0.219441443409114,1710.80320095892
0.221331181915573,1710.81320095892
0.222927915469338,1710.82320095892
0.224613671672713,1710.83320095892
0.225490845479224,1710.84320095892
0.225039704242615,1710.85320095892
0.223724891823943,1710.86320095892
0.221695677402333,1710.87320095892
0.219506487510097,1710.88320095892
0.21691700671922,1710.89320095892
0.214980395421101,1710.90320095892
0.21334589009474,1710.91320095892
0.212363722532442,1710.92320095892
0.211137332874226,1710.93320095892
0.209712780836556,1710.94320095892
0.207630784359183,1710.95320095892
0.205401351663195,1710.96320095892
0.203015893625602,1710.97320095892
0.201563177875049,1710.98320095892
0.20035666165139,1710.99320095892
0.199312688060945,1711.00320095892
0.198051603232358,1711.01320095892
0.195893247962714,1711.02320095892
0.193088094204475,1711.03320095892
0.190175933138541,1711.04320095892
0.187278337158558,1711.05320095892
0.184200789073937,1711.06320095892
0.180612051528037,1711.07320095892
0.176155298619474,1711.08320095892
0.172157558941335,1711.09320095892
0.167713992564725,1711.10320095892
0.163910211979742,1711.11320095892
0.160228003469404,1711.12320095892
0.157159920115786,1711.13320095892
0.154281516948519,1711.14320095892
0.151974905411125,1711.15320095892
0.149693772161119,1711.16320095892
0.146952779624694,1711.17320095892
0.143397112363393,1711.18320095892
0.138856444698109,1711.19320095892
0.134315033860165,1711.20320095892
0.129884627470285,1711.21320095892
0.124621070550513,1711.22320095892
0.119019211234144,1711.23320095892
0.112690472751689,1711.24320095892
0.107002453361725,1711.25320095892
0.101323424892105,1711.26320095892
0.0957355644311438,1711.27320095892
0.0906077543857097,1711.28320095892
0.0850915316598322,1711.29320095892
0.080360374468282,1711.30320095892
0.0757081834926859,1711.31320095892
0.0711986915338963,1711.32320095892
0.0666431261621017,1711.33320095892
0.0620586419345837,1711.34320095892
0.0572776796093019,1711.35320095892
0.0528796498698678,1711.36320095892
0.0491129485956858,1711.37320095892
0.0453871344639103,1711.38320095892
0.042640845105631,1711.39320095892
0.0399559714074513,1711.40320095892
0.0380050202389317,1711.41320095892
0.0373060079326769,1711.42320095892
0.0380689247054912,1711.43320095892
0.0401234224638224,1711.44320095892
0.0443902799974121,1711.45320095892
0.0521553251595422,1711.46320095892
0.0633397783799633,1711.47320095892
0.0768141333368462,1711.48320095892
0.0911967370125121,1711.49320095892
0.105703247653926,1711.50320095892
0.11919452058841,1711.51320095892
0.130813056776327,1711.52320095892
0.140710202441747,1711.53320095892
0.14795363755965,1711.54320095892
0.152814694654293,1711.55320095892
0.156209233454225,1711.56320095892
0.157765086656492,1711.57320095892
0.158236274867395,1711.58320095892
0.159101466747469,1711.59320095892
0.160162706091904,1711.60320095892
0.161357701995305,1711.61320095892
0.162083601627671,1711.62320095892
0.162770531731441,1711.63320095892
0.163605885054604,1711.64320095892
0.16502033467222,1711.65320095892
0.16659044186554,1711.66320095892
0.16765132599657,1711.67320095892
0.168602539661236,1711.68320095892
0.168665434362866,1711.69320095892
0.16785776354603,1711.70320095892
0.166251666254201,1711.71320095892
0.164012949982229,1711.72320095892
0.161319804931965,1711.73320095892
0.158171533238722,1711.74320095892
0.155051431099004,1711.75320095892
0.152069198777132,1711.76320095892
0.149434686840624,1711.77320095892
0.14782256046965,1711.78320095892
0.146689995991004,1711.79320095892
0.146208119030522,1711.80320095892
0.145779644778074,1711.81320095892
0.145119768434645,1711.82320095892
0.144743389236241,1711.83320095892
0.144065328177602,1711.84320095892
0.143335018171406,1711.85320095892
0.142177208889302,1711.86320095892
0.140566753529596,1711.87320095892
0.138977376975639,1711.88320095892
0.137238384802037,1711.89320095892
0.135377200102099,1711.90320095892
0.133083617215378,1711.91320095892
0.130740044996947,1711.92320095892
0.127762716263661,1711.93320095892
0.124324250036689,1711.94320095892
0.120651104791994,1711.95320095892
0.116712471766503,1711.96320095892
0.112932837644516,1711.97320095892
0.109513262618289,1711.98320095892
0.105965782974976,1711.99320095892
0.102412307607766,1712.00320095892
0.099219792498719,1712.01320095892
0.0954195201664987,1712.02320095892
0.0920569432700903,1712.03320095892
0.0887937455802846,1712.04320095892
0.0857099900746712,1712.05320095892
0.0826299972873343,1712.06320095892
0.0795654873866141,1712.07320095892
0.0766909090637587,1712.08320095892
0.0739705044208143,1712.09320095892
0.0713828987634424,1712.10320095892
0.0686725142935535,1712.11320095892
0.0654275758527523,1712.12320095892
0.0621710851634668,1712.13320095892
0.0593340790578804,1712.14320095892
0.056219162207799,1712.15320095892
0.053944467724936,1712.16320095892
0.051685282806603,1712.17320095892
0.0493323985578262,1712.18320095892
0.046839355094755,1712.19320095892
0.0437540724072557,1712.20320095892
0.0408713781713038,1712.21320095892
0.0379163645254709,1712.22320095892
0.0345097208318864,1712.23320095892
0.0315326826819533,1712.24320095892
0.0291873575292427,1712.25320095892
0.0267481192385244,1712.26320095892
0.0250927749623069,1712.27320095892
0.0249106629543205,1712.28320095892
0.0269737597166484,1712.29320095892
0.0321494881932195,1712.30320095892
0.0414258567620281,1712.31320095892
0.0532115580986255,1712.32320095892
0.0668697996931202,1712.33320095892
0.0809997007200088,1712.34320095892
0.0937898272085699,1712.35320095892
0.105043701182824,1712.36320095892
0.115081809695018,1712.37320095892
0.122892122356681,1712.38320095892
0.128739332498068,1712.39320095892
0.133343666958338,1712.40320095892
0.137116737349503,1712.41320095892
0.139903300934254,1712.42320095892
0.142266394207443,1712.43320095892
0.144166943533488,1712.44320095892
0.146262551412464,1712.45320095892
0.148713078645212,1712.46320095892
0.151199872492739,1712.47320095892
0.154133262836177,1712.48320095892
0.157479104165289,1712.49320095892
0.16133767048082,1712.50320095892
0.165295806667245,1712.51320095892
0.169077875992494,1712.52320095892
0.172094251528733,1712.53320095892
0.173832954386525,1712.54320095892
0.17484734306297,1712.55320095892
0.174916549856895,1712.56320095892
0.174320573643718,1712.57320095892
0.173067982786564,1712.58320095892
0.171644955397435,1712.59320095892
0.17024326715303,1712.60320095892
0.168993876686884,1712.61320095892
0.168406377377836,1712.62320095892
0.1677981355563,1712.63320095892
0.167422996338541,1712.64320095892
0.167156888158513,1712.65320095892
0.167042160056965,1712.66320095892
0.167093162077047,1712.67320095892
0.167226854119108,1712.68320095892
0.167115728768083,1712.69320095892
0.166878562883541,1712.70320095892
0.16637681339279,1712.71320095892
0.16542525847385,1712.72320095892
0.164104719423716,1712.73320095892
0.16204816775531,1712.74320095892
0.159560082526779,1712.75320095892
0.157565775821643,1712.76320095892
0.15559072197263,1712.77320095892
0.153456062033995,1712.78320095892
0.151538889127042,1712.79320095892
0.149243915731214,1712.80320095892
0.147224013838602,1712.81320095892
0.144643431030586,1712.82320095892
0.141881743846873,1712.83320095892
0.138753030152818,1712.84320095892
0.135645649093829,1712.85320095892
0.132667517324034,1712.86320095892
0.1299782955693,1712.87320095892
0.126991040081699,1712.88320095892
0.124263733739002,1712.89320095892
0.121339311684129,1712.90320095892
0.118244177875263,1712.91320095892
0.115017236090847,1712.92320095892
0.111932753155487,1712.93320095892
0.109208886127674,1712.94320095892
0.106366867849471,1712.95320095892
0.103148058757574,1712.96320095892
0.0995673254499013,1712.97320095892
0.0958601870073924,1712.98320095892
0.092202141660014,1712.99320095892
0.0883461831912986,1713.00320095892
0.084460994663133,1713.01320095892
0.0813006761000599,1713.02320095892
0.0783680022066762,1713.03320095892
0.0756060616558753,1713.04320095892
0.0729803313326619,1713.05320095892
0.0702306637455482,1713.06320095892
0.0673029531136171,1713.07320095892
0.0643327760455044,1713.08320095892
0.0612955502505043,1713.09320095892
0.0582254770193824,1713.10320095892
0.0547503496356367,1713.11320095892
0.0517214585053515,1713.12320095892
0.0486108729001929,1713.13320095892
0.0456014126038464,1713.14320095892
0.0432019359001583,1713.15320095892
0.0408521822180094,1713.16320095892
0.0384803770780786,1713.17320095892
0.0362028600844323,1713.18320095892
0.033862252656315,1713.19320095892
0.0316784554041308,1713.20320095892
0.0289031449655516,1713.21320095892
0.0259440169078134,1713.22320095892
0.0227191522663817,1713.23320095892
0.01983631647078,1713.24320095892
0.016868621583886,1713.25320095892
0.0143592172188436,1713.26320095892
0.0122559587660926,1713.27320095892
0.0104614968982195,1713.28320095892
0.00856008458496077,1713.29320095892
0.00593928907409781,1713.30320095892
0.00332759170558492,1713.31320095892
0.000147678418029865,1713.32320095892
-0.00233300048338794,1713.33320095892
-0.0048745886770808,1713.34320095892
-0.00685421567232352,1713.35320095892
-0.0085648732465169,1713.36320095892
-0.010212754011434,1713.37320095892
-0.0120768728964049,1713.38320095892
-0.0138902031233959,1713.39320095892
-0.0154150889891782,1713.40320095892
-0.0172817484831846,1713.41320095892
-0.0187556219112176,1713.42320095892
-0.0203192382481075,1713.43320095892
-0.021908167527024,1713.44320095892
-0.023664693312756,1713.45320095892
-0.0258794414281009,1713.46320095892
-0.0281256422073899,1713.47320095892
-0.0304562501188611,1713.48320095892
-0.0332004335083204,1713.49320095892
-0.0357860287226367,1713.50320095892
-0.0387363455264839,1713.51320095892
-0.0412041100018349,1713.52320095892
-0.0435419044177728,1713.53320095892
-0.0450274507045685,1713.54320095892
-0.0454834255575862,1713.55320095892
-0.0442154398230923,1713.56320095892
-0.0405443652108621,1713.57320095892
-0.0339431905182892,1713.58320095892
