PPG,time
0.0561933431397211,1093.5494567476
0.100682334810749,1093.5594567476
0.073588971732312,1093.5694567476
0.0679635332223917,1093.5794567476
0.0498326329011453,1093.5894567476
0.0391484198873123,1093.5994567476
0.0237919783397542,1093.6094567476
0.0117318908050651,1093.6194567476
-0.00219101362418536,1093.6294567476
-0.0155806101345886,1093.6394567476
-0.0291510492009903,1093.6494567476
-0.0421208262128031,1093.6594567476
-0.055067235339642,1093.6694567476
-0.0668514086029642,1093.6794567476
-0.0780283596674175,1093.6894567476
-0.0886110703554279,1093.6994567476
-0.0987094608741666,1093.7094567476
-0.109520434112304,1093.7194567476
-0.120254129394777,1093.7294567476
-0.131265488178494,1093.7394567476
-0.143177582601054,1093.7494567476
-0.154629228449142,1093.7594567476
-0.165691962056609,1093.7694567476
-0.177201110798025,1093.7794567476
-0.188384617387477,1093.7894567476
-0.199111851589555,1093.7994567476
-0.20912922772085,1093.8094567476
-0.218218880016607,1093.8194567476
-0.227033041320883,1093.8294567476
-0.236271841657924,1093.8394567476
-0.246054213770943,1093.8494567476
-0.255713110531349,1093.8594567476
-0.26583063407968,1093.8694567476
-0.276098986411126,1093.8794567476
-0.285805758120943,1093.8894567476
-0.295437019851023,1093.8994567476
-0.304477072461299,1093.9094567476
-0.311125414831779,1093.9194567476
-0.313651322125053,1093.9294567476
-0.310202573275047,1093.9394567476
-0.296874020012398,1093.9494567476
-0.271637631165557,1093.9594567476
-0.231742654795187,1093.9694567476
-0.176575381478885,1093.9794567476
-0.109380433404226,1093.9894567476
-0.0344880437123074,1093.9994567476
0.0424829007064324,1094.0094567476
0.115595608780499,1094.0194567476
0.181614921064898,1094.0294567476
0.237189705691455,1094.0394567476
0.280971190023186,1094.0494567476
0.31330942691125,1094.0594567476
0.33503184196661,1094.0694567476
0.348124126530372,1094.0794567476
0.35444256084856,1094.0894567476
0.355992820804319,1094.0994567476
0.354289855800303,1094.1094567476
0.349988832253524,1094.1194567476
0.344479920757898,1094.1294567476
0.338488614852999,1094.1394567476
0.332521456681476,1094.1494567476
0.326697742386141,1094.1594567476
0.320124682413026,1094.1694567476
0.312821715024438,1094.1794567476
0.304019554809396,1094.1894567476
0.293164021865804,1094.1994567476
0.279984710225292,1094.2094567476
0.264807085480829,1094.2194567476
0.24875666721315,1094.2294567476
0.232359266984158,1094.2394567476
0.216612853525815,1094.2494567476
0.202620856639584,1094.2594567476
0.190880673935527,1094.2694567476
0.181938972114034,1094.2794567476
0.175581896405229,1094.2894567476
0.171411241303605,1094.2994567476
0.168665284887252,1094.3094567476
0.167585894968147,1094.3194567476
0.16777636049655,1094.3294567476
0.167801225916061,1094.3394567476
0.167763811416588,1094.3494567476
0.166078408878285,1094.3594567476
0.16270472637113,1094.3694567476
0.157492111925552,1094.3794567476
0.1507217098625,1094.3894567476
0.142719617989793,1094.3994567476
0.133794032405833,1094.4094567476
0.124551237281455,1094.4194567476
0.1141650314712,1094.4294567476
0.102333724108239,1094.4394567476
0.0892325887947801,1094.4494567476
0.0759811703628091,1094.4594567476
0.0627212108879317,1094.4694567476
0.0500207594411393,1094.4794567476
0.0375967290103384,1094.4894567476
0.0253105640317923,1094.4994567476
0.0130853095404375,1094.5094567476
0.000698352219945282,1094.5194567476
-0.01212938470644,1094.5294567476
-0.02469403701236,1094.5394567476
-0.0371877237553477,1094.5494567476
-0.0487219008939332,1094.5594567476
-0.0596776553529133,1094.5694567476
-0.0703059968875416,1094.5794567476
-0.080589319595813,1094.5894567476
-0.0908173887323,1094.5994567476
-0.100864899131853,1094.6094567476
-0.110048772454071,1094.6194567476
-0.119413980922561,1094.6294567476
-0.12867698426857,1094.6394567476
-0.138356426521207,1094.6494567476
-0.147908216730006,1094.6594567476
-0.15728394437165,1094.6694567476
-0.16666325044734,1094.6794567476
-0.175789538255076,1094.6894567476
-0.185079294939571,1094.6994567476
-0.194525822250124,1094.7094567476
-0.203940870489353,1094.7194567476
-0.213096289833322,1094.7294567476
-0.22248890311385,1094.7394567476
-0.23197802364109,1094.7494567476
-0.241178633484309,1094.7594567476
-0.25032240455997,1094.7694567476
-0.257450757344043,1094.7794567476
-0.261390507541879,1094.7894567476
-0.259080962503055,1094.7994567476
-0.247133508869917,1094.8094567476
-0.222811163593471,1094.8194567476
-0.184807270596352,1094.8294567476
-0.133018593758521,1094.8394567476
-0.069258874140572,1094.8494567476
0.00148159762424959,1094.8594567476
0.0743269483499946,1094.8694567476
0.144592730898409,1094.8794567476
0.208459419568587,1094.8894567476
0.262402455153596,1094.8994567476
0.305180499966038,1094.9094567476
0.336213660183463,1094.9194567476
0.356592284879519,1094.9294567476
0.368703308512271,1094.9394567476
0.374330498101211,1094.9494567476
0.374796212954796,1094.9594567476
0.372890370564702,1094.9694567476
0.36920934385923,1094.9794567476
0.364909458281137,1094.9894567476
0.360235168332001,1094.9994567476
0.355516743904935,1095.0094567476
0.351077914829916,1095.0194567476
0.346452387343334,1095.0294567476
0.340453593868525,1095.0394567476
0.332808517670243,1095.0494567476
0.323558425740888,1095.0594567476
0.311965883733795,1095.0694567476
0.298182623205929,1095.0794567476
0.283056421108323,1095.0894567476
0.266774384868134,1095.0994567476
0.250895397686706,1095.1094567476
0.236244579278882,1095.1194567476
0.222629233953774,1095.1294567476
0.211770529756591,1095.1394567476
0.203173986710051,1095.1494567476
0.197091770819836,1095.1594567476
0.192972738122317,1095.1694567476
0.190065326680928,1095.1794567476
0.188119496607171,1095.1894567476
0.187078140738308,1095.1994567476
0.185118105045916,1095.2094567476
0.182580829287971,1095.2194567476
0.178474463018807,1095.2294567476
0.172841376134031,1095.2394567476
0.16578596381626,1095.2494567476
0.157140317256826,1095.2594567476
0.147248993615489,1095.2694567476
0.136294835091335,1095.2794567476
0.124393499668949,1095.2894567476
0.111803573586123,1095.2994567476
0.0990605351572573,1095.3094567476
0.0859650394397419,1095.3194567476
0.0723847840286901,1095.3294567476
0.0587395668374379,1095.3394567476
0.0448899333444214,1095.3494567476
0.0317307876443749,1095.3594567476
0.0194295949454358,1095.3694567476
0.00755531296120651,1095.3794567476
-0.00418503085312053,1095.3894567476
-0.015908268804437,1095.3994567476
-0.0275822872551552,1095.4094567476
-0.0387181471378055,1095.4194567476
-0.0499150389860034,1095.4294567476
-0.0610065887167514,1095.4394567476
-0.0723326819142274,1095.4494567476
-0.0832012938275796,1095.4594567476
-0.0940809242066648,1095.4694567476
-0.105045858752505,1095.4794567476
-0.116065467492054,1095.4894567476
-0.127651327179746,1095.4994567476
-0.139876632891541,1095.5094567476
-0.150997517861388,1095.5194567476
-0.160796504039552,1095.5294567476
-0.169852149049082,1095.5394567476
-0.178254951511142,1095.5494567476
-0.187391980808012,1095.5594567476
-0.196342026674348,1095.5694567476
-0.205558730264731,1095.5794567476
-0.214549155325488,1095.5894567476
-0.22404148756329,1095.5994567476
-0.233582215191852,1095.6094567476
-0.243768973989612,1095.6194567476
-0.253860819849969,1095.6294567476
-0.262360245572651,1095.6394567476
-0.268202405741262,1095.6494567476
-0.269247098101383,1095.6594567476
-0.26241509809501,1095.6694567476
-0.244648117888524,1095.6794567476
-0.214503881372251,1095.6894567476
-0.170883204292708,1095.6994567476
-0.115612227935511,1095.7094567476
-0.051533915924953,1095.7194567476
0.016353749449903,1095.7294567476
0.0824183520456529,1095.7394567476
0.143307664820428,1095.7494567476
0.19669064135883,1095.7594567476
0.240145619746355,1095.7694567476
0.273360322013765,1095.7794567476
0.297456212067646,1095.7894567476
0.31370888512346,1095.7994567476
0.32378055215962,1095.8094567476
0.329786402851784,1095.8194567476
0.333281734392499,1095.8294567476
0.335399865795073,1095.8394567476
0.336828346839094,1095.8494567476
0.337554198233003,1095.8594567476
0.338581517305461,1095.8694567476
0.338861235953014,1095.8794567476
0.338848951966865,1095.8894567476
0.338311790287304,1095.8994567476
0.336341738019741,1095.9094567476
0.332541983927581,1095.9194567476
0.326133207122103,1095.9294567476
0.316735833017976,1095.9394567476
0.303991438349724,1095.9494567476
0.289490129541752,1095.9594567476
0.274176053916813,1095.9694567476
0.258856058905297,1095.9794567476
0.245506134230187,1095.9894567476
0.233254047493195,1095.9994567476
0.22297908400142,1096.0094567476
0.214642743916666,1096.0194567476
0.207423200907595,1096.0294567476
0.201599461951756,1096.0394567476
0.19644058714296,1096.0494567476
0.191766140926067,1096.0594567476
0.187403814362728,1096.0694567476
0.183274607632792,1096.0794567476
0.178834678721802,1096.0894567476
0.173808135666082,1096.0994567476
0.168116191548035,1096.1094567476
0.161201187794257,1096.1194567476
0.152702442557875,1096.1294567476
0.142986086689126,1096.1394567476
0.132542026630807,1096.1494567476
0.12144074231709,1096.1594567476
0.110116434339424,1096.1694567476
0.0987006978444789,1096.1794567476
0.087439032075229,1096.1894567476
0.0758782511271303,1096.1994567476
0.063943306261423,1096.2094567476
0.051717511847343,1096.2194567476
0.0391870921719841,1096.2294567476
0.0267693099421479,1096.2394567476
0.014621721281328,1096.2494567476
0.00203952763973718,1096.2594567476
-0.0097448376631733,1096.2694567476
-0.021476594981466,1096.2794567476
-0.0332040066487966,1096.2894567476
-0.044659715354503,1096.2994567476
-0.0554452447378367,1096.3094567476
-0.0658416358735501,1096.3194567476
-0.0756473857537443,1096.3294567476
-0.0851110622036487,1096.3394567476
-0.0946352308808165,1096.3494567476
-0.10371830796543,1096.3594567476
-0.112867874094765,1096.3694567476
-0.122273933800733,1096.3794567476
-0.131617850189868,1096.3894567476
-0.141504082528355,1096.3994567476
-0.150836144908678,1096.4094567476
-0.159423695180979,1096.4194567476
-0.167301600023313,1096.4294567476
-0.175221427945255,1096.4394567476
-0.183889612372252,1096.4494567476
-0.193349128031458,1096.4594567476
-0.203019097860507,1096.4694567476
-0.213450903894264,1096.4794567476
-0.224042193205543,1096.4894567476
-0.234965142762048,1096.4994567476
-0.24647057399457,1096.5094567476
-0.257755511431819,1096.5194567476
-0.269082458152447,1096.5294567476
-0.279632560499495,1096.5394567476
-0.288686070328329,1096.5494567476
-0.294386176240941,1096.5594567476
-0.294390247393782,1096.5694567476
-0.286917276863166,1096.5794567476
-0.268987126844559,1096.5894567476
-0.239032703242769,1096.5994567476
-0.197577008400537,1096.6094567476
-0.146985851654878,1096.6194567476
-0.0893954448161709,1096.6294567476
-0.0295125775214537,1096.6394567476
0.0285608128455343,1096.6494567476
0.0820345987616403,1096.6594567476
0.128176422268707,1096.6694567476
0.166902073206198,1096.6794567476
0.197038927656943,1096.6894567476
0.219048142169889,1096.6994567476
0.234322150742322,1096.7094567476
0.2448927127635,1096.7194567476
0.251855315383605,1096.7294567476
0.256755849963357,1096.7394567476
0.260590947818864,1096.7494567476
0.263660775568765,1096.7594567476
0.267040191846206,1096.7694567476
0.270494014029911,1096.7794567476
0.273813573776246,1096.7894567476
0.276825197816181,1096.7994567476
0.278620445940171,1096.8094567476
0.279121951108597,1096.8194567476
0.277677518341158,1096.8294567476
0.273184925463005,1096.8394567476
0.266192582771938,1096.8494567476
0.256754730693582,1096.8594567476
0.245176444473089,1096.8694567476
0.231985167273876,1096.8794567476
0.218898916060906,1096.8894567476
0.206838375853368,1096.8994567476
0.1953269422434,1096.9094567476
0.185471871997242,1096.9194567476
0.177164601935582,1096.9294567476
0.169733671833267,1096.9394567476
0.163623948101249,1096.9494567476
0.157944031304637,1096.9594567476
0.153247240597358,1096.9694567476
0.149014189557771,1096.9794567476
0.145094182205431,1096.9894567476
0.141199208257325,1096.9994567476
0.137233151681389,1097.0094567476
0.13245639760537,1097.0194567476
0.126106912200469,1097.0294567476
0.118407509662795,1097.0394567476
0.109878946917037,1097.0494567476
0.10031369409645,1097.0594567476
0.0907349306565515,1097.0694567476
0.0808416103381052,1097.0794567476
0.0708144411317351,1097.0894567476
0.0599760715743245,1097.0994567476
0.0490258942539513,1097.1094567476
0.0379887718839021,1097.1194567476
0.0261384417093022,1097.1294567476
0.0146226390050375,1097.1394567476
0.00333435417568457,1097.1494567476
-0.0081242665199249,1097.1594567476
-0.0201670370692727,1097.1694567476
-0.0323030585268653,1097.1794567476
-0.0439755328501616,1097.1894567476
-0.0549223449586764,1097.1994567476
-0.064791047982659,1097.2094567476
-0.0741927559347937,1097.2194567476
-0.0837227728152998,1097.2294567476
-0.0932988246550961,1097.2394567476
-0.102762013871053,1097.2494567476
-0.111859323630541,1097.2594567476
-0.121068048508174,1097.2694567476
-0.130696490136042,1097.2794567476
-0.139927554055484,1097.2894567476
-0.150081094576083,1097.2994567476
-0.160787426281797,1097.3094567476
-0.171771343869376,1097.3194567476
-0.182354182719152,1097.3294567476
-0.191706220633862,1097.3394567476
-0.200008397661393,1097.3494567476
-0.207795630082877,1097.3594567476
-0.215888547411604,1097.3694567476
-0.224095680874237,1097.3794567476
-0.233220788200395,1097.3894567476
-0.242890623880816,1097.3994567476
-0.252581453265994,1097.4094567476
-0.262164115859297,1097.4194567476
-0.271465498075691,1097.4294567476
-0.280755003491584,1097.4394567476
-0.290114806952508,1097.4494567476
-0.299606161477102,1097.4594567476
-0.308932227552434,1097.4694567476
-0.317718077938804,1097.4794567476
-0.325909356534559,1097.4894567476
-0.331858564617046,1097.4994567476
-0.333650779460311,1097.5094567476
-0.328870731588148,1097.5194567476
-0.315981882602935,1097.5294567476
-0.293581730575697,1097.5394567476
-0.260684307605298,1097.5494567476
-0.218362408964126,1097.5594567476
-0.16978408800291,1097.5694567476
-0.117391336770551,1097.5794567476
-0.0652430728675023,1097.5894567476
-0.015951054417905,1097.5994567476
0.0282559546379784,1097.6094567476
0.0659854000396711,1097.6194567476
0.0960271858932652,1097.6294567476
0.118437458360927,1097.6394567476
0.134380200687592,1097.6494567476
0.144350546668134,1097.6594567476
0.151676448126304,1097.6694567476
0.157830758066075,1097.6794567476
0.163151587915611,1097.6894567476
0.167686867801352,1097.6994567476
0.17193304851006,1097.7094567476
0.175270806281213,1097.7194567476
0.177901960358901,1097.7294567476
0.18023606841259,1097.7394567476
0.182402934540812,1097.7494567476
0.183482322450678,1097.7594567476
0.183704828209443,1097.7694567476
0.181997805996958,1097.7794567476
0.177275453094527,1097.7894567476
0.170655444122274,1097.7994567476
0.162534616704127,1097.8094567476
0.153430243610113,1097.8194567476
0.144775526733942,1097.8294567476
0.136570489202664,1097.8394567476
0.128953659775782,1097.8494567476
0.122389434286512,1097.8594567476
0.116721064090747,1097.8694567476
0.112449789732891,1097.8794567476
0.110006267434408,1097.8894567476
0.109292391236959,1097.8994567476
0.108703587731355,1097.9094567476
0.108279731168968,1097.9194567476
0.107063469071932,1097.9294567476
0.104665749034133,1097.9394567476
0.101042026407014,1097.9494567476
0.0965781396891403,1097.9594567476
0.0917461305996978,1097.9694567476
0.0865649442980767,1097.9794567476
0.0808205576618579,1097.9894567476
0.0740964944478842,1097.9994567476
0.0665788184770818,1098.0094567476
0.0581294369389501,1098.0194567476
0.0489883045259782,1098.0294567476
0.0388354546582689,1098.0394567476
0.0283969161069698,1098.0494567476
0.0184350589631325,1098.0594567476
0.008374959450251,1098.0694567476
-0.000907493704485485,1098.0794567476
-0.0101866634094998,1098.0894567476
-0.019535776440295,1098.0994567476
-0.030116537423376,1098.1094567476
-0.0416767596227247,1098.1194567476
-0.0532035429002518,1098.1294567476
-0.0638165709863767,1098.1394567476
-0.0731959428291945,1098.1494567476
-0.0819118882700699,1098.1594567476
-0.0902832298183222,1098.1694567476
-0.0991126545784413,1098.1794567476
-0.108332555354262,1098.1894567476
-0.117779555547987,1098.1994567476
-0.127618556693148,1098.2094567476
-0.137689062065506,1098.2194567476
-0.14727932873581,1098.2294567476
-0.156526409550617,1098.2394567476
-0.164852809693985,1098.2494567476
-0.173446740698273,1098.2594567476
-0.181665379618784,1098.2694567476
-0.190834164427,1098.2794567476
-0.200703073583373,1098.2894567476
-0.210882809072532,1098.2994567476
-0.220910081607438,1098.3094567476
-0.22991851862455,1098.3194567476
-0.238670309549007,1098.3294567476
-0.247524088828459,1098.3394567476
-0.256143826953195,1098.3494567476
-0.265339981411143,1098.3594567476
-0.274422896264158,1098.3694567476
-0.283490952814229,1098.3794567476
-0.291867543013598,1098.3894567476
-0.300525170023347,1098.3994567476
-0.30923198203088,1098.4094567476
-0.317555306560402,1098.4194567476
-0.325915164732814,1098.4294567476
-0.333540109537784,1098.4394567476
-0.338434144202751,1098.4494567476
-0.337689271432195,1098.4594567476
-0.329164568676883,1098.4694567476
-0.311933432038482,1098.4794567476
-0.284140341153096,1098.4894567476
-0.2471680634914,1098.4994567476
-0.202448305314959,1098.5094567476
-0.153519346899397,1098.5194567476
-0.103828737957271,1098.5294567476
-0.0555637476291291,1098.5394567476
-0.0116484051904942,1098.5494567476
0.0260570126702267,1098.5594567476
0.0564094324627192,1098.5694567476
0.0791226273746944,1098.5794567476
0.0957431289624617,1098.5894567476
0.107348730401354,1098.5994567476
0.11463483311983,1098.6094567476
0.119813927049594,1098.6194567476
0.123120461765175,1098.6294567476
0.12511443922476,1098.6394567476
0.127249378196724,1098.6494567476
0.129511947646246,1098.6594567476
0.132130482264755,1098.6694567476
0.134653912103683,1098.6794567476
0.136690292180617,1098.6894567476
0.137552074784025,1098.6994567476
0.136339587727601,1098.7094567476
0.133087635761718,1098.7194567476
0.127997694797369,1098.7294567476
0.120937607072805,1098.7394567476
0.112270737231529,1098.7494567476
0.103422449055461,1098.7594567476
0.0949039008769535,1098.7694567476
0.0878992526828775,1098.7794567476
0.0820987494456009,1098.7894567476
0.0779942721259885,1098.7994567476
0.0755192014449632,1098.8094567476
0.0752731972236138,1098.8194567476
0.0767407522991406,1098.8294567476
0.0789821487278019,1098.8394567476
0.0811313258174027,1098.8494567476
0.0831385934877708,1098.8594567476
0.0842980025453274,1098.8694567476
0.0838240121182322,1098.8794567476
0.0814714098065401,1098.8894567476
0.0777041361105931,1098.8994567476
0.0724202577647816,1098.9094567476
0.0664156647970878,1098.9194567476
0.0602500619745511,1098.9294567476
0.0530153733030627,1098.9394567476
0.0456705284515592,1098.9494567476
0.0377781687031693,1098.9594567476
0.0299000138587108,1098.9694567476
0.0222464854382688,1098.9794567476
0.014085851510956,1098.9894567476
0.00560874387493191,1098.9994567476
-0.00351409262823405,1099.0094567476
-0.0135582501228461,1099.0194567476
-0.022960486831634,1099.0294567476
-0.0317419484743188,1099.0394567476
-0.0402762532881702,1099.0494567476
-0.0488470847986906,1099.0594567476
-0.0573516726660867,1099.0694567476
-0.0660454694578527,1099.0794567476
-0.0743792728041158,1099.0894567476
-0.0826618295358705,1099.0994567476
-0.0910903789082863,1099.1094567476
-0.0998429685695648,1099.1194567476
-0.108828373475057,1099.1294567476
-0.117831832008194,1099.1394567476
-0.126228171066168,1099.1494567476
-0.134486940545146,1099.1594567476
-0.142321401911457,1099.1694567476
-0.150073984133443,1099.1794567476
-0.158209106972906,1099.1894567476
-0.166051345715883,1099.1994567476
-0.174445571545865,1099.2094567476
-0.183049454590381,1099.2194567476
-0.191288262618928,1099.2294567476
-0.199637440311001,1099.2394567476
-0.207788739045118,1099.2494567476
-0.216417421636458,1099.2594567476
-0.224796135932635,1099.2694567476
-0.233476135858505,1099.2794567476
-0.2408100686296,1099.2894567476
-0.244834202465851,1099.2994567476
-0.242808488529269,1099.3094567476
-0.232774985010745,1099.3194567476
-0.213436452097408,1099.3294567476
-0.184194058204886,1099.3394567476
-0.146026619489301,1099.3494567476
-0.101586986079998,1099.3594567476
-0.0537588123272025,1099.3694567476
-0.00617318214994731,1099.3794567476
0.037849797672928,1099.3894567476
0.077137641639236,1099.3994567476
0.109762699254278,1099.4094567476
0.135768039418597,1099.4194567476
0.155744923889467,1099.4294567476
0.1705340200331,1099.4394567476
0.180956274664759,1099.4494567476
0.188079825187957,1099.4594567476
0.193472135274662,1099.4694567476
0.197610743169486,1099.4794567476
0.200991085681716,1099.4894567476
0.204784379444861,1099.4994567476
0.208600627817141,1099.5094567476
0.212698739051684,1099.5194567476
0.216523324719551,1099.5294567476
0.21986653317859,1099.5394567476
0.221761067558681,1099.5494567476
0.22218380416827,1099.5594567476
0.220709042769421,1099.5694567476
0.216760356556201,1099.5794567476
0.210681029157363,1099.5894567476
0.20258858881319,1099.5994567476
0.192861751034862,1099.6094567476
0.183662910639036,1099.6194567476
0.174667318109051,1099.6294567476
0.166620013383013,1099.6394567476
0.160077850247074,1099.6494567476
0.155094927850459,1099.6594567476
0.151550786863519,1099.6694567476
0.149520603636387,1099.6794567476
0.148299255009895,1099.6894567476
0.148361377119449,1099.6994567476
0.148013709890383,1099.7094567476
0.147216437403953,1099.7194567476
0.145108587281579,1099.7294567476
0.142241225139353,1099.7394567476
0.138729756151103,1099.7494567476
0.133843082665916,1099.7594567476
0.128180899475472,1099.7694567476
0.121382383596584,1099.7794567476
0.114170826109249,1099.7894567476
0.106108161672572,1099.7994567476
0.0980532736761733,1099.8094567476
0.0892358572360663,1099.8194567476
0.0803074611941693,1099.8294567476
0.0705455867190355,1099.8394567476
0.0602157622821611,1099.8494567476
0.0501033741328076,1099.8594567476
0.0401878284860159,1099.8694567476
0.0302638963617062,1099.8794567476
0.0203713451032785,1099.8894567476
0.0104232741471773,1099.8994567476
0.000190081571003822,1099.9094567476
-0.0103365100292521,1099.9194567476
-0.0208736578115496,1099.9294567476
-0.0313048098516625,1099.9394567476
-0.0417622608280546,1099.9494567476
-0.050488326388736,1099.9594567476
-0.0596413078482032,1099.9694567476
-0.0686556142383352,1099.9794567476
-0.0777066238456625,1099.9894567476
-0.08711814509086,1099.9994567476
-0.0968118791253416,1100.0094567476
-0.106296280242815,1100.0194567476
-0.11549671923626,1100.0294567476
-0.124503211193772,1100.0394567476
-0.133327955674398,1100.0494567476
-0.142034992893936,1100.0594567476
-0.15078898671802,1100.0694567476
-0.159569464061754,1100.0794567476
-0.168130949124245,1100.0894567476
-0.177780078611018,1100.0994567476
-0.186939615950957,1100.1094567476
-0.196025627697104,1100.1194567476
-0.204827847444344,1100.1294567476
-0.213697003572116,1100.1394567476
-0.223270488665873,1100.1494567476
-0.232015697964537,1100.1594567476
-0.238763508771468,1100.1694567476
-0.241746713996231,1100.1794567476
-0.237808947045403,1100.1894567476
-0.224994618014863,1100.1994567476
-0.201879368703199,1100.2094567476
-0.168644734974858,1100.2194567476
-0.126567072339188,1100.2294567476
-0.0785452403050723,1100.2394567476
-0.0281240629022573,1100.2494567476
0.020360278514466,1100.2594567476
0.0648825964415061,1100.2694567476
0.103700613033506,1100.2794567476
0.136833565168904,1100.2894567476
0.163822819786435,1100.2994567476
0.184707392452255,1100.3094567476
0.199998260748978,1100.3194567476
0.210962461811916,1100.3294567476
0.2183253871409,1100.3394567476
0.223308950275119,1100.3494567476
0.227085232137426,1100.3594567476
0.230165832603064,1100.3694567476
0.233568512922179,1100.3794567476
0.237384763284017,1100.3894567476
0.241005430932123,1100.3994567476
0.244875049613205,1100.4094567476
0.248642898986741,1100.4194567476
0.250943115674424,1100.4294567476
0.252226485643941,1100.4394567476
0.251317487515016,1100.4494567476
0.247788531242082,1100.4594567476
0.241469942427318,1100.4694567476
0.233038426451035,1100.4794567476
0.223428261082564,1100.4894567476
0.212658970765751,1100.4994567476
0.201729716760159,1100.5094567476
0.1911280618605,1100.5194567476
0.181235384926101,1100.5294567476
0.172627500758192,1100.5394567476
0.166093859161021,1100.5494567476
0.161498698041086,1100.5594567476
0.158514682628695,1100.5694567476
0.156351255419984,1100.5794567476
0.15439129477526,1100.5894567476
0.152467015148403,1100.5994567476
0.149510735092516,1100.6094567476
0.145546757294509,1100.6194567476
0.140314163825544,1100.6294567476
0.133436089344656,1100.6394567476
0.125478787432682,1100.6494567476
0.116574744447183,1100.6594567476
0.107110219686135,1100.6694567476
0.0974966994702024,1100.6794567476
0.0875113203822428,1100.6894567476
0.0779339973415758,1100.6994567476
0.0677178075492443,1100.7094567476
0.0571217276382021,1100.7194567476
0.045307003604786,1100.7294567476
0.0336872444570895,1100.7394567476
0.0224522655297333,1100.7494567476
0.0117705640277848,1100.7594567476
0.00112911365305035,1100.7694567476
-0.00940657685119651,1100.7794567476
-0.0209567770915537,1100.7894567476
-0.0322217699343284,1100.7994567476
-0.0440437812369987,1100.8094567476
-0.0556176070648684,1100.8194567476
-0.0662358902037182,1100.8294567476
-0.0764005652345246,1100.8394567476
-0.086555390588628,1100.8494567476
-0.0969431077721033,1100.8594567476
-0.107482035336072,1100.8694567476
-0.118594234596248,1100.8794567476
-0.1305383368513,1100.8894567476
-0.141966383692133,1100.8994567476
-0.15258209827324,1100.9094567476
-0.162835853248496,1100.9194567476
-0.172657607319623,1100.9294567476
-0.182944332855109,1100.9394567476
-0.193610398512343,1100.9494567476
-0.204259354095599,1100.9594567476
-0.214472396943077,1100.9694567476
-0.225316112422229,1100.9794567476
-0.236027758277734,1100.9894567476
-0.246676903578294,1100.9994567476
-0.257019691648509,1101.0094567476
-0.267136087692796,1101.0194567476
-0.277441896565425,1101.0294567476
-0.287352378661095,1101.0394567476
-0.298144178824054,1101.0494567476
-0.309348664583314,1101.0594567476
-0.320039319591954,1101.0694567476
-0.331508327041301,1101.0794567476
-0.342243365911533,1101.0894567476
-0.35260590553232,1101.0994567476
-0.362074574290876,1101.1094567476
-0.369777208196385,1101.1194567476
-0.374328771140807,1101.1294567476
-0.373720980574402,1101.1394567476
-0.366492792568516,1101.1494567476
-0.351703601228216,1101.1594567476
-0.328900425223841,1101.1694567476
-0.299940038860856,1101.1794567476
-0.266762053120573,1101.1894567476
-0.232216952562045,1101.1994567476
-0.198161609458798,1101.2094567476
-0.166948489131671,1101.2194567476
-0.139446368415754,1101.2294567476
-0.117119151926483,1101.2394567476
-0.100143618458328,1101.2494567476
-0.0880840595470541,1101.2594567476
-0.0800466503078615,1101.2694567476
-0.0755712970716425,1101.2794567476
-0.0738730710207292,1101.2894567476
-0.0736299330069135,1101.2994567476
-0.0739959385308706,1101.3094567476
-0.0745864858528632,1101.3194567476
-0.0746428411281768,1101.3294567476
-0.0744218475055645,1101.3394567476
-0.0742833569888589,1101.3494567476
-0.0742705310897043,1101.3594567476
-0.0744086036892778,1101.3694567476
-0.074626425500953,1101.3794567476
-0.0759322950551914,1101.3894567476
-0.0785026579189404,1101.3994567476
-0.0828846917658806,1101.4094567476
-0.0888401163780385,1101.4194567476
-0.0967982837427235,1101.4294567476
-0.105582305641908,1101.4394567476
-0.114948781284872,1101.4494567476
-0.124344658221306,1101.4594567476
-0.133001804509963,1101.4694567476
-0.141456278679062,1101.4794567476
-0.147993585694732,1101.4894567476
-0.153467911659915,1101.4994567476
-0.158365427720317,1101.5094567476
-0.163053334925759,1101.5194567476
-0.167763705933777,1101.5294567476
-0.172450127651161,1101.5394567476
-0.176719997019726,1101.5494567476
-0.181179747726335,1101.5594567476
-0.185378776199626,1101.5694567476
-0.189937286998065,1101.5794567476
-0.195354566794675,1101.5894567476
-0.201783247135837,1101.5994567476
-0.208463409913525,1101.6094567476
-0.216384431558248,1101.6194567476
-0.224256538362195,1101.6294567476
-0.232744064844052,1101.6394567476
-0.241738219710815,1101.6494567476
-0.25031349645327,1101.6594567476
-0.25875719600245,1101.6694567476
-0.26744838219007,1101.6794567476
-0.276756395843945,1101.6894567476
-0.285802797987785,1101.6994567476
-0.294876816664312,1101.7094567476
-0.30342682987667,1101.7194567476
-0.312172133450146,1101.7294567476
-0.320864233205047,1101.7394567476
-0.329490101769697,1101.7494567476
-0.33847611946738,1101.7594567476
-0.347495641450402,1101.7694567476
-0.356312051481871,1101.7794567476
-0.364914310547287,1101.7894567476
-0.373893014928319,1101.7994567476
-0.382348124780596,1101.8094567476
-0.390022645860665,1101.8194567476
-0.397628728831202,1101.8294567476
-0.404911529969764,1101.8394567476
-0.412821943161453,1101.8494567476
-0.421743859308242,1101.8594567476
-0.43103033681813,1101.8694567476
-0.439820013842516,1101.8794567476
-0.448443511351272,1101.8894567476
-0.45695714436821,1101.8994567476
-0.464430908868842,1101.9094567476
-0.471653214199236,1101.9194567476
-0.479681762388413,1101.9294567476
-0.487563683384303,1101.9394567476
-0.495833682076005,1101.9494567476
-0.503807260745912,1101.9594567476
-0.511667557500993,1101.9694567476
-0.519120633267997,1101.9794567476
-0.526910928130638,1101.9894567476
-0.535108777098682,1101.9994567476
-0.543640797254761,1102.0094567476
-0.552248199489494,1102.0194567476
-0.560241561399036,1102.0294567476
-0.567559504718269,1102.0394567476
-0.574443216442416,1102.0494567476
-0.581023158066069,1102.0594567476
-0.587324459455684,1102.0694567476
-0.593316007698826,1102.0794567476
-0.598608248264896,1102.0894567476
-0.60297214540354,1102.0994567476
-0.604349841222244,1102.1094567476
-0.60024670209737,1102.1194567476
-0.590343271611747,1102.1294567476
-0.575493373255856,1102.1394567476
-0.555948443763672,1102.1494567476
-0.533005954455131,1102.1594567476
-0.507814383753504,1102.1694567476
-0.481544956048092,1102.1794567476
-0.456562913651968,1102.1894567476
-0.434874180080751,1102.1994567476
-0.416855512269075,1102.2094567476
-0.403262597491411,1102.2194567476
-0.393618717612552,1102.2294567476
-0.386562199686157,1102.2394567476
-0.381772255695481,1102.2494567476
-0.378762362814318,1102.2594567476
-0.376078194153098,1102.2694567476
-0.374284836971597,1102.2794567476
-0.373254655325109,1102.2894567476
-0.371761199172555,1102.2994567476
-0.369830268266387,1102.3094567476
-0.36788573870165,1102.3194567476
-0.366277828754628,1102.3294567476
-0.36490975852711,1102.3394567476
-0.364048933196779,1102.3494567476
-0.364150189442949,1102.3594567476
-0.365292322847597,1102.3694567476
-0.367621489837661,1102.3794567476
-0.371121591325139,1102.3894567476
-0.375443292659166,1102.3994567476
-0.380456500793336,1102.4094567476
-0.385695083205496,1102.4194567476
-0.391377100807707,1102.4294567476
-0.396423873949884,1102.4394567476
-0.399917174915086,1102.4494567476
-0.401656338261957,1102.4594567476
-0.402830352607437,1102.4694567476
-0.403956752053295,1102.4794567476
-0.404868862444644,1102.4894567476
-0.405754673315371,1102.4994567476
-0.406830665570961,1102.5094567476
-0.407460017103748,1102.5194567476
-0.408432430728849,1102.5294567476
-0.410370483150458,1102.5394567476
-0.413511479162344,1102.5494567476
-0.417970158902011,1102.5594567476
-0.423386415449417,1102.5694567476
-0.42791871724182,1102.5794567476
-0.431598155722693,1102.5894567476
-0.434971603434152,1102.5994567476
-0.438611588172647,1102.6094567476
-0.443337986550734,1102.6194567476
-0.447991664073756,1102.6294567476
-0.453157394700347,1102.6394567476
-0.458420711423802,1102.6494567476
-0.463794501774836,1102.6594567476
-0.469351002821767,1102.6694567476
-0.474464315635961,1102.6794567476
-0.479154948527419,1102.6894567476
-0.48367576824446,1102.6994567476
-0.488873126535816,1102.7094567476
-0.493731447756018,1102.7194567476
-0.498935684470412,1102.7294567476
-0.503567882218053,1102.7394567476
-0.508325112319576,1102.7494567476
-0.512455685096696,1102.7594567476
-0.516702822727268,1102.7694567476
-0.521895865964854,1102.7794567476
-0.527309271541875,1102.7894567476
-0.533366550135213,1102.7994567476
-0.539093704799744,1102.8094567476
-0.544520459684919,1102.8194567476
-0.549767327093716,1102.8294567476
-0.554949151351668,1102.8394567476
-0.55995428416325,1102.8494567476
-0.564478068321658,1102.8594567476
-0.570179237641945,1102.8694567476
-0.576167890718216,1102.8794567476
-0.581997289522644,1102.8894567476
-0.587345730816896,1102.8994567476
-0.591902055024836,1102.9094567476
-0.595951077192085,1102.9194567476
-0.599178432207589,1102.9294567476
-0.602406722997825,1102.9394567476
-0.605982461045196,1102.9494567476
-0.610203479702801,1102.9594567476
-0.614591005052097,1102.9694567476
-0.619004073027145,1102.9794567476
-0.62335549510771,1102.9894567476
-0.627634192451658,1102.9994567476
-0.631983845260662,1103.0094567476
-0.636272593160506,1103.0194567476
-0.640652658171316,1103.0294567476
-0.644723989708717,1103.0394567476
-0.648201426689598,1103.0494567476
-0.650587357121628,1103.0594567476
-0.649857991417424,1103.0694567476
-0.646106107661437,1103.0794567476
-0.637786362960131,1103.0894567476
-0.624508390953961,1103.0994567476
-0.606571531375132,1103.1094567476
-0.584273852716758,1103.1194567476
-0.559134422783138,1103.1294567476
-0.53281584493379,1103.1394567476
-0.507086108248051,1103.1494567476
-0.483369881980479,1103.1594567476
-0.462388809713761,1103.1694567476
-0.444965996341759,1103.1794567476
-0.431260572535497,1103.1894567476
-0.420874458938862,1103.1994567476
-0.413103200324862,1103.2094567476
-0.406895987869494,1103.2194567476
-0.401651381508734,1103.2294567476
-0.397472180165278,1103.2394567476
-0.394237549205291,1103.2494567476
-0.391709744709509,1103.2594567476
-0.38889292104376,1103.2694567476
-0.387511863624717,1103.2794567476
-0.385548074475709,1103.2894567476
-0.38423022872109,1103.2994567476
-0.382796240979594,1103.3094567476
-0.382383127385431,1103.3194567476
-0.382574332859686,1103.3294567476
-0.383791216340133,1103.3394567476
-0.385594872793225,1103.3494567476
-0.38777997226737,1103.3594567476
-0.390204446457443,1103.3694567476
-0.392799192588906,1103.3794567476
-0.39543098804711,1103.3894567476
-0.397332329025307,1103.3994567476
-0.398088875090328,1103.4094567476
-0.397260751649493,1103.4194567476
-0.395327094616098,1103.4294567476
-0.393038707115275,1103.4394567476
-0.390197660536994,1103.4494567476
-0.387569175502787,1103.4594567476
-0.38545429283121,1103.4694567476
-0.383359516998605,1103.4794567476
-0.382335366135451,1103.4894567476
-0.381750066687457,1103.4994567476
-0.381492104984289,1103.5094567476
-0.381526072812795,1103.5194567476
-0.382387719469942,1103.5294567476
-0.383832459066904,1103.5394567476
-0.385782445008364,1103.5494567476
-0.38856519864857,1103.5594567476
-0.3920544063383,1103.5694567476
-0.395825689685984,1103.5794567476
-0.399430542685796,1103.5894567476
-0.403239771178296,1103.5994567476
-0.406867818206193,1103.6094567476
-0.410913253728988,1103.6194567476
-0.414738053396272,1103.6294567476
-0.418415131830044,1103.6394567476
-0.422238446031738,1103.6494567476
-0.425716846449923,1103.6594567476
-0.428633566975824,1103.6694567476
-0.430912679261414,1103.6794567476
-0.433249399926502,1103.6894567476
-0.435121326695221,1103.6994567476
-0.437203596559028,1103.7094567476
-0.439941566560074,1103.7194567476
-0.443092304927071,1103.7294567476
-0.446901312730162,1103.7394567476
-0.450963016386899,1103.7494567476
-0.45490804547175,1103.7594567476
-0.45923791339174,1103.7694567476
-0.463303824231881,1103.7794567476
-0.46712965387957,1103.7894567476
-0.470741395742503,1103.7994567476
-0.473694007150285,1103.8094567476
-0.476575902842792,1103.8194567476
-0.479260991502717,1103.8294567476
-0.48155528906898,1103.8394567476
-0.484134445733054,1103.8494567476
-0.48669122481244,1103.8594567476
-0.490118282324805,1103.8694567476
-0.494241916108787,1103.8794567476
-0.498539761369217,1103.8894567476
-0.503064048877957,1103.8994567476
-0.507087105921627,1103.9094567476
-0.510072893791736,1103.9194567476
-0.510799843970035,1103.9294567476
-0.506987921784151,1103.9394567476
-0.497221490126367,1103.9494567476
-0.480578713876333,1103.9594567476
-0.457402896885895,1103.9694567476
-0.428454145536165,1103.9794567476
-0.394944903499628,1103.9894567476
-0.359675591125361,1103.9994567476
-0.323428218794658,1104.0094567476
-0.288667249126769,1104.0194567476
-0.25673700587709,1104.0294567476
-0.228068412497782,1104.0394567476
-0.204039168719999,1104.0494567476
-0.184420607641893,1104.0594567476
-0.169072496813674,1104.0694567476
-0.157023804285049,1104.0794567476
-0.146599723028454,1104.0894567476
-0.138084606047809,1104.0994567476
-0.13087623510663,1104.1094567476
-0.124019107561997,1104.1194567476
-0.117741011795722,1104.1294567476
-0.111186937193191,1104.1394567476
-0.105212759125445,1104.1494567476
-0.0993639858742676,1104.1594567476
-0.0948348281740346,1104.1694567476
-0.0904110351705965,1104.1794567476
-0.0866879135979972,1104.1894567476
-0.0841347102013279,1104.1994567476
-0.0825631470647363,1104.2094567476
-0.0827594521136552,1104.2194567476
-0.0836501187061747,1104.2294567476
-0.0856005444385187,1104.2394567476
-0.0874290712987923,1104.2494567476
-0.0893553385748172,1104.2594567476
-0.0910715543585126,1104.2694567476
-0.0922323438215911,1104.2794567476
-0.0932692171807613,1104.2894567476
-0.0937556629676672,1104.2994567476
-0.0934042704647929,1104.3094567476
-0.092244611351915,1104.3194567476
-0.090434787190291,1104.3294567476
-0.0883166089817777,1104.3394567476
-0.0861432401559135,1104.3494567476
-0.083907166162995,1104.3594567476
-0.0825359347101231,1104.3694567476
-0.082759338693023,1104.3794567476
-0.0842798890731322,1104.3894567476
-0.0866821703218962,1104.3994567476
-0.0901395516020949,1104.4094567476
-0.0936743132747065,1104.4194567476
-0.0966530717561736,1104.4294567476
-0.0998152145662807,1104.4394567476
-0.10285947740233,1104.4494567476
-0.106392330211054,1104.4594567476
-0.110557051766911,1104.4694567476
-0.115467806185703,1104.4794567476
-0.120586867332827,1104.4894567476
-0.126365472551411,1104.4994567476
-0.131948139845369,1104.5094567476
-0.137615605019736,1104.5194567476
-0.142532484246792,1104.5294567476
-0.147000209290126,1104.5394567476
-0.151303653678291,1104.5494567476
-0.155707320706116,1104.5594567476
-0.159717766521259,1104.5694567476
-0.164038522046299,1104.5794567476
-0.168534362692679,1104.5894567476
-0.173133232138578,1104.5994567476
-0.178243730599303,1104.6094567476
-0.183142071431837,1104.6194567476
-0.188302521303706,1104.6294567476
-0.193475660340976,1104.6394567476
-0.198797417964275,1104.6494567476
-0.204059677954842,1104.6594567476
-0.209400217885914,1104.6694567476
-0.214439995277172,1104.6794567476
-0.21931362463672,1104.6894567476
-0.224060782747275,1104.6994567476
-0.228435972434593,1104.7094567476
-0.233229734518223,1104.7194567476
-0.238185133128527,1104.7294567476
-0.243045245514652,1104.7394567476
-0.247874568192102,1104.7494567476
-0.25303065473363,1104.7594567476
-0.258403417041689,1104.7694567476
-0.263427745042672,1104.7794567476
-0.268030495539561,1104.7894567476
-0.26984425629494,1104.7994567476
-0.267565844414808,1104.8094567476
-0.259312429842682,1104.8194567476
-0.243465647457308,1104.8294567476
-0.218485508307055,1104.8394567476
-0.185224842225805,1104.8494567476
-0.144992707744891,1104.8594567476
-0.0990608755038313,1104.8694567476
-0.0504436559236064,1104.8794567476
-0.00262928297778507,1104.8894567476
0.0423795391509021,1104.8994567476
0.0827448550694904,1104.9094567476
0.116923869642036,1104.9194567476
0.144833231388097,1104.9294567476
0.165983428686349,1104.9394567476
0.182024010054265,1104.9494567476
0.1937519982223,1104.9594567476
0.202510921502495,1104.9694567476
0.209907107833528,1104.9794567476
0.215997648688709,1104.9894567476
0.222032676868007,1104.9994567476
0.228608193570899,1105.0094567476
0.235793009539316,1105.0194567476
0.24282665543014,1105.0294567476
0.249208980303231,1105.0394567476
0.255448321516986,1105.0494567476
0.260261161718384,1105.0594567476
0.263545481424961,1105.0694567476
0.264624467172272,1105.0794567476
0.263452934926227,1105.0894567476
0.260632268281842,1105.0994567476
0.256406127915877,1105.1094567476
0.251733298985505,1105.1194567476
0.246614572077375,1105.1294567476
0.241200998496638,1105.1394567476
0.236684706878237,1105.1494567476
0.23261972128697,1105.1594567476
0.229157889013804,1105.1694567476
0.226241226126065,1105.1794567476
0.224781970011429,1105.1894567476
0.224837955559733,1105.1994567476
0.226242250907325,1105.2094567476
0.228093152373265,1105.2194567476
0.230054457455846,1105.2294567476
0.231380193263769,1105.2394567476
0.231372646011466,1105.2494567476
0.230026356077028,1105.2594567476
0.228019267049078,1105.2694567476
0.224944719573003,1105.2794567476
0.221534346045514,1105.2894567476
0.216616563522895,1105.2994567476
0.211076135878191,1105.3094567476
0.203830996598369,1105.3194567476
0.195313490235863,1105.3294567476
0.18658553830172,1105.3394567476
0.17814802131565,1105.3494567476
0.170195880503988,1105.3594567476
0.162727734044281,1105.3694567476
0.154987566987255,1105.3794567476
0.147147308494024,1105.3894567476
0.139727721214667,1105.3994567476
0.132155492479938,1105.4094567476
0.124563849004168,1105.4194567476
0.116667787394589,1105.4294567476
0.10883623581309,1105.4394567476
0.101473851064221,1105.4494567476
0.0942652208612003,1105.4594567476
0.0874225129314358,1105.4694567476
0.0806717458864743,1105.4794567476
0.0734102939809919,1105.4894567476
0.0656655968212155,1105.4994567476
0.0577219967888968,1105.5094567476
0.0501781582746294,1105.5194567476
0.0424132631746949,1105.5294567476
0.0351638028812434,1105.5394567476
0.0287916329880452,1105.5494567476
0.022552663226209,1105.5594567476
0.0163068809612984,1105.5694567476
0.00991822355412211,1105.5794567476
0.00370137644770714,1105.5894567476
-0.00265606089379142,1105.5994567476
-0.00892821031162368,1105.6094567476
-0.014935221992242,1105.6194567476
-0.021588265053276,1105.6294567476
-0.0286075522825161,1105.6394567476
-0.0354052863031418,1105.6494567476
-0.0416922644198735,1105.6594567476
-0.0476173868985248,1105.6694567476
-0.0522665211932013,1105.6794567476
-0.0542765492619083,1105.6894567476
-0.0521847876421939,1105.6994567476
-0.0440276767614259,1105.7094567476
-0.0269122318095735,1105.7194567476
0.000476181850179602,1105.7294567476
0.0384411679073967,1105.7394567476
0.0850261916527958,1105.7494567476
0.13803077106455,1105.7594567476
0.193560788347699,1105.7694567476
0.247057324149307,1105.7794567476
0.295142148168852,1105.7894567476
0.336111590657351,1105.7994567476
0.368596278407078,1105.8094567476
0.392155753146517,1105.8194567476
0.408425163004795,1105.8294567476
0.418786864678864,1105.8394567476
0.42476182554117,1105.8494567476
0.428133161592979,1105.8594567476
0.430083223827089,1105.8694567476
0.430929649836178,1105.8794567476
0.431365383786874,1105.8894567476
0.431889852015171,1105.8994567476
0.432462487366831,1105.9094567476
0.433724882699646,1105.9194567476
0.435356759944013,1105.9294567476
0.437993697001984,1105.9394567476
0.440004261639678,1105.9494567476
0.440351454045324,1105.9594567476
0.438231302872624,1105.9694567476
0.432956556087909,1105.9794567476
0.425378163843208,1105.9894567476
0.416601750168249,1105.9994567476
0.407360521664842,1106.0094567476
0.398640338670961,1106.0194567476
0.390637675052792,1106.0294567476
0.383667942932532,1106.0394567476
0.378326184663872,1106.0494567476
0.373710857168808,1106.0594567476
0.370702064306709,1106.0694567476
0.368507097530854,1106.0794567476
0.367052972400107,1106.0894567476
0.366735766711932,1106.0994567476
0.366282269737723,1106.1094567476
0.3654843141521,1106.1194567476
0.364295172692322,1106.1294567476
0.36211675128426,1106.1394567476
0.35938512819171,1106.1494567476
0.356097150996292,1106.1594567476
0.35163891774133,1106.1694567476
0.345855340187795,1106.1794567476
0.339373365144169,1106.1894567476
0.331080453046599,1106.1994567476
0.322043615192019,1106.2094567476
0.312390957862371,1106.2194567476
0.302164608894146,1106.2294567476
0.292516896542452,1106.2394567476
0.282418722051151,1106.2494567476
0.272238853928845,1106.2594567476
0.262349981528511,1106.2694567476
0.253426798355867,1106.2794567476
0.244529950428613,1106.2894567476
0.23615928702656,1106.2994567476
0.227975661122144,1106.3094567476
0.218708293590672,1106.3194567476
0.209381474465114,1106.3294567476
0.199918000638091,1106.3394567476
0.190855782372502,1106.3494567476
0.181982432693674,1106.3594567476
0.173531937522723,1106.3694567476
0.165559872467305,1106.3794567476
0.158095621269708,1106.3894567476
0.150612516343977,1106.3994567476
0.142657076920375,1106.4094567476
0.13454841362532,1106.4194567476
0.126416455970388,1106.4294567476
0.117797687595913,1106.4394567476
0.109522743670369,1106.4494567476
0.100738622938196,1106.4594567476
0.0924306902280186,1106.4694567476
0.0849656746661719,1106.4794567476
0.0779702452592172,1106.4894567476
0.0703809538090323,1106.4994567476
0.0621560455990014,1106.5094567476
0.0533718178611721,1106.5194567476
0.0443489344114352,1106.5294567476
0.0361567892942334,1106.5394567476
0.0301188060614591,1106.5494567476
0.0287853571305555,1106.5594567476
0.0349868664137623,1106.5694567476
0.0500544313600983,1106.5794567476
0.075853499439311,1106.5894567476
0.111775105496364,1106.5994567476
0.157355262639132,1106.6094567476
0.209358714734769,1106.6194567476
0.263874083432575,1106.6294567476
0.317114625992995,1106.6394567476
0.365360942459203,1106.6494567476
0.406580998717958,1106.6594567476
0.439287771881052,1106.6694567476
0.463643169132075,1106.6794567476
0.479675313018331,1106.6894567476
0.489445418289988,1106.6994567476
0.494697176746754,1106.7094567476
0.496421007515387,1106.7194567476
0.495900107088895,1106.7294567476
0.493844622304115,1106.7394567476
0.49086814759736,1106.7494567476
0.488404295452651,1106.7594567476
0.485961262533857,1106.7694567476
0.484206361155022,1106.7794567476
0.482197906712229,1106.7894567476
0.479324159963867,1106.7994567476
0.475006925650595,1106.8094567476
0.469474107655606,1106.8194567476
0.46214148219033,1106.8294567476
0.453264168927586,1106.8394567476
0.443321256711466,1106.8494567476
0.432688619585751,1106.8594567476
0.422348143061947,1106.8694567476
0.412872860755183,1106.8794567476
0.405329779528577,1106.8894567476
0.399266935777376,1106.8994567476
0.395020504544125,1106.9094567476
0.392659852590234,1106.9194567476
0.391311891017015,1106.9294567476
0.390595266696002,1106.9394567476
0.389789817196786,1106.9494567476
0.388747718464939,1106.9594567476
0.386399661364182,1106.9694567476
0.383407445806576,1106.9794567476
0.379750165225668,1106.9894567476
0.374975361924632,1106.9994567476
0.369337693300663,1107.0094567476
0.36255642683288,1107.0194567476
0.354741558015498,1107.0294567476
0.345862745499043,1107.0394567476
0.336928760490957,1107.0494567476
0.327872150679399,1107.0594567476
0.31945701455822,1107.0694567476
0.311132802134177,1107.0794567476
0.302768336899954,1107.0894567476
0.293766526719241,1107.0994567476
0.284305424184603,1107.1094567476
0.274641207687654,1107.1194567476
0.264524253985563,1107.1294567476
0.25446861867495,1107.1394567476
0.243861294110402,1107.1494567476
0.233463471143756,1107.1594567476
0.223429412616507,1107.1694567476
0.213963636937415,1107.1794567476
0.205103992434114,1107.1894567476
0.196009609895865,1107.1994567476
0.186968831085729,1107.2094567476
0.177864321149856,1107.2194567476
0.169346454471398,1107.2294567476
0.160989013658781,1107.2394567476
0.152829946786054,1107.2494567476
0.144400312845515,1107.2594567476
0.135772761885997,1107.2694567476
0.126503020207594,1107.2794567476
0.117437996297586,1107.2894567476
0.108494613976336,1107.2994567476
0.0993736925781464,1107.3094567476
0.0904102874831721,1107.3194567476
0.0813284139219826,1107.3294567476
0.0722003224268788,1107.3394567476
0.0623674054505026,1107.3494567476
0.0529739707409441,1107.3594567476
0.0447297751002942,1107.3694567476
0.0385769626567543,1107.3794567476
0.0365903144548688,1107.3894567476
0.0410408408627049,1107.3994567476
0.0540660395545819,1107.4094567476
0.0777506442426003,1107.4194567476
0.11316157473322,1107.4294567476
0.16008029378463,1107.4394567476
0.214936740600086,1107.4494567476
0.273582288431548,1107.4594567476
0.33143500193148,1107.4694567476
0.384356781294722,1107.4794567476
0.428977302738841,1107.4894567476
0.463991655466671,1107.4994567476
0.489530004007233,1107.5094567476
0.506805108750162,1107.5194567476
0.517309233979448,1107.5294567476
0.523058926225249,1107.5394567476
0.525457293131443,1107.5494567476
0.526342472492337,1107.5594567476
0.526126147098083,1107.5694567476
0.526288136019713,1107.5794567476
0.526488149585506,1107.5894567476
0.526836470133035,1107.5994567476
0.528423291667942,1107.6094567476
0.529492940430951,1107.6194567476
0.530533606975348,1107.6294567476
0.5306200054256,1107.6394567476
0.528923901898898,1107.6494567476
0.524972702806179,1107.6594567476
0.518320966060007,1107.6694567476
0.509553491006149,1107.6794567476
0.498921339010965,1107.6894567476
0.486844845127009,1107.6994567476
0.474870576174573,1107.7094567476
0.463139136391287,1107.7194567476
0.452616540361433,1107.7294567476
0.443732542684022,1107.7394567476
0.43626897746139,1107.7494567476
0.430610532595718,1107.7594567476
0.426565753052607,1107.7694567476
0.423232663061261,1107.7794567476
0.420878635080402,1107.7894567476
0.418531861297052,1107.7994567476
0.415219708668527,1107.8094567476
0.410873716610904,1107.8194567476
0.40588525276062,1107.8294567476
0.400682922732386,1107.8394567476
0.394244765970665,1107.8494567476
0.386987035882492,1107.8594567476
0.377861289759172,1107.8694567476
0.368062378959071,1107.8794567476
0.357459704993982,1107.8894567476
0.34638852954538,1107.8994567476
0.335435790501447,1107.9094567476
0.324115794002796,1107.9194567476
0.312175912138228,1107.9294567476
0.299962024619397,1107.9394567476
0.286354238854851,1107.9494567476
0.272724102605764,1107.9594567476
0.260774354108736,1107.9694567476
0.249534921785505,1107.9794567476
0.23963910187043,1107.9894567476
0.229601095113202,1107.9994567476
0.219214096787212,1108.0094567476
0.208828954739771,1108.0194567476
0.198540008872497,1108.0294567476
0.188623758269988,1108.0394567476
0.178406855936947,1108.0494567476
0.167767157829589,1108.0594567476
0.156278552316328,1108.0694567476
0.144457000171324,1108.0794567476
0.133571799672138,1108.0894567476
0.12307209158819,1108.0994567476
0.113404116075447,1108.1094567476
0.104187369466119,1108.1194567476
0.0949228803160968,1108.1294567476
0.085753021912902,1108.1394567476
0.0762099100287379,1108.1494567476
0.0664139193682383,1108.1594567476
0.0567898615240123,1108.1694567476
0.047112911683146,1108.1794567476
0.0372767726137913,1108.1894567476
0.0273626332432886,1108.1994567476
0.0169913731143355,1108.2094567476
0.00671628892703825,1108.2194567476
-0.00275386049443284,1108.2294567476
-0.0119549912777862,1108.2394567476
-0.0195478117927222,1108.2494567476
-0.0242994034018059,1108.2594567476
-0.0238477899199413,1108.2694567476
-0.0148201046876877,1108.2794567476
0.00506086418684197,1108.2894567476
0.0381695950105598,1108.2994567476
0.082847920761182,1108.3094567476
0.136939983028191,1108.3194567476
0.197217546710929,1108.3294567476
0.25816648596075,1108.3394567476
0.315388460447023,1108.3494567476
0.365638742208122,1108.3594567476
0.406143122229509,1108.3694567476
0.436119785044798,1108.3794567476
0.456548049836345,1108.3894567476
0.468255546351199,1108.3994567476
0.473744763863929,1108.4094567476
0.475288964191346,1108.4194567476
0.475136925965515,1108.4294567476
0.474670354839813,1108.4394567476
0.474563476296404,1108.4494567476
0.474174971055717,1108.4594567476
0.474331467889613,1108.4694567476
0.47427825236749,1108.4794567476
0.474279495697123,1108.4894567476
0.474260900480201,1108.4994567476
0.473142662591152,1108.5094567476
0.470262693855532,1108.5194567476
0.465202254757427,1108.5294567476
0.458243692285667,1108.5394567476
0.448656840916183,1108.5494567476
0.437319899432866,1108.5594567476
0.424811386288801,1108.5694567476
0.412062874700529,1108.5794567476
0.400138031359435,1108.5894567476
0.388482917572183,1108.5994567476
0.378342811209263,1108.6094567476
0.370320701148485,1108.6194567476
0.363086044426362,1108.6294567476
0.357760859589747,1108.6394567476
0.35276888121745,1108.6494567476
0.348285332399231,1108.6594567476
0.344627058306745,1108.6694567476
0.340461140099716,1108.6794567476
0.336635867878417,1108.6894567476
0.331875674886413,1108.6994567476
0.325735195495802,1108.7094567476
0.318515313607907,1108.7194567476
0.310018282588187,1108.7294567476
0.300328457784562,1108.7394567476
0.28977173321029,1108.7494567476
0.27908474335109,1108.7594567476
0.268171588299695,1108.7694567476
0.257594585211324,1108.7794567476
0.246792485521829,1108.7894567476
0.236162440651385,1108.7994567476
0.224641072476906,1108.8094567476
0.212934816418119,1108.8194567476
0.200975696266944,1108.8294567476
0.188520317662317,1108.8394567476
0.175738313329002,1108.8494567476
0.163094458009093,1108.8594567476
0.150590852278512,1108.8694567476
0.139154701940639,1108.8794567476
0.128309360731605,1108.8894567476
0.117515569732999,1108.8994567476
0.107183666982229,1108.9094567476
0.0972428946088847,1108.9194567476
0.0874514435953093,1108.9294567476
0.0778014454444841,1108.9394567476
0.0679410993527335,1108.9494567476
0.0578207034669427,1108.9594567476
0.0470270601406411,1108.9694567476
0.0363993744173794,1108.9794567476
0.0256034867943101,1108.9894567476
0.0153580947194848,1108.9994567476
0.00484842337813519,1109.0094567476
-0.00543031703937165,1109.0194567476
-0.0153241030018728,1109.0294567476
-0.0253167579975861,1109.0394567476
-0.0347766727558406,1109.0494567476
-0.0451720024703091,1109.0594567476
-0.0558737921016355,1109.0694567476
-0.0665368292099182,1109.0794567476
-0.0771717292170961,1109.0894567476
-0.0873508092269581,1109.0994567476
-0.0971946240366914,1109.1094567476
-0.106444837789952,1109.1194567476
-0.114360204811868,1109.1294567476
-0.120063060821326,1109.1394567476
-0.121485499190395,1109.1494567476
-0.115316250055832,1109.1594567476
-0.100676324488806,1109.1694567476
-0.0751113066462488,1109.1794567476
-0.0395734448570938,1109.1894567476
0.00300074233107657,1109.1994567476
0.0510591240520046,1109.2094567476
0.0997475876866973,1109.2194567476
0.145980521066063,1109.2294567476
0.187384745023111,1109.2394567476
0.220961957150217,1109.2494567476
0.246590013189645,1109.2594567476
0.26406771260249,1109.2694567476
0.275243012337793,1109.2794567476
0.281339909810045,1109.2894567476
0.283884440926781,1109.2994567476
0.284040298201914,1109.3094567476
0.282883181200005,1109.3194567476
0.281339200197856,1109.3294567476
0.279617771533508,1109.3394567476
0.277656133643272,1109.3494567476
0.276221053050707,1109.3594567476
0.275445206408431,1109.3694567476
0.274315787286284,1109.3794567476
0.272862385760093,1109.3894567476
0.269862767946663,1109.3994567476
0.264906135655059,1109.4094567476
0.25817378099022,1109.4194567476
0.24887055557358,1109.4294567476
0.238511455974138,1109.4394567476
0.227306425643377,1109.4494567476
0.216703503702759,1109.4594567476
0.207319719568795,1109.4694567476
0.198511698315292,1109.4794567476
0.190351456275648,1109.4894567476
0.183368303319277,1109.4994567476
0.17718396362608,1109.5094567476
0.171725602323318,1109.5194567476
0.167393064122668,1109.5294567476
0.163730524690013,1109.5394567476
0.160550780449551,1109.5494567476
0.157232521109269,1109.5594567476
0.153308399379872,1109.5694567476
0.148898683120579,1109.5794567476
0.143355137517271,1109.5894567476
0.137133666620702,1109.5994567476
0.130388067768382,1109.6094567476
0.122898599971109,1109.6194567476
0.114050674604345,1109.6294567476
0.105073007923538,1109.6394567476
0.0958675652524626,1109.6494567476
0.0866346261508999,1109.6594567476
0.0777215202950559,1109.6694567476
0.0687034305565923,1109.6794567476
0.0593688271250085,1109.6894567476
0.049762549196889,1109.6994567476
0.0396806848356742,1109.7094567476
0.0292917316952027,1109.7194567476
0.0189042608026374,1109.7294567476
0.00832547928926287,1109.7394567476
-0.00169045844671455,1109.7494567476
-0.0119119334511044,1109.7594567476
-0.0226798201784022,1109.7694567476
-0.0339234130143171,1109.7794567476
-0.044697657179141,1109.7894567476
-0.0547684813396527,1109.7994567476
-0.0637240421108001,1109.8094567476
-0.0718408050709612,1109.8194567476
-0.0801955748648571,1109.8294567476
-0.0885871835217461,1109.8394567476
-0.0971295960895655,1109.8494567476
-0.106623924956845,1109.8594567476
-0.11602928283026,1109.8694567476
-0.125844995008996,1109.8794567476
-0.135491584231875,1109.8894567476
-0.144140494139005,1109.8994567476
-0.152404167602106,1109.9094567476
-0.160263666754278,1109.9194567476
-0.168225676248213,1109.9294567476
-0.176231867853917,1109.9394567476
-0.184835170305797,1109.9494567476
-0.193390578064423,1109.9594567476
-0.202174921290748,1109.9694567476
-0.211039266477852,1109.9794567476
-0.219386224551707,1109.9894567476
-0.227066033688661,1109.9994567476
-0.233684430782515,1110.0094567476
-0.238481775549811,1110.0194567476
-0.240010033409245,1110.0294567476
-0.236307010556071,1110.0394567476
-0.226192052100839,1110.0494567476
-0.207969965420686,1110.0594567476
-0.181649721208478,1110.0694567476
-0.148122370645125,1110.0794567476
-0.109268617175649,1110.0894567476
-0.0677380031494058,1110.0994567476
-0.0266160657214331,1110.1094567476
0.0115449609434406,1110.1194567476
0.0442776428923267,1110.1294567476
0.0709489359440887,1110.1394567476
0.0902595381207249,1110.1494567476
0.103857316314069,1110.1594567476
0.112477161337127,1110.1694567476
0.117735114980152,1110.1794567476
0.120709351171583,1110.1894567476
0.122335595688537,1110.1994567476
0.123269963462656,1110.2094567476
0.123436739832101,1110.2194567476
0.123466108012369,1110.2294567476
0.123280215863167,1110.2394567476
0.122426862860594,1110.2494567476
0.121851079286091,1110.2594567476
0.120629467503628,1110.2694567476
0.118892064530435,1110.2794567476
0.11544953565461,1110.2894567476
0.11047357486899,1110.2994567476
0.104206350302037,1110.3094567476
0.0965092641515598,1110.3194567476
0.0887233175008679,1110.3294567476
0.0815268144858559,1110.3394567476
0.074901946119494,1110.3494567476
0.0691662081796162,1110.3594567476
0.0647945180810536,1110.3694567476
0.0617797705375519,1110.3794567476
0.0600225376988496,1110.3894567476
0.059287117465534,1110.3994567476
0.0592751504728037,1110.4094567476
0.0595197818384321,1110.4194567476
0.0598933065467218,1110.4294567476
0.0598341104197663,1110.4394567476
0.0593837234547928,1110.4494567476
0.0582509653506217,1110.4594567476
0.055999954516273,1110.4694567476
0.0528613473588653,1110.4794567476
0.0486685187896968,1110.4894567476
0.0430373854689202,1110.4994567476
0.0364523908672299,1110.5094567476
0.0296263155070734,1110.5194567476
0.0222569319618422,1110.5294567476
0.0146405564586053,1110.5394567476
0.00706768483718422,1110.5494567476
-0.000660239795905893,1110.5594567476
-0.008737986452506,1110.5694567476
-0.0169399467127149,1110.5794567476
-0.025187131705817,1110.5894567476
-0.0337680045826579,1110.5994567476
-0.042544620618804,1110.6094567476
-0.0513504610789305,1110.6194567476
-0.0601833871332115,1110.6294567476
-0.0691463844237989,1110.6394567476
-0.0784477393968199,1110.6494567476
-0.0871707127344113,1110.6594567476
-0.0951885931706677,1110.6694567476
-0.102989589904607,1110.6794567476
-0.110038331487561,1110.6894567476
-0.116628822914582,1110.6994567476
-0.122498801263784,1110.7094567476
-0.128680727254967,1110.7194567476
-0.134535196981873,1110.7294567476
-0.140976122915123,1110.7394567476
-0.147221159830518,1110.7494567476
-0.153784317538773,1110.7594567476
-0.160596593535462,1110.7694567476
-0.167848448101054,1110.7794567476
-0.176105053424857,1110.7894567476
-0.184936608440983,1110.7994567476
-0.193909622589895,1110.8094567476
-0.202480263243845,1110.8194567476
-0.210062634913089,1110.8294567476
-0.215162928797853,1110.8394567476
-0.216946502435052,1110.8494567476
-0.213165395839686,1110.8594567476
-0.202319806967932,1110.8694567476
-0.18361241691697,1110.8794567476
-0.15604253744106,1110.8894567476
-0.120242335862911,1110.8994567476
-0.0780632157897441,1110.9094567476
-0.0313961470768028,1110.9194567476
0.0167093825171921,1110.9294567476
0.0632974504599605,1110.9394567476
0.105153505795375,1110.9494567476
0.140752869240543,1110.9594567476
0.169324717848798,1110.9694567476
0.191010515003691,1110.9794567476
0.20657231363254,1110.9894567476
0.217985470073253,1110.9994567476
0.226074895103292,1111.0094567476
0.232534420382453,1111.0194567476
0.237561139865189,1111.0294567476
0.242065404053961,1111.0394567476
0.246197031176856,1111.0494567476
0.250605485984754,1111.0594567476
0.254644260430178,1111.0694567476
0.258322185793534,1111.0794567476
0.261346144218449,1111.0894567476
0.263643936547301,1111.0994567476
0.264741098538919,1111.1094567476
0.263487887496753,1111.1194567476
0.26034854319305,1111.1294567476
0.254545809019894,1111.1394567476
0.246976539206142,1111.1494567476
0.238412883337551,1111.1594567476
0.229994583197654,1111.1694567476
0.223057356310989,1111.1794567476
0.217776956444483,1111.1894567476
0.213594947180884,1111.1994567476
0.211041299233109,1111.2094567476
0.209136592998483,1111.2194567476
0.20800394136253,1111.2294567476
0.207420122778226,1111.2394567476
0.207042584922557,1111.2494567476
0.206593418015207,1111.2594567476
0.205827272203463,1111.2694567476
0.204171779175922,1111.2794567476
0.201557573418675,1111.2894567476
0.198098569252978,1111.2994567476
0.193078327027833,1111.3094567476
0.187260298194341,1111.3194567476
0.181077111967645,1111.3294567476
0.174583259418999,1111.3394567476
0.167915543275345,1111.3494567476
0.161161284794837,1111.3594567476
0.153404635889344,1111.3694567476
0.145127028004341,1111.3794567476
0.136687296321991,1111.3894567476
0.127535736819214,1111.3994567476
0.11806989861237,1111.4094567476
0.109008430738498,1111.4194567476
0.0999667593422826,1111.4294567476
0.0909062654599856,1111.4394567476
0.0819187253089224,1111.4494567476
0.0730836893378106,1111.4594567476
0.0638628587620075,1111.4694567476
0.055179256325483,1111.4794567476
0.0464057758387383,1111.4894567476
0.0380964685392024,1111.4994567476
0.0296365670801257,1111.5094567476
0.0210653871841587,1111.5194567476
0.0118185012094724,1111.5294567476
0.00224951353292321,1111.5394567476
-0.00687921970522978,1111.5494567476
-0.0160862560855375,1111.5594567476
-0.0249161839829151,1111.5694567476
-0.0329788700483433,1111.5794567476
-0.041303924966206,1111.5894567476
-0.0498453360329616,1111.5994567476
-0.0587556281069153,1111.6094567476
-0.0677129459484298,1111.6194567476
-0.076658388306169,1111.6294567476
-0.0848310220174694,1111.6394567476
-0.092697534692286,1111.6494567476
-0.100690992034748,1111.6594567476
-0.108783587831008,1111.6694567476
-0.117105411035128,1111.6794567476
-0.125458736155635,1111.6894567476
-0.133699151580209,1111.6994567476
-0.141526766566353,1111.7094567476
-0.148379594054792,1111.7194567476
-0.151573326425517,1111.7294567476
-0.148866351250606,1111.7394567476
-0.137176179239823,1111.7494567476
-0.115821282623233,1111.7594567476
-0.0837937941483031,1111.7694567476
-0.0409596709081058,1111.7794567476
0.00936105199703338,1111.7894567476
0.065575700561689,1111.7994567476
0.123321450036292,1111.8094567476
0.179338849584614,1111.8194567476
0.230071410130139,1111.8294567476
0.273032989193371,1111.8394567476
0.308359105627333,1111.8494567476
0.33538521886963,1111.8594567476
0.354644764109446,1111.8694567476
0.368367930405504,1111.8794567476
0.377369663305482,1111.8894567476
0.383658189218335,1111.8994567476
0.388650896206135,1111.9094567476
0.392914627756142,1111.9194567476
0.397228105163156,1111.9294567476
0.401181373587961,1111.9394567476
0.405767585254296,1111.9494567476
0.410654023977253,1111.9594567476
0.415490086932393,1111.9694567476
0.41950508791613,1111.9794567476
0.421635456236398,1111.9894567476
0.421971784019284,1111.9994567476
0.419214519396582,1112.0094567476
0.414129656539441,1112.0194567476
0.406650549422426,1112.0294567476
0.397991441038431,1112.0394567476
0.388950801670753,1112.0494567476
0.380568227140275,1112.0594567476
0.37317146570793,1112.0694567476
0.366102912471185,1112.0794567476
0.360557547603186,1112.0894567476
0.355721859086043,1112.0994567476
0.352604469980851,1112.1094567476
0.351209595661448,1112.1194567476
0.351073624744271,1112.1294567476
0.350842392385286,1112.1394567476
0.350654133284138,1112.1494567476
0.349504346204374,1112.1594567476
0.347017283236821,1112.1694567476
0.343872789760811,1112.1794567476
0.339441978388142,1112.1894567476
0.334617194987861,1112.1994567476
0.328724668494076,1112.2094567476
0.321918389779419,1112.2194567476
0.314157433296908,1112.2294567476
0.305644238467014,1112.2394567476
0.296119722306588,1112.2494567476
0.28581835907096,1112.2594567476
0.275765624670115,1112.2694567476
0.265625151646267,1112.2794567476
0.256048409718709,1112.2894567476
0.246246396016123,1112.2994567476
0.235936238028088,1112.3094567476
0.22498211153799,1112.3194567476
0.214727364735382,1112.3294567476
0.203902514890502,1112.3394567476
0.193810719899046,1112.3494567476
0.183829126500584,1112.3594567476
0.173581519121133,1112.3694567476
0.163368902025656,1112.3794567476
0.152392756776142,1112.3894567476
0.14105430725658,1112.3994567476
0.129867271572289,1112.4094567476
0.119556872327295,1112.4194567476
0.110169818167496,1112.4294567476
0.101037282267301,1112.4394567476
0.0914872758673821,1112.4494567476
0.0820892885815346,1112.4594567476
0.0719229878933804,1112.4694567476
0.0614364315499627,1112.4794567476
0.0512833275050951,1112.4894567476
0.0414890007907324,1112.4994567476
0.0320667786764953,1112.5094567476
0.0229867590405854,1112.5194567476
0.0140845717124474,1112.5294567476
0.00468055787802737,1112.5394567476
-0.0053620022329493,1112.5494567476
-0.0159416802177103,1112.5594567476
-0.0267050825794585,1112.5694567476
-0.036941177177623,1112.5794567476
-0.0467649898457124,1112.5894567476
-0.0559762343238367,1112.5994567476
-0.0651358212391034,1112.6094567476
-0.0721455765433146,1112.6194567476
-0.0753549506288534,1112.6294567476
-0.0722390137835232,1112.6394567476
-0.0591117855012753,1112.6494567476
-0.0350729233320636,1112.6594567476
0.00110792722961442,1112.6694567476
0.0484141956497409,1112.6794567476
0.105008296381416,1112.6894567476
0.166567269061225,1112.6994567476
0.229400988790537,1112.7094567476
0.28833355719931,1112.7194567476
0.340542329896413,1112.7294567476
0.385255119792815,1112.7394567476
0.420143389905137,1112.7494567476
0.446087258782628,1112.7594567476
0.463591845318562,1112.7694567476
0.474720616895698,1112.7794567476
0.481278541088958,1112.7894567476
0.484295137450181,1112.7994567476
0.485278801381289,1112.8094567476
0.484756714341802,1112.8194567476
0.483651680308022,1112.8294567476
0.482643441152772,1112.8394567476
0.481882901498278,1112.8494567476
0.481961267323168,1112.8594567476
0.482675456475002,1112.8694567476
0.48259747612442,1112.8794567476
0.48141400575888,1112.8894567476
0.478362540678675,1112.8994567476
0.472145565325689,1112.9094567476
0.463186174462307,1112.9194567476
0.452868277287291,1112.9294567476
0.441756721508684,1112.9394567476
0.431016616075745,1112.9494567476
0.42121039818148,1112.9594567476
0.41364911386423,1112.9694567476
0.408156046978586,1112.9794567476
0.404596888177767,1112.9894567476
0.402813712176416,1112.9994567476
0.402657784378498,1113.0094567476
0.402927402998329,1113.0194567476
0.403473460881291,1113.0294567476
0.403582552410309,1113.0394567476
0.403233453062084,1113.0494567476
0.40164544513115,1113.0594567476
0.398366232540302,1113.0694567476
0.393366360566638,1113.0794567476
0.387042022195879,1113.0894567476
0.379513197622508,1113.0994567476
0.371587186387967,1113.1094567476
0.362820478809022,1113.1194567476
0.353174124905458,1113.1294567476
0.343118676245199,1113.1394567476
0.332881743647805,1113.1494567476
0.322632229028737,1113.1594567476
0.312085229399461,1113.1694567476
0.30125393734247,1113.1794567476
0.289988628143538,1113.1894567476
0.279109992015282,1113.1994567476
0.268453667384015,1113.2094567476
0.258244353093582,1113.2194567476
0.247852146518045,1113.2294567476
0.236924617999388,1113.2394567476
0.225990011228735,1113.2494567476
0.215037078429207,1113.2594567476
0.204354842655288,1113.2694567476
0.194079940166794,1113.2794567476
0.184236919074397,1113.2894567476
0.174609782268116,1113.2994567476
0.16496643388976,1113.3094567476
0.156223669934709,1113.3194567476
0.147864920771407,1113.3294567476
0.140051087322369,1113.3394567476
0.132413558018865,1113.3494567476
0.124540274192361,1113.3594567476
0.11677616462668,1113.3694567476
0.108874099892459,1113.3794567476
0.1015553229054,1113.3894567476
0.0937427274260976,1113.3994567476
0.0850422878194774,1113.4094567476
0.0754468909951939,1113.4194567476
0.0651097898895135,1113.4294567476
0.0549754058212277,1113.4394567476
0.0461701877405495,1113.4494567476
0.0406282090668369,1113.4594567476
0.0408407237461205,1113.4694567476
0.0497878942370865,1113.4794567476
0.0703795022623111,1113.4894567476
0.103394830826019,1113.4994567476
0.149422442581012,1113.5094567476
0.206827082998297,1113.5194567476
0.271083269995462,1113.5294567476
0.338973981500852,1113.5394567476
0.404787752986728,1113.5494567476
0.464535300900838,1113.5594567476
0.515819245761807,1113.5694567476
0.556482009905993,1113.5794567476
0.586361777376683,1113.5894567476
0.606634300234344,1113.5994567476
0.61893895793697,1113.6094567476
0.624719294386162,1113.6194567476
0.626778979734189,1113.6294567476
0.625959796956679,1113.6394567476
0.624263688504463,1113.6494567476
0.62251354090286,1113.6594567476
0.621380941988258,1113.6694567476
0.621143345434503,1113.6794567476
0.621199772873828,1113.6894567476
0.621101536444503,1113.6994567476
0.619894513328555,1113.7094567476
0.617281287933581,1113.7194567476
0.612249312354411,1113.7294567476
0.604098267364297,1113.7394567476
0.592241704402432,1113.7494567476
0.577319030629596,1113.7594567476
0.560954716094768,1113.7694567476
0.543871922062711,1113.7794567476
0.527431701259982,1113.7894567476
0.512539654270645,1113.7994567476
0.500125714129609,1113.8094567476
0.490852888885916,1113.8194567476
0.484139748628651,1113.8294567476
0.479660911975598,1113.8394567476
0.476519640238334,1113.8494567476
0.473992158019299,1113.8594567476
0.471635708448803,1113.8694567476
0.468642837780181,1113.8794567476
0.46493765594491,1113.8894567476
0.460252560554117,1113.8994567476
0.453730458092063,1113.9094567476
0.445886398888093,1113.9194567476
0.436677559378194,1113.9294567476
0.426501071762826,1113.9394567476
0.415876388551133,1113.9494567476
0.404940663618304,1113.9594567476
0.393277716008843,1113.9694567476
0.380465138878116,1113.9794567476
0.367940900082027,1113.9894567476
0.355527444439668,1113.9994567476
0.34344190931328,1114.0094567476
0.330929151054461,1114.0194567476
0.318662404085268,1114.0294567476
0.306030526573281,1114.0394567476
0.292966767257851,1114.0494567476
0.279304235537004,1114.0594567476
0.265096625900063,1114.0694567476
0.25070851315076,1114.0794567476
0.236374211123498,1114.0894567476
0.223204211917306,1114.0994567476
0.211040581680069,1114.1094567476
0.200411278460993,1114.1194567476
0.190017760099069,1114.1294567476
0.179454495819913,1114.1394567476
0.168682229539864,1114.1494567476
0.156995976559768,1114.1594567476
0.144791839228438,1114.1694567476
0.133119880485743,1114.1794567476
0.121444229196282,1114.1894567476
0.111098349548856,1114.1994567476
0.101294700667434,1114.2094567476
0.0910353830302734,1114.2194567476
0.0810345140411077,1114.2294567476
0.0713523278576548,1114.2394567476
0.0603603109818502,1114.2494567476
0.0488674420278185,1114.2594567476
0.0373519993025011,1114.2694567476
0.0269697491842985,1114.2794567476
0.0172185319074132,1114.2894567476
0.00900801150945365,1114.2994567476
0.00274571206914261,1114.3094567476
0.00109568032172722,1114.3194567476
0.00634968607507777,1114.3294567476
0.0223632749821624,1114.3394567476
0.0522342895310886,1114.3494567476
0.0962109336942689,1114.3594567476
0.154284171104447,1114.3694567476
0.22233908994546,1114.3794567476
0.295499219798537,1114.3894567476
0.367512192914136,1114.3994567476
0.434308551040236,1114.4094567476
0.491895241543857,1114.4194567476
0.538320409643589,1114.4294567476
0.572773409509028,1114.4394567476
0.596316993692535,1114.4494567476
0.610456885144205,1114.4594567476
0.616792227715952,1114.4694567476
0.618354597703984,1114.4794567476
0.617237245559806,1114.4894567476
0.615080541799133,1114.4994567476
0.612892106067083,1114.5094567476
0.610569171973676,1114.5194567476
0.608170414989235,1114.5294567476
0.605989119411367,1114.5394567476
0.603827147381829,1114.5494567476
0.601712188309751,1114.5594567476
0.59816042540908,1114.5694567476
0.592818966042486,1114.5794567476
0.584776112993865,1114.5894567476
0.573912745733574,1114.5994567476
0.560386556644779,1114.6094567476
0.545025473431714,1114.6194567476
0.528361664126428,1114.6294567476
0.511345673324014,1114.6394567476
0.495027814460652,1114.6494567476
0.479601474681743,1114.6594567476
0.465388989166171,1114.6694567476
0.453342946100878,1114.6794567476
0.443607898579629,1114.6894567476
0.435178637178202,1114.6994567476
0.428658079851235,1114.7094567476
0.423201903191323,1114.7194567476
0.418684135589997,1114.7294567476
0.415058200839461,1114.7394567476
0.410593995941593,1114.7494567476
0.404999317729929,1114.7594567476
0.397797820532066,1114.7694567476
0.388591999154876,1114.7794567476
0.378965487764217,1114.7894567476
0.368150497349122,1114.7994567476
0.356556818192252,1114.8094567476
0.344245293513231,1114.8194567476
0.330863353715441,1114.8294567476
0.317325887319411,1114.8394567476
0.303213038123205,1114.8494567476
0.289803370183382,1114.8594567476
0.275886501712686,1114.8694567476
0.261839685841446,1114.8794567476
0.247470887222779,1114.8894567476
0.232711223970665,1114.8994567476
0.218265720033353,1114.9094567476
0.204280148799805,1114.9194567476
0.191063408904837,1114.9294567476
0.178139441896449,1114.9394567476
0.165710559772249,1114.9494567476
0.153499118707351,1114.9594567476
0.142183614873146,1114.9694567476
0.131205318512722,1114.9794567476
0.120387399708367,1114.9894567476
0.109553958274307,1114.9994567476
0.0985997472871125,1115.0094567476
0.0876239988798411,1115.0194567476
0.0769422347190595,1115.0294567476
0.0660972862094275,1115.0394567476
0.055308287999645,1115.0494567476
0.0445494462903644,1115.0594567476
0.0334474535883605,1115.0694567476
0.0224297239238672,1115.0794567476
0.0115760426827077,1115.0894567476
0.000859462579353301,1115.0994567476
-0.00924014034020708,1115.1094567476
-0.0173527400327982,1115.1194567476
-0.0217545008181664,1115.1294567476
-0.0188070650456255,1115.1394567476
-0.0057150945839742,1115.1494567476
0.0194044564846365,1115.1594567476
0.0585392159961004,1115.1694567476
0.110576595757977,1115.1794567476
0.174145383722816,1115.1894567476
0.243116387788173,1115.1994567476
0.312625467720952,1115.2094567476
0.377464920253587,1115.2194567476
0.433168001267097,1115.2294567476
0.477909316413722,1115.2394567476
0.510929974289195,1115.2494567476
0.533093312151354,1115.2594567476
0.545661372901849,1115.2694567476
0.551317505538725,1115.2794567476
0.551477527875571,1115.2894567476
0.547568006365077,1115.2994567476
0.541982700076439,1115.3094567476
0.536752788352783,1115.3194567476
0.531874731398214,1115.3294567476
0.527336943825379,1115.3394567476
0.523118626539381,1115.3494567476
0.51867397948731,1115.3594567476
0.513606549133146,1115.3694567476
0.507195371992517,1115.3794567476
0.498675231791546,1115.3894567476
0.487264725666217,1115.3994567476
0.473282274263189,1115.4094567476
0.457079423869882,1115.4194567476
0.440000533371822,1115.4294567476
0.422475702155817,1115.4394567476
0.405874014889618,1115.4494567476
0.391278765555216,1115.4594567476
0.379160524107377,1115.4694567476
0.37092840234952,1115.4794567476
0.365698828994753,1115.4894567476
0.362803766187966,1115.4994567476
0.361457998207029,1115.5094567476
0.360630853975311,1115.5194567476
0.359843608728811,1115.5294567476
0.357278772331055,1115.5394567476
0.353314477069594,1115.5494567476
0.34791111560809,1115.5594567476
0.340770246028251,1115.5694567476
0.332171927164704,1115.5794567476
0.322155712582457,1115.5894567476
0.311539515513913,1115.5994567476
0.300175743298683,1115.6094567476
0.288393541902781,1115.6194567476
0.275982346197308,1115.6294567476
0.26301615797707,1115.6394567476
0.249271179608786,1115.6494567476
0.235234455542038,1115.6594567476
0.2220546142344,1115.6694567476
0.208992492133673,1115.6794567476
0.196257458432488,1115.6894567476
0.183567954072307,1115.6994567476
0.170824967778317,1115.7094567476
0.158574053345997,1115.7194567476
0.145673341829186,1115.7294567476
0.133601349506107,1115.7394567476
0.120999096410375,1115.7494567476
0.108249145878363,1115.7594567476
0.0960839817536065,1115.7694567476
0.0850166040350595,1115.7794567476
0.0746458438086268,1115.7894567476
0.0645392001189816,1115.7994567476
0.0535848822273502,1115.8094567476
0.0425497374393943,1115.8194567476
0.0304770320030558,1115.8294567476
0.0188247851028038,1115.8394567476
0.00809824186551582,1115.8494567476
-0.000685911484538562,1115.8594567476
-0.00415485187573106,1115.8694567476
-0.000297169687804175,1115.8794567476
0.0146086556793132,1115.8894567476
0.0434408791098033,1115.8994567476
0.0865200031143974,1115.9094567476
0.142180818697502,1115.9194567476
0.207211289510732,1115.9294567476
0.276466131532071,1115.9394567476
0.34470628233381,1115.9494567476
0.407209163786965,1115.9594567476
0.460292134555562,1115.9694567476
0.501640850285212,1115.9794567476
0.531622925890073,1115.9894567476
0.550629743405211,1115.9994567476
0.560581355966176,1116.0094567476
0.563682298454902,1116.0194567476
0.561863947871141,1116.0294567476
0.55787454202407,1116.0394567476
0.552908901816215,1116.0494567476
0.547190153902166,1116.0594567476
0.541731301420525,1116.0694567476
0.536741013930149,1116.0794567476
0.532012096968293,1116.0894567476
0.526690954606063,1116.0994567476
0.520617599815433,1116.1094567476
0.512429411051166,1116.1194567476
0.502342886355336,1116.1294567476
0.489504319641348,1116.1394567476
0.473641842660774,1116.1494567476
0.456359205614098,1116.1594567476
0.437076023630856,1116.1694567476
0.417244243644223,1116.1794567476
0.398541334806675,1116.1894567476
0.380866793275018,1116.1994567476
0.364636820695944,1116.2094567476
0.351263937915315,1116.2194567476
0.340255181118347,1116.2294567476
0.331895897026651,1116.2394567476
0.325838010380324,1116.2494567476
0.321805696865098,1116.2594567476
0.318265904893935,1116.2694567476
0.315103894777377,1116.2794567476
0.311208523393734,1116.2894567476
0.305692617436311,1116.2994567476
0.299501795825498,1116.3094567476
0.291247088990938,1116.3194567476
0.281920250671182,1116.3294567476
0.270838390569697,1116.3394567476
0.258611583360928,1116.3494567476
0.245776102182171,1116.3594567476
0.231808892995752,1116.3694567476
0.217816206571559,1116.3794567476
0.203795844112173,1116.3894567476
0.189627453891376,1116.3994567476
0.175744224613159,1116.4094567476
0.161307972951171,1116.4194567476
0.147153802204353,1116.4294567476
0.133160686486342,1116.4394567476
0.119340135978938,1116.4494567476
0.106484936748955,1116.4594567476
0.0940194049716562,1116.4694567476
0.0821404010629356,1116.4794567476
0.0702285326566253,1116.4894567476
0.057679521439871,1116.4994567476
0.0459225542276975,1116.5094567476
0.0334249263578744,1116.5194567476
0.0211842484650257,1116.5294567476
0.00842001936805358,1116.5394567476
-0.00365209436434145,1116.5494567476
-0.0152334895062989,1116.5594567476
-0.025874894071802,1116.5694567476
-0.0333386945160075,1116.5794567476
-0.0350333619050725,1116.5894567476
-0.028134297615986,1116.5994567476
-0.00952091002295297,1116.6094567476
0.0231865113252321,1116.6194567476
0.0704122619173819,1116.6294567476
0.129746119380335,1116.6394567476
0.197379664595642,1116.6494567476
0.267602949784734,1116.6594567476
0.33394953697911,1116.6694567476
0.393008690991517,1116.6794567476
0.441211557406918,1116.6894567476
0.477960500976133,1116.6994567476
0.502844737146968,1116.7094567476
0.517012064086553,1116.7194567476
0.523095002917027,1116.7294567476
0.523203616555758,1116.7394567476
0.520050073677809,1116.7494567476
0.515584501839332,1116.7594567476
0.510154936354427,1116.7694567476
0.504799511848614,1116.7794567476
0.50003439237149,1116.7894567476
0.4960549678206,1116.7994567476
0.491576819213774,1116.8094567476
0.487005235261389,1116.8194567476
0.480965792964765,1116.8294567476
0.472829548163777,1116.8394567476
0.461588177284553,1116.8494567476
0.446697076941863,1116.8594567476
0.428737779636988,1116.8694567476
0.408586768834055,1116.8794567476
0.387559035124847,1116.8894567476
0.366967971426523,1116.8994567476
0.347307428506712,1116.9094567476
0.329624900731201,1116.9194567476
0.314756825583433,1116.9294567476
0.302758614391817,1116.9394567476
0.293061369314178,1116.9494567476
0.285127810775584,1116.9594567476
0.279079441672859,1116.9694567476
0.273166548870836,1116.9794567476
0.267823320382817,1116.9894567476
0.262316012198172,1116.9994567476
0.255703515084984,1117.0094567476
0.248321978569159,1117.0194567476
0.240077155203859,1117.0294567476
0.231035536145409,1117.0394567476
0.221665010488799,1117.0494567476
0.211113214265502,1117.0594567476
0.199498526452451,1117.0694567476
0.186358842373925,1117.0794567476
0.17227382657688,1117.0894567476
0.157469882573575,1117.0994567476
0.142245227044424,1117.1094567476
0.127012781017959,1117.1194567476
0.11220793973584,1117.1294567476
0.0980097026359016,1117.1394567476
0.08369252558087,1117.1494567476
0.0698399853789996,1117.1594567476
0.0560955831844029,1117.1694567476
0.0428595577622611,1117.1794567476
0.0300408303717143,1117.1894567476
0.0180531377771404,1117.1994567476
0.00624805393890731,1117.2094567476
-0.00518999126086622,1117.2194567476
-0.0165986246487933,1117.2294567476
-0.028233906607718,1117.2394567476
-0.0401761004689481,1117.2494567476
-0.0517894506903744,1117.2594567476
-0.0633786055549517,1117.2694567476
-0.0736207206280191,1117.2794567476
-0.0802790492532,1117.2894567476
-0.0806289477727725,1117.2994567476
-0.0711634622686832,1117.3094567476
-0.0496313465423896,1117.3194567476
-0.0138067239981856,1117.3294567476
0.0354457137539783,1117.3394567476
0.095024753142544,1117.3494567476
0.160418198552681,1117.3594567476
0.227143308303184,1117.3694567476
0.288942012231345,1117.3794567476
0.341759694399367,1117.3894567476
0.383412255376843,1117.3994567476
0.412492096611877,1117.4094567476
0.430259097927175,1117.4194567476
0.438539634989273,1117.4294567476
0.440150306497957,1117.4394567476
0.437258611342957,1117.4494567476
0.431634968878379,1117.4594567476
0.424651735545713,1117.4694567476
0.418367495848583,1117.4794567476
0.412609908326996,1117.4894567476
0.407175375608881,1117.4994567476
0.402527384263142,1117.5094567476
0.397628995082847,1117.5194567476
0.391185698044318,1117.5294567476
0.383051278406361,1117.5394567476
0.372865457950363,1117.5494567476
0.359852268495364,1117.5594567476
0.344463802802529,1117.5694567476
0.32623479931968,1117.5794567476
0.306903433092074,1117.5894567476
0.287645925625516,1117.5994567476
0.268970139129363,1117.6094567476
0.251551859348169,1117.6194567476
0.236523406329826,1117.6294567476
0.223452095300271,1117.6394567476
0.212129590015804,1117.6494567476
0.203253797846991,1117.6594567476
0.196145958424831,1117.6694567476
0.190129026020233,1117.6794567476
0.184642924826532,1117.6894567476
0.179723979253658,1117.6994567476
0.174584121345774,1117.7094567476
0.16895275166324,1117.7194567476
0.162019070576644,1117.7294567476
0.15365700686079,1117.7394567476
0.142621746214456,1117.7494567476
0.130570746610124,1117.7594567476
0.117800984983752,1117.7694567476
0.104334268558184,1117.7794567476
0.090797455559389,1117.7894567476
0.0774233654104664,1117.7994567476
0.0639700399473194,1117.8094567476
0.0502917628328032,1117.8194567476
0.0361458233679889,1117.8294567476
0.0217964724454086,1117.8394567476
0.00811051818021863,1117.8494567476
-0.00558761579658503,1117.8594567476
-0.0185928868253081,1117.8694567476
-0.0318245936497673,1117.8794567476
-0.0455397249134668,1117.8894567476
-0.0595026556439612,1117.8994567476
-0.0736555400145645,1117.9094567476
-0.0876914077736551,1117.9194567476
-0.100454283451402,1117.9294567476
-0.112580892499683,1117.9394567476
-0.124014917488151,1117.9494567476
-0.135438988349851,1117.9594567476
-0.146712766916548,1117.9694567476
-0.158397136078413,1117.9794567476
-0.170321326942535,1117.9894567476
-0.182425594942864,1117.9994567476
-0.193705950139685,1118.0094567476
-0.201873764373047,1118.0194567476
-0.205369808229568,1118.0294567476
-0.200946457057309,1118.0394567476
-0.186483749594733,1118.0494567476
-0.160363915561218,1118.0594567476
-0.12251095569963,1118.0694567476
-0.0742493798910456,1118.0794567476
-0.0198889872800619,1118.0894567476
0.0358338298686441,1118.0994567476
0.0883367192867472,1118.1094567476
0.133294333947698,1118.1194567476
0.169466866130842,1118.1294567476
0.195900136749853,1118.1394567476
0.213291347297047,1118.1494567476
0.222619591774518,1118.1594567476
0.226010094820128,1118.1694567476
0.225320138238172,1118.1794567476
0.221858176235641,1118.1894567476
0.216772907306722,1118.1994567476
0.210890937351956,1118.2094567476
0.205333216984254,1118.2194567476
0.200966799133188,1118.2294567476
0.197148561050157,1118.2394567476
0.193659446461062,1118.2494567476
0.189624199757507,1118.2594567476
0.184342967026175,1118.2694567476
0.177139721363459,1118.2794567476
0.167847427246797,1118.2894567476
0.155682381893258,1118.2994567476
0.141550561953351,1118.3094567476
0.125798091825271,1118.3194567476
0.109494493018498,1118.3294567476
0.0939285403724501,1118.3394567476
0.0801523086913525,1118.3494567476
0.0681638105434968,1118.3594567476
0.0578184008630414,1118.3694567476
0.0481608446731456,1118.3794567476
0.0394738555212242,1118.3894567476
0.0323137551434543,1118.3994567476
0.0261634530379602,1118.4094567476
0.0205303088113241,1118.4194567476
0.0155118574801387,1118.4294567476
0.00978639139380048,1118.4394567476
0.00338439068820225,1118.4494567476
-0.00361788092090837,1118.4594567476
-0.0116094822712491,1118.4694567476
-0.0203830889083506,1118.4794567476
-0.0302147041135435,1118.4894567476
-0.040331720789227,1118.4994567476
-0.0512734609202832,1118.5094567476
-0.0634758710019545,1118.5194567476
-0.0762611480089339,1118.5294567476
-0.0893271832042731,1118.5394567476
-0.102586665162594,1118.5494567476
-0.115339384001734,1118.5594567476
-0.127784152112516,1118.5694567476
-0.140419910381824,1118.5794567476
-0.152953961064232,1118.5894567476
-0.165449954229846,1118.5994567476
-0.177315801516703,1118.6094567476
-0.188507377713993,1118.6194567476
-0.199254876086232,1118.6294567476
-0.209512165114366,1118.6394567476
-0.219160891443874,1118.6494567476
-0.228698188018208,1118.6594567476
-0.238434040104664,1118.6694567476
-0.248093670333753,1118.6794567476
-0.258310895366776,1118.6894567476
-0.268116676185743,1118.6994567476
-0.278205695802164,1118.7094567476
-0.288034830289736,1118.7194567476
-0.297694232402711,1118.7294567476
-0.307218219477281,1118.7394567476
-0.315672101338109,1118.7494567476
-0.322299782059151,1118.7594567476
-0.323421623685321,1118.7694567476
-0.31719368092509,1118.7794567476
-0.302271959992484,1118.7894567476
-0.277250404636894,1118.7994567476
-0.242884072111513,1118.8094567476
-0.201234533073716,1118.8194567476
-0.156032481145799,1118.8294567476
-0.11117963346366,1118.8394567476
-0.0693671832500333,1118.8494567476
-0.0332870607090291,1118.8594567476
-0.00422832196928776,1118.8694567476
0.0170795341991413,1118.8794567476
0.0314001463635837,1118.8894567476
0.0394291056360967,1118.8994567476
0.0428364349305538,1118.9094567476
0.0433649327176776,1118.9194567476
0.0420573338770834,1118.9294567476
0.0400689485367161,1118.9394567476
0.0380922631817522,1118.9494567476
0.0370441313241976,1118.9594567476
0.0365592815168132,1118.9694567476
0.0360550074263588,1118.9794567476
0.0355745834319554,1118.9894567476
0.0337992808790246,1118.9994567476
0.0300529278119042,1119.0094567476
0.0240524071133558,1119.0194567476
0.0156746783634144,1119.0294567476
0.00559188198146098,1119.0394567476
-0.00661876016774598,1119.0494567476
-0.0195006746688173,1119.0594567476
-0.0314929715594231,1119.0694567476
-0.0423301335859398,1119.0794567476
-0.0523864252009722,1119.0894567476
-0.0607896938759531,1119.0994567476
-0.0679257343582998,1119.1094567476
-0.0742846389516438,1119.1194567476
-0.0792557826794576,1119.1294567476
-0.0832191786989768,1119.1394567476
-0.0871583149317732,1119.1494567476
-0.0911845312998492,1119.1594567476
-0.0949522792131538,1119.1694567476
-0.0987685296021091,1119.1794567476
-0.10296183043561,1119.1894567476
-0.108305022507176,1119.1994567476
-0.114242506278685,1119.2094567476
-0.121716361683257,1119.2194567476
-0.129828321398666,1119.2294567476
-0.139072156913638,1119.2394567476
-0.149271034272148,1119.2494567476
-0.160199163449101,1119.2594567476
-0.171199109454587,1119.2694567476
-0.182288148334567,1119.2794567476
-0.193134708592269,1119.2894567476
-0.203301849221391,1119.2994567476
-0.212583924933534,1119.3094567476
-0.222001517122784,1119.3194567476
-0.231090480804359,1119.3294567476
-0.240348024659864,1119.3394567476
-0.249368416371261,1119.3494567476
-0.258766190909326,1119.3594567476
-0.267945217429321,1119.3694567476
-0.276818214095072,1119.3794567476
-0.28549466064033,1119.3894567476
-0.294178160663678,1119.3994567476
-0.303323343783047,1119.4094567476
-0.312272008714091,1119.4194567476
-0.32174896451693,1119.4294567476
-0.332101730823795,1119.4394567476
-0.342542392889012,1119.4494567476
-0.352716595411272,1119.4594567476
-0.36199529448065,1119.4694567476
-0.370742922456844,1119.4794567476
-0.378825744129746,1119.4894567476
-0.386524816437214,1119.4994567476
-0.393880399510867,1119.5094567476
-0.400947899574021,1119.5194567476
-0.406238422577866,1119.5294567476
-0.407179509384541,1119.5394567476
-0.401867529660427,1119.5494567476
-0.388001971617018,1119.5594567476
-0.364827378761908,1119.5694567476
-0.333282452236107,1119.5794567476
-0.29453270944481,1119.5894567476
-0.250495178409862,1119.5994567476
-0.204587550032959,1119.6094567476
-0.160767421387541,1119.6194567476
-0.122429289424117,1119.6294567476
-0.0906681493247334,1119.6394567476
-0.0663637886569794,1119.6494567476
-0.0485227094669397,1119.6594567476
-0.0365295300266068,1119.6694567476
-0.0287436503142276,1119.6794567476
-0.0233942375179748,1119.6894567476
-0.0199692790374476,1119.6994567476
-0.0176715403681622,1119.7094567476
-0.0158738089045058,1119.7194567476
-0.0135015417319019,1119.7294567476
-0.0108890264008106,1119.7394567476
-0.00828400707668242,1119.7494567476
-0.00591251241133301,1119.7594567476
-0.00515058288227032,1119.7694567476
-0.00601658248931127,1119.7794567476
-0.00873007406600867,1119.7894567476
-0.0135673218760008,1119.7994567476
-0.0200449598935815,1119.8094567476
-0.0280700049812812,1119.8194567476
-0.037274650103046,1119.8294567476
-0.0470586220781907,1119.8394567476
-0.0575123952593486,1119.8494567476
-0.0673034779884929,1119.8594567476
-0.0764843452255477,1119.8694567476
-0.0840382688977679,1119.8794567476
-0.0903822358162681,1119.8894567476
-0.0951526555266957,1119.8994567476
-0.0985266452134412,1119.9094567476
-0.101583275701341,1119.9194567476
-0.104225299741767,1119.9294567476
-0.106401851828664,1119.9394567476
-0.108977011902821,1119.9494567476
-0.111828782805717,1119.9594567476
-0.114974480784523,1119.9694567476
-0.119113784646625,1119.9794567476
-0.124357661854777,1119.9894567476
-0.130465324192002,1119.9994567476
-0.137157192156846,1120.0094567476
-0.144900950637319,1120.0194567476
-0.153740442410402,1120.0294567476
-0.162685778693517,1120.0394567476
-0.172115342778073,1120.0494567476
-0.181845937104787,1120.0594567476
-0.190828150883866,1120.0694567476
-0.19965234426021,1120.0794567476
-0.207411140134209,1120.0894567476
-0.214610406401627,1120.0994567476
-0.221802706624293,1120.1094567476
-0.229424801400311,1120.1194567476
-0.237022410961425,1120.1294567476
-0.244567568796758,1120.1394567476
-0.251958454532778,1120.1494567476
-0.25933605161307,1120.1594567476
-0.265996594886334,1120.1694567476
-0.272723623261336,1120.1794567476
-0.280134227600317,1120.1894567476
-0.287829768810022,1120.1994567476
-0.295709528130469,1120.2094567476
-0.303255793418323,1120.2194567476
-0.310012704674543,1120.2294567476
-0.316512200969793,1120.2394567476
-0.323083949362732,1120.2494567476
-0.330020068073557,1120.2594567476
-0.337189720761982,1120.2694567476
-0.345101416906228,1120.2794567476
-0.353101652487077,1120.2894567476
-0.361523150247011,1120.2994567476
-0.369859607614332,1120.3094567476
-0.378195995075033,1120.3194567476
-0.385989545006968,1120.3294567476
-0.393499093953813,1120.3394567476
-0.401170263731199,1120.3494567476
-0.407606112427104,1120.3594567476
-0.411929711696724,1120.3694567476
-0.411017233488433,1120.3794567476
-0.403162418224191,1120.3894567476
-0.385096499545264,1120.3994567476
-0.357215637163431,1120.4094567476
-0.319797209230162,1120.4194567476
-0.275022898471861,1120.4294567476
-0.22580894316455,1120.4394567476
-0.175553938756883,1120.4494567476
-0.127870193233744,1120.4594567476
-0.0853183584570093,1120.4694567476
-0.0501275001895104,1120.4794567476
-0.022067981545156,1120.4894567476
-0.000902302282819128,1120.4994567476
0.0142318464027317,1120.5094567476
0.0246587631795454,1120.5194567476
0.0312309918220543,1120.5294567476
0.0350838841135428,1120.5394567476
0.0373627217953451,1120.5494567476
0.0390555444204777,1120.5594567476
0.0407188233216641,1120.5694567476
0.0426911874417911,1120.5794567476
0.0453067826103947,1120.5894567476
0.0476151416667939,1120.5994567476
0.0489442967752002,1120.6094567476
0.0490413944633762,1120.6194567476
0.0473823265876473,1120.6294567476
0.0438857088335307,1120.6394567476
0.0384768970409293,1120.6494567476
0.0309172049645761,1120.6594567476
0.0217015705676614,1120.6694567476
0.0116136373322482,1120.6794567476
0.00129149770220775,1120.6894567476
-0.00825221184689634,1120.6994567476
-0.0160266111046613,1120.7094567476
-0.0222096936589479,1120.7194567476
-0.0263865991182894,1120.7294567476
-0.0289774341086856,1120.7394567476
-0.0307353809098507,1120.7494567476
-0.0313061912249975,1120.7594567476
-0.0321717578087306,1120.7694567476
-0.0332963707532426,1120.7794567476
-0.0352394685628292,1120.7894567476
-0.0376297153493404,1120.7994567476
-0.040933836119178,1120.8094567476
-0.0457298400451906,1120.8194567476
-0.0518990324520576,1120.8294567476
-0.0587668990518388,1120.8394567476
-0.0656311693205417,1120.8494567476
-0.0725509067621859,1120.8594567476
-0.0797166174090854,1120.8694567476
-0.0868524377537154,1120.8794567476
-0.0937569771814807,1120.8894567476
-0.101373076807157,1120.8994567476
-0.109099769486159,1120.9094567476
-0.11764584069329,1120.9194567476
-0.126759182623834,1120.9294567476
-0.136590184966636,1120.9394567476
-0.146919973126735,1120.9494567476
-0.156925159399402,1120.9594567476
-0.166014862190653,1120.9694567476
-0.174721117159292,1120.9794567476
-0.183104248269913,1120.9894567476
-0.191360761130983,1120.9994567476
-0.199607218019894,1121.0094567476
-0.206879375147566,1121.0194567476
-0.21417390900701,1121.0294567476
-0.221338588832475,1121.0394567476
-0.228944804498784,1121.0494567476
-0.237098452301382,1121.0594567476
-0.245955900120285,1121.0694567476
-0.255125343249724,1121.0794567476
-0.264229775404753,1121.0894567476
-0.272937570696723,1121.0994567476
-0.281876427279089,1121.1094567476
-0.290988845901126,1121.1194567476
-0.299577803621582,1121.1294567476
-0.308167092134069,1121.1394567476
-0.317181357718995,1121.1494567476
-0.32601962238656,1121.1594567476
-0.334207294159562,1121.1694567476
-0.342078565301263,1121.1794567476
-0.350340085495275,1121.1894567476
-0.358380117843927,1121.1994567476
-0.366281978708848,1121.2094567476
-0.374603202088866,1121.2194567476
-0.38253569328835,1121.2294567476
-0.389759049967507,1121.2394567476
-0.395095365917499,1121.2494567476
-0.397553700028567,1121.2594567476
-0.393801641752576,1121.2694567476
-0.381564241738781,1121.2794567476
-0.358985280749398,1121.2894567476
-0.325802636694953,1121.2994567476
-0.282326240097447,1121.3094567476
-0.2304920749812,1121.3194567476
-0.17432828684066,1121.3294567476
-0.118205375237324,1121.3394567476
-0.0661776093246004,1121.3494567476
-0.020366391719186,1121.3594567476
0.0172147186751192,1121.3694567476
0.046515955423782,1121.3794567476
0.0689801409799485,1121.3894567476
0.0853486637164199,1121.3994567476
0.0966699905440691,1121.4094567476
0.10456444545915,1121.4194567476
0.109244529487124,1121.4294567476
0.112112747391417,1121.4394567476
0.114528383838981,1121.4494567476
0.116469108859239,1121.4594567476
0.118451087338778,1121.4694567476
0.120291276830773,1121.4794567476
0.12144736157081,1121.4894567476
0.12161016705742,1121.4994567476
0.120763427709261,1121.5094567476
0.117983346157868,1121.5194567476
0.112638352691944,1121.5294567476
0.105835855265427,1121.5394567476
0.0969968785771686,1121.5494567476
0.087620574978056,1121.5594567476
0.0784464441541064,1121.5694567476
0.070193763407189,1121.5794567476
0.0629810577617745,1121.5894567476
0.0568745502520318,1121.5994567476
0.0520254413149251,1121.6094567476
0.0491746423142079,1121.6194567476
0.0472330657108476,1121.6294567476
0.0465258434129053,1121.6394567476
0.0471469503889401,1121.6494567476
0.0475651735865084,1121.6594567476
0.0477176481241909,1121.6694567476
0.0464523703225511,1121.6794567476
0.0438583744233845,1121.6894567476
0.0398225120871404,1121.6994567476
0.0343890951005947,1121.7094567476
0.0279002412067683,1121.7194567476
0.0209228820581787,1121.7294567476
0.0130420031402469,1121.7394567476
0.00544603852417527,1121.7494567476
-0.00236728265072401,1121.7594567476
-0.0103951280971459,1121.7694567476
-0.0182081162973638,1121.7794567476
-0.0263002704834161,1121.7894567476
-0.0345470677313807,1121.7994567476
-0.042939474459464,1121.8094567476
-0.0520413379384008,1121.8194567476
-0.061381352499433,1121.8294567476
-0.0708019263048358,1121.8394567476
-0.0807026952715588,1121.8494567476
-0.0904490869275785,1121.8594567476
-0.100095172581289,1121.8694567476
-0.109328328275226,1121.8794567476
-0.118234741627875,1121.8894567476
-0.127193885581124,1121.8994567476
-0.13600666915198,1121.9094567476
-0.144545362247545,1121.9194567476
-0.152685439570427,1121.9294567476
-0.161258833599478,1121.9394567476
-0.170669038370131,1121.9494567476
-0.180088239609193,1121.9594567476
-0.189886370010551,1121.9694567476
-0.199588138482738,1121.9794567476
-0.208947191309757,1121.9894567476
-0.218253845686506,1121.9994567476
-0.227314646905507,1122.0094567476
-0.236695238773999,1122.0194567476
-0.246102914695044,1122.0294567476
-0.255460098083388,1122.0394567476
-0.264867354751757,1122.0494567476
-0.274398299578862,1122.0594567476
-0.283629206678325,1122.0694567476
-0.292307291765152,1122.0794567476
-0.301384395024621,1122.0894567476
-0.31012522302634,1122.0994567476
-0.318895055105312,1122.1094567476
-0.327366462207248,1122.1194567476
-0.336597380106151,1122.1294567476
-0.345422486748058,1122.1394567476
-0.352305404600363,1122.1494567476
-0.355496485556885,1122.1594567476
-0.351763158764621,1122.1694567476
-0.338690250257535,1122.1794567476
-0.314592723889719,1122.1894567476
-0.279553561612568,1122.1994567476
-0.233955908350753,1122.2094567476
-0.181456114166839,1122.2194567476
-0.125797755042822,1122.2294567476
-0.070503118098628,1122.2394567476
-0.0194659364870891,1122.2494567476
0.0243547955265726,1122.2594567476
0.0605641033681492,1122.2694567476
0.0882569897654865,1122.2794567476
0.108499798773067,1122.2894567476
0.122061648973329,1122.2994567476
0.130488600367351,1122.3094567476
0.135061493608205,1122.3194567476
0.137046072204969,1122.3294567476
0.137903180144187,1122.3394567476
0.138173511518395,1122.3494567476
0.137396955773443,1122.3594567476
0.135832549308358,1122.3694567476
0.133981659819591,1122.3794567476
0.131604529977994,1122.3894567476
0.128201196242368,1122.3994567476
0.123476755038228,1122.4094567476
0.117768552114627,1122.4194567476
0.110622839501307,1122.4294567476
0.102553186417867,1122.4394567476
0.0936997404780005,1122.4494567476
0.0846309639511903,1122.4594567476
0.075901466446681,1122.4694567476
0.0673113741052581,1122.4794567476
0.0603034668945387,1122.4894567476
0.0546358496590507,1122.4994567476
0.0502988492575256,1122.5094567476
0.0472374357465287,1122.5194567476
0.0461753365667794,1122.5294567476
0.0462263656460657,1122.5394567476
0.0469303375456587,1122.5494567476
0.047316852152355,1122.5594567476
0.0468373216048893,1122.5694567476
0.0451436501005015,1122.5794567476
0.0420061505645084,1122.5894567476
0.038224942078481,1122.5994567476
0.032586043273823,1122.6094567476
0.0258728543620659,1122.6194567476
0.0178696679635699,1122.6294567476
0.0093996737786978,1122.6394567476
0.000552328084783676,1122.6494567476
-0.00866871617888936,1122.6594567476
-0.0170266427955189,1122.6694567476
-0.0253429867820762,1122.6794567476
-0.033619985264909,1122.6894567476
-0.0417947873546819,1122.6994567476
-0.050377426873783,1122.7094567476
-0.058724767367107,1122.7194567476
-0.0673606831936421,1122.7294567476
-0.0757410280320144,1122.7394567476
-0.0838687752444682,1122.7494567476
-0.0914558926156451,1122.7594567476
-0.0985229846729161,1122.7694567476
-0.105560945264687,1122.7794567476
-0.112326462556059,1122.7894567476
-0.119288320836452,1122.7994567476
-0.126269708730038,1122.8094567476
-0.134216157880687,1122.8194567476
-0.142640890995161,1122.8294567476
-0.151247150676932,1122.8394567476
-0.159883656679312,1122.8494567476
-0.167676350897286,1122.8594567476
-0.174682627713378,1122.8694567476
-0.1818853305861,1122.8794567476
-0.188459019156492,1122.8894567476
-0.195258787109321,1122.8994567476
-0.202696282105495,1122.9094567476
-0.211524225967546,1122.9194567476
-0.220676322258876,1122.9294567476
-0.229537929747192,1122.9394567476
-0.238118465436142,1122.9494567476
-0.24641800125195,1122.9594567476
-0.254005454248412,1122.9694567476
-0.259172319514298,1122.9794567476
-0.260457344872004,1122.9894567476
-0.254806487140843,1122.9994567476
-0.240092725410599,1123.0094567476
-0.214717495159754,1123.0194567476
-0.178530647496588,1123.0294567476
-0.132422600738522,1123.0394567476
-0.0788610876653746,1123.0494567476
-0.0211578528080808,1123.0594567476
0.0367535518400799,1123.0694567476
0.0912173453332442,1123.0794567476
0.139444996630004,1123.0894567476
0.17978160550196,1123.0994567476
0.211368888732361,1123.1094567476
0.235158114671624,1123.1194567476
0.250860758347618,1123.1294567476
0.260091484636951,1123.1394567476
0.263440344237927,1123.1494567476
0.263911222412067,1123.1594567476
0.262765712773045,1123.1694567476
0.26155088787323,1123.1794567476
0.260081681297846,1123.1894567476
0.258408450113388,1123.1994567476
0.256720537329173,1123.2094567476
0.254746462797492,1123.2194567476
0.252003044934889,1123.2294567476
0.24767031490959,1123.2394567476
0.242065201407889,1123.2494567476
0.234314505627149,1123.2594567476
0.224522747674722,1123.2694567476
0.213486622953457,1123.2794567476
0.202826617838999,1123.2894567476
0.192004762031531,1123.2994567476
0.181980062660757,1123.3094567476
0.173122377267547,1123.3194567476
0.1659277798286,1123.3294567476
0.161578282104892,1123.3394567476
0.158493564536432,1123.3494567476
0.15736791538401,1123.3594567476
0.157600828489519,1123.3694567476
0.157937203692134,1123.3794567476
0.157875349392657,1123.3894567476
0.157414425274609,1123.3994567476
0.155749473261463,1123.4094567476
0.152497077217918,1123.4194567476
0.147853246851556,1123.4294567476
0.141387344055879,1123.4394567476
0.133182779542799,1123.4494567476
0.124494125542687,1123.4594567476
0.114284184690998,1123.4694567476
0.104400072263695,1123.4794567476
0.0944136096781236,1123.4894567476
0.0846591880411043,1123.4994567476
0.0758168768950376,1123.5094567476
0.0664884394786155,1123.5194567476
0.0570153543472446,1123.5294567476
0.0470625625612159,1123.5394567476
0.036907899806851,1123.5494567476
0.026403911275456,1123.5594567476
0.0160140567584846,1123.5694567476
0.00627875638663084,1123.5794567476
-0.00323051694469688,1123.5894567476
-0.0124645431838779,1123.5994567476
-0.0217668088517744,1123.6094567476
-0.0313488196201694,1123.6194567476
-0.0410459059801202,1123.6294567476
-0.0498645402336395,1123.6394567476
-0.0586590155366838,1123.6494567476
-0.0677199601765325,1123.6594567476
-0.0765548918543934,1123.6694567476
-0.085764042139945,1123.6794567476
-0.0952023906901297,1123.6894567476
-0.105060680471981,1123.6994567476
-0.114749599756058,1123.7094567476
-0.124797713680563,1123.7194567476
-0.134741522009934,1123.7294567476
-0.144543828386774,1123.7394567476
-0.154650247502014,1123.7494567476
-0.163565674649692,1123.7594567476
-0.171964195403565,1123.7694567476
-0.18006537772432,1123.7794567476
-0.18786471263165,1123.7894567476
-0.195584723319554,1123.7994567476
-0.203216916870037,1123.8094567476
-0.211531013028371,1123.8194567476
-0.220161272930996,1123.8294567476
-0.229160818859448,1123.8394567476
-0.23710138395043,1123.8494567476
-0.242070973067119,1123.8594567476
-0.24170271817321,1123.8694567476
-0.23342676568371,1123.8794567476
-0.214073978288591,1123.8894567476
-0.182608404710776,1123.8994567476
-0.139315587133375,1123.9094567476
-0.0845395334024156,1123.9194567476
-0.0208526366164283,1123.9294567476
0.0467895995881013,1123.9394567476
0.113569012460733,1123.9494567476
0.17596152195529,1123.9594567476
0.230703255770714,1123.9694567476
0.275279167020748,1123.9794567476
0.309748935533841,1123.9894567476
0.334238055620688,1123.9994567476
0.350465386689604,1124.0094567476
0.36044876439139,1124.0194567476
0.36554288329576,1124.0294567476
0.367843660080366,1124.0394567476
0.367455526198027,1124.0494567476
0.366582328088106,1124.0594567476
0.366288327248431,1124.0694567476
0.366275851696826,1124.0794567476
0.366901137250018,1124.0894567476
0.366810600179603,1124.0994567476
0.366683072347153,1124.1094567476
0.365259992807549,1124.1194567476
0.362690427594174,1124.1294567476
0.357912112204533,1124.1394567476
0.350219460494992,1124.1494567476
0.340282556992745,1124.1594567476
0.327861193991354,1124.1694567476
0.314407812154787,1124.1794567476
0.301002941172502,1124.1894567476
0.28911253053024,1124.1994567476
0.279354252365907,1124.2094567476
0.271463932947707,1124.2194567476
0.265912990606751,1124.2294567476
0.262268314589032,1124.2394567476
0.259840691056684,1124.2494567476
0.257789997751656,1124.2594567476
0.25648288332301,1124.2694567476
0.255299586100826,1124.2794567476
0.253321297038361,1124.2894567476
0.250343379174838,1124.2994567476
0.24634620825583,1124.3094567476
0.240696722966207,1124.3194567476
0.233560849231815,1124.3294567476
0.225814717057038,1124.3394567476
0.216430568095726,1124.3494567476
0.205451287155044,1124.3594567476
0.193547861521439,1124.3694567476
0.182121427388502,1124.3794567476
0.171847616524275,1124.3894567476
0.161891431324881,1124.3994567476
0.151784777116356,1124.4094567476
0.141166486212236,1124.4194567476
0.12992488307531,1124.4294567476
0.118131746679695,1124.4394567476
0.106756135398931,1124.4494567476
0.0950730990763295,1124.4594567476
0.0834239973961686,1124.4694567476
0.0718545136182023,1124.4794567476
0.0604266045567411,1124.4894567476
0.0495052871303189,1124.4994567476
0.0387303085188779,1124.5094567476
0.027759642367893,1124.5194567476
0.0176304706304066,1124.5294567476
0.00791994294993083,1124.5394567476
-0.00153393775475016,1124.5494567476
-0.0115300379597591,1124.5594567476
-0.0223935586267654,1124.5694567476
-0.0333776752402893,1124.5794567476
-0.0441174301470244,1124.5894567476
-0.0541966092762149,1124.5994567476
-0.0637125880819513,1124.6094567476
-0.0728670990019942,1124.6194567476
-0.0821018529004802,1124.6294567476
-0.0911944289644022,1124.6394567476
-0.100961732859111,1124.6494567476
-0.1105373064928,1124.6594567476
-0.120430352156247,1124.6694567476
-0.130465932603191,1124.6794567476
-0.139821287874973,1124.6894567476
-0.149348085094143,1124.6994567476
-0.159152737669912,1124.7094567476
-0.168675297381518,1124.7194567476
-0.177607570980843,1124.7294567476
-0.186086498760454,1124.7394567476
-0.194571663159642,1124.7494567476
-0.202541336230268,1124.7594567476
-0.209070675074745,1124.7694567476
-0.212394259644316,1124.7794567476
-0.209541068677371,1124.7894567476
-0.197664521927501,1124.7994567476
-0.174129649889948,1124.8094567476
-0.137659992967749,1124.8194567476
-0.0878733891770118,1124.8294567476
-0.0270356421673264,1124.8394567476
0.0417514384796289,1124.8494567476
0.113943769715812,1124.8594567476
0.184607712941791,1124.8694567476
0.248739732677435,1124.8794567476
0.304072609183536,1124.8894567476
0.348535371382181,1124.8994567476
0.382663251499557,1124.9094567476
0.407054634865126,1124.9194567476
0.423004307007578,1124.9294567476
0.433036006959811,1124.9394567476
0.437837218240609,1124.9494567476
0.438985504376861,1124.9594567476
0.43829426793923,1124.9694567476
0.436661776335435,1124.9794567476
0.43419069512999,1124.9894567476
0.432196085898693,1124.9994567476
0.43050649097738,1125.0094567476
0.428983544620196,1125.0194567476
0.427367606934693,1125.0294567476
0.424798468580198,1125.0394567476
0.420330469980168,1125.0494567476
0.413403577600205,1125.0594567476
0.403997957661384,1125.0694567476
0.392423762479728,1125.0794567476
0.379051296200763,1125.0894567476
0.364977725213352,1125.0994567476
0.35171084990032,1125.1094567476
0.339777819904121,1125.1194567476
0.32959576715224,1125.1294567476
0.321405067018168,1125.1394567476
0.315561320156388,1125.1494567476
0.31165163324911,1125.1594567476
0.309132606346367,1125.1694567476
0.307502101230721,1125.1794567476
0.305796071053105,1125.1894567476
0.303952860430142,1125.1994567476
0.301147227674201,1125.2094567476
0.296757173300484,1125.2194567476
0.290952319887656,1125.2294567476
0.283629368789019,1125.2394567476
0.275243473941491,1125.2494567476
0.265700309386977,1125.2594567476
0.254828290126264,1125.2694567476
0.242708910963749,1125.2794567476
0.229707433011296,1125.2894567476
0.216679920003013,1125.2994567476
0.203775073386844,1125.3094567476
0.191700068247835,1125.3194567476
0.180150844303319,1125.3294567476
0.168557716663519,1125.3394567476
0.156787848420677,1125.3494567476
0.144471009800839,1125.3594567476
0.131943091110362,1125.3694567476
0.119267418344553,1125.3794567476
0.106659050442058,1125.3894567476
0.0934885508466478,1125.3994567476
0.0808998255913493,1125.4094567476
0.0690736772861689,1125.4194567476
0.0581603644921789,1125.4294567476
0.0480513164240835,1125.4394567476
0.0379967088223198,1125.4494567476
0.0281463830973009,1125.4594567476
0.0184531324446958,1125.4694567476
0.00839410175303315,1125.4794567476
-0.00169735244095994,1125.4894567476
-0.0119121224004821,1125.4994567476
-0.0218764245317485,1125.5094567476
-0.0322583817994481,1125.5194567476
-0.0419412237624128,1125.5294567476
-0.0519223338039698,1125.5394567476
-0.0623035056017502,1125.5494567476
-0.0725526496921971,1125.5594567476
-0.0831351143963964,1125.5694567476
-0.0935364233969305,1125.5794567476
-0.102956298255883,1125.5894567476
-0.112442262270653,1125.5994567476
-0.121692511614012,1125.6094567476
-0.131031680209899,1125.6194567476
-0.140624470667351,1125.6294567476
-0.150182736259361,1125.6394567476
-0.159916176631689,1125.6494567476
-0.169421915070068,1125.6594567476
-0.178364015888167,1125.6694567476
-0.186069975191057,1125.6794567476
-0.190445265962991,1125.6894567476
-0.188262048733312,1125.6994567476
-0.176251051824139,1125.7094567476
-0.152576453868258,1125.7194567476
-0.115113260568594,1125.7294567476
-0.064860760356897,1125.7394567476
-0.00369598574699036,1125.7494567476
0.0651683776522043,1125.7594567476
0.136231794577302,1125.7694567476
0.205157019450873,1125.7794567476
0.26803971812829,1125.7894567476
0.321391078117056,1125.7994567476
0.364186907004172,1125.8094567476
0.395496023160678,1125.8194567476
0.416534763934023,1125.8294567476
0.429850246077458,1125.8394567476
0.436765067074936,1125.8494567476
0.438270847299386,1125.8594567476
0.435560516572525,1125.8694567476
0.430353056525629,1125.8794567476
0.424244853372573,1125.8894567476
0.417420209838472,1125.8994567476
0.411111246519727,1125.9094567476
0.405564383960755,1125.9194567476
0.399814124511429,1125.9294567476
0.393359907456951,1125.9394567476
0.385115515306626,1125.9494567476
0.374938664802291,1125.9594567476
0.362620863152815,1125.9694567476
0.34882365433742,1125.9794567476
0.334238644861079,1125.9894567476
0.319651487269755,1125.9994567476
0.306152002701158,1126.0094567476
0.293829053078541,1126.0194567476
0.283762624567387,1126.0294567476
0.275858606525867,1126.0394567476
0.270521945705224,1126.0494567476
0.26823712493099,1126.0594567476
0.267759619578782,1126.0694567476
0.268608222385014,1126.0794567476
0.270073193083306,1126.0894567476
0.271212891353985,1126.0994567476
0.270738160387682,1126.1094567476
0.269178555624552,1126.1194567476
0.265174488231185,1126.1294567476
0.260180511261347,1126.1394567476
0.253260463754106,1126.1494567476
0.245507701759325,1126.1594567476
0.236113610119612,1126.1694567476
0.225020807555981,1126.1794567476
0.212745490273957,1126.1894567476
0.199632116116449,1126.1994567476
0.18717800799722,1126.2094567476
0.175158468847652,1126.2194567476
0.163684245009209,1126.2294567476
0.152514082557079,1126.2394567476
0.141455750570663,1126.2494567476
0.130263652585988,1126.2594567476
0.118791119999904,1126.2694567476
0.107968911309849,1126.2794567476
0.0975211828311598,1126.2894567476
0.0872902781922349,1126.2994567476
0.0780246475485468,1126.3094567476
0.0688218002084534,1126.3194567476
0.0596227915662988,1126.3294567476
0.049794974336204,1126.3394567476
0.039885903981287,1126.3494567476
0.0302570192313914,1126.3594567476
0.020796621324598,1126.3694567476
0.0117899298696927,1126.3794567476
0.00284058072161308,1126.3894567476
-0.00535235350079839,1126.3994567476
-0.0139492516840579,1126.4094567476
-0.0233860023997913,1126.4194567476
-0.0330184980557056,1126.4294567476
-0.0427753066330945,1126.4394567476
-0.0522479011245073,1126.4494567476
-0.0620823674169715,1126.4594567476
-0.0712689144749438,1126.4694567476
-0.0802239869377864,1126.4794567476
-0.0879191799102141,1126.4894567476
-0.0934952284389979,1126.4994567476
-0.0945383920758774,1126.5094567476
-0.0886023218391498,1126.5194567476
-0.0712932975322134,1126.5294567476
-0.0405857274469417,1126.5394567476
0.00492746884810386,1126.5494567476
0.0640615363799464,1126.5594567476
0.132717851912634,1126.5694567476
0.20747997907637,1126.5794567476
0.28197079654191,1126.5894567476
0.351649052714966,1126.5994567476
0.412634935767307,1126.6094567476
0.463020880219488,1126.6194567476
0.502104025089936,1126.6294567476
0.529814361088141,1126.6394567476
0.548490539178797,1126.6494567476
0.558889696368423,1126.6594567476
0.563491342530457,1126.6694567476
0.564299995392929,1126.6794567476
0.56278250525837,1126.6894567476
0.560103896711943,1126.6994567476
0.556372302997297,1126.7094567476
0.551824614152602,1126.7194567476
0.547016435868969,1126.7294567476
0.541791139673211,1126.7394567476
0.536103276540818,1126.7494567476
0.528886332834787,1126.7594567476
0.520329766024476,1126.7694567476
0.509335938312739,1126.7794567476
0.495981036039405,1126.7894567476
0.481560726282891,1126.7994567476
0.465425959341897,1126.8094567476
0.449099654348386,1126.8194567476
0.433292237390021,1126.8294567476
0.419201377784642,1126.8394567476
0.407706570069928,1126.8494567476
0.399081596811157,1126.8594567476
0.392317260868755,1126.8694567476
0.387556952683844,1126.8794567476
0.38458994968984,1126.8894567476
0.383084614843403,1126.8994567476
0.382082278512443,1126.9094567476
0.380637285124982,1126.9194567476
0.379232478094314,1126.9294567476
0.3759528716041,1126.9394567476
0.371246611541234,1126.9494567476
0.365320864731476,1126.9594567476
0.357216133223029,1126.9694567476
0.347547072095694,1126.9794567476
0.336231258952825,1126.9894567476
0.324606601850274,1126.9994567476
0.31258237502211,1127.0094567476
0.299716125102205,1127.0194567476
0.286654696626646,1127.0294567476
0.272430580697056,1127.0394567476
0.258046643843485,1127.0494567476
0.243863547907766,1127.0594567476
0.229898497992776,1127.0694567476
0.216101860084721,1127.0794567476
0.202874977518611,1127.0894567476
0.189406098214928,1127.0994567476
0.176236483446087,1127.1094567476
0.163593765955947,1127.1194567476
0.151288951112535,1127.1294567476
0.139405701341109,1127.1394567476
0.127297579882773,1127.1494567476
0.116053176718018,1127.1594567476
0.105310158946928,1127.1694567476
0.094683235914522,1127.1794567476
0.0838704800645689,1127.1894567476
0.0730642696711665,1127.1994567476
0.0616404728732254,1127.2094567476
0.0508581964657262,1127.2194567476
0.04020581385839,1127.2294567476
0.0296119245709743,1127.2394567476
0.0191227530455677,1127.2494567476
0.00795826001641417,1127.2594567476
-0.00310192024415669,1127.2694567476
-0.0143324389911924,1127.2794567476
-0.0247528470137252,1127.2894567476
-0.0337181811026342,1127.2994567476
-0.0396727428818664,1127.3094567476
-0.0390463458828716,1127.3194567476
-0.0287608153646875,1127.3294567476
-0.00589385699553999,1127.3394567476
0.0320720921997469,1127.3494567476
0.0852707143583016,1127.3594567476
0.15211741820298,1127.3694567476
0.229434183933167,1127.3794567476
0.31036208151657,1127.3894567476
0.38952323896271,1127.3994567476
0.461334322284845,1127.4094567476
0.523232492633794,1127.4194567476
0.572158023873767,1127.4294567476
0.608683538943738,1127.4394567476
0.634317006715593,1127.4494567476
0.651494121263218,1127.4594567476
0.661294931279398,1127.4694567476
0.665566095845308,1127.4794567476
0.665918892119073,1127.4894567476
0.663746984179293,1127.4994567476
0.660147489189049,1127.5094567476
0.655648902013868,1127.5194567476
0.651395379692847,1127.5294567476
0.64736812889338,1127.5394567476
0.64407675224565,1127.5494567476
0.641197348964694,1127.5594567476
0.637124431864555,1127.5694567476
0.630778234208759,1127.5794567476
0.621280267717405,1127.5894567476
0.608233406749231,1127.5994567476
0.591607858699363,1127.6094567476
0.572376424543528,1127.6194567476
0.552190247820623,1127.6294567476
0.532270371847259,1127.6394567476
0.514080421748169,1127.6494567476
0.497914649299974,1127.6594567476
0.484504456654166,1127.6694567476
0.473023855213071,1127.6794567476
0.463975427409315,1127.6894567476
0.456872774709988,1127.6994567476
0.451523244382175,1127.7094567476
0.447465865597804,1127.7194567476
0.444182179327077,1127.7294567476
0.441143340387399,1127.7394567476
0.437427486927403,1127.7494567476
0.431927762162869,1127.7594567476
0.424663685471291,1127.7694567476
0.415740631384823,1127.7794567476
0.405141774124357,1127.7894567476
0.39354615252905,1127.7994567476
0.380884557032674,1127.8094567476
0.368310696787407,1127.8194567476
0.355177911290851,1127.8294567476
0.341188312090591,1127.8394567476
0.326565380540142,1127.8494567476
0.310911414666625,1127.8594567476
0.295137965071887,1127.8694567476
0.279017782731352,1127.8794567476
0.26229265634317,1127.8894567476
0.245940888821811,1127.8994567476
0.230250376941611,1127.9094567476
0.216782322244794,1127.9194567476
0.203957979810288,1127.9294567476
0.191696954019707,1127.9394567476
0.17940418246457,1127.9494567476
0.16703374913978,1127.9594567476
0.153980770409798,1127.9694567476
0.140465038731967,1127.9794567476
0.126983515496876,1127.9894567476
0.113178896776952,1127.9994567476
0.100181813157092,1128.0094567476
0.0876616944748779,1128.0194567476
0.0754339920514275,1128.0294567476
0.0635300418396229,1128.0394567476
0.0515205950889452,1128.0494567476
0.0404149117174337,1128.0594567476
0.0304666839675285,1128.0694567476
0.0211126416490891,1128.0794567476
0.011787511681727,1128.0894567476
0.00208475761593481,1128.0994567476
-0.00746007240932225,1128.1094567476
-0.0176591631113206,1128.1194567476
-0.0278090282909543,1128.1294567476
-0.0378907087287922,1128.1394567476
-0.0481351508741124,1128.1494567476
-0.0575713430257125,1128.1594567476
-0.0652165053490768,1128.1694567476
-0.0688156617119979,1128.1794567476
-0.0649902792441001,1128.1894567476
-0.0497091811373444,1128.1994567476
-0.0197188084216617,1128.2094567476
0.0261227229955419,1128.2194567476
