PPG,time
0.0740373864795815,2371.00667939075
0.136198412748376,2371.01667939075
0.105624339433416,2371.02667939075
0.103136154172326,2371.03667939075
0.0840161664978723,2371.04667939075
0.0750787167415548,2371.05667939075
0.0593308618690471,2371.06667939075
0.0478320484596216,2371.07667939075
0.0343796239735264,2371.08667939075
0.0220662586248008,2371.09667939075
0.00991332095229618,2371.10667939075
-0.00258359791416452,2371.11667939075
-0.0148120066385125,2371.12667939075
-0.0267097233119076,2371.13667939075
-0.0383870051828741,2371.14667939075
-0.0490525910401124,2371.15667939075
-0.0599877337832829,2371.16667939075
-0.071030180320227,2371.17667939075
-0.0825482919236951,2371.18667939075
-0.0945785419603206,2371.19667939075
-0.10625427208939,2371.20667939075
-0.118583105687254,2371.21667939075
-0.13062241259362,2371.22667939075
-0.142658807831938,2371.23667939075
-0.154436176452244,2371.24667939075
-0.164314728383185,2371.25667939075
-0.170128930597492,2371.26667939075
-0.168624470709957,2371.27667939075
-0.157558304953881,2371.28667939075
-0.135141530630043,2371.29667939075
-0.101837130163685,2371.30667939075
-0.0588813909896716,2371.31667939075
-0.00849152345512326,2371.32667939075
0.0450910274926463,2371.33667939075
0.0997371904687278,2371.34667939075
0.152714172212514,2371.35667939075
0.202347494819165,2371.36667939075
0.246122186879979,2371.37667939075
0.283450150310998,2371.38667939075
0.31472517910643,2371.39667939075
0.340036248808391,2371.40667939075
0.359508689641421,2371.41667939075
0.374433885660847,2371.42667939075
0.38569469778448,2371.43667939075
0.394448552626265,2371.44667939075
0.400833551561211,2371.45667939075
0.40599068910001,2371.46667939075
0.41053452859052,2371.47667939075
0.414116299483065,2371.48667939075
0.416741927878158,2371.49667939075
0.418059429622654,2371.50667939075
0.416838671868089,2371.51667939075
0.413176883430048,2371.52667939075
0.406946592594002,2371.53667939075
0.398579996337287,2371.54667939075
0.388042476970605,2371.55667939075
0.377662996356856,2371.56667939075
0.368171772177572,2371.57667939075
0.359825143749244,2371.58667939075
0.353729880195534,2371.59667939075
0.348966627174229,2371.60667939075
0.345759039990649,2371.61667939075
0.343911882708892,2371.62667939075
0.343242375426972,2371.63667939075
0.343349096191643,2371.64667939075
0.343952709350904,2371.65667939075
0.344546683217512,2371.66667939075
0.345031381116654,2371.67667939075
0.344827623877593,2371.68667939075
0.343682190646055,2371.69667939075
0.340708665399914,2371.70667939075
0.337068633835973,2371.71667939075
0.331578377866294,2371.72667939075
0.32481055306891,2371.73667939075
0.317376205168095,2371.74667939075
0.308923989570762,2371.75667939075
0.299840696150363,2371.76667939075
0.289763162611317,2371.77667939075
0.279336014372581,2371.78667939075
0.267780434791426,2371.79667939075
0.255503399250365,2371.80667939075
0.242564964166074,2371.81667939075
0.229294878544283,2371.82667939075
0.21584461385716,2371.83667939075
0.201829915419561,2371.84667939075
0.186764722589278,2371.85667939075
0.171172026060278,2371.86667939075
0.154512734800514,2371.87667939075
0.138606163030858,2371.88667939075
0.123534138345404,2371.89667939075
0.109105725448104,2371.90667939075
0.095363579847903,2371.91667939075
0.0818888703613845,2371.92667939075
0.0689335191430749,2371.93667939075
0.0560693561437707,2371.94667939075
0.0432956666627998,2371.95667939075
0.0305774985026676,2371.96667939075
0.0184379777453397,2371.97667939075
0.00628327159794828,2371.98667939075
-0.005023154166642,2371.99667939075
-0.0162067705276652,2372.00667939075
-0.0281867630440341,2372.01667939075
-0.0402425254818289,2372.02667939075
-0.0528318075814644,2372.03667939075
-0.0655141901731323,2372.04667939075
-0.0779394254275586,2372.05667939075
-0.0899470212985665,2372.06667939075
-0.100230402222384,2372.07667939075
-0.107663467234845,2372.08667939075
-0.110010301434006,2372.09667939075
-0.103903015612452,2372.10667939075
-0.0871073212931653,2372.11667939075
-0.0574384455540021,2372.12667939075
-0.0157564484410863,2372.13667939075
0.0362459654622144,2372.14667939075
0.0956319021643717,2372.15667939075
0.159034979640173,2372.16667939075
0.222802412931607,2372.17667939075
0.28334083465887,2372.18667939075
0.338441487651931,2372.19667939075
0.386261559495614,2372.20667939075
0.426498377963601,2372.21667939075
0.45944322511333,2372.22667939075
0.485787360897094,2372.23667939075
0.506050908806022,2372.24667939075
0.521171309128737,2372.25667939075
0.532440106730527,2372.26667939075
0.540987109413074,2372.27667939075
0.548004696823826,2372.28667939075
0.553395792607664,2372.29667939075
0.558111154631298,2372.30667939075
0.562298040560637,2372.31667939075
0.565627158180572,2372.32667939075
0.567932022769247,2372.33667939075
0.568126654724978,2372.34667939075
0.565580175145131,2372.35667939075
0.559826916422237,2372.36667939075
0.551450857203847,2372.37667939075
0.540259580903071,2372.38667939075
0.527610851474263,2372.39667939075
0.515206300774969,2372.40667939075
0.503782642842154,2372.41667939075
0.494311400894482,2372.42667939075
0.486941186569035,2372.43667939075
0.482228541908741,2372.44667939075
0.479232312966737,2372.45667939075
0.477739467912051,2372.46667939075
0.477275880995778,2372.47667939075
0.477314045857171,2372.48667939075
0.477602938197864,2372.49667939075
0.477655965778845,2372.50667939075
0.476869815318173,2372.51667939075
0.475078312279963,2372.52667939075
0.472449840364545,2372.53667939075
0.468633302688815,2372.54667939075
0.463543682997234,2372.55667939075
0.457099251278241,2372.56667939075
0.449992269633504,2372.57667939075
0.441317205502234,2372.58667939075
0.4319071105123,2372.59667939075
0.421527906642382,2372.60667939075
0.410620062442813,2372.61667939075
0.399060097107614,2372.62667939075
0.386668755819727,2372.63667939075
0.373322668341561,2372.64667939075
0.35973466873375,2372.65667939075
0.346028693006892,2372.66667939075
0.331785184210714,2372.67667939075
0.317749148040926,2372.68667939075
0.303638991561084,2372.69667939075
0.288920135361007,2372.70667939075
0.273594639303865,2372.71667939075
0.258539498500871,2372.72667939075
0.24327930190195,2372.73667939075
0.227821103505023,2372.74667939075
0.212725334176218,2372.75667939075
0.19831257188063,2372.76667939075
0.183963691199109,2372.77667939075
0.170005952541691,2372.78667939075
0.15636580704224,2372.79667939075
0.142860953536469,2372.80667939075
0.130035293510147,2372.81667939075
0.117792796317817,2372.82667939075
0.105660073834886,2372.83667939075
0.093634693521461,2372.84667939075
0.0816738168379641,2372.85667939075
0.0696890440841574,2372.86667939075
0.0572169629281313,2372.87667939075
0.0445654043196165,2372.88667939075
0.0323007760423866,2372.89667939075
0.0204311115551295,2372.90667939075
0.00867639648964466,2372.91667939075
-0.00254385465520421,2372.92667939075
-0.0140726358749292,2372.93667939075
-0.025606025405464,2372.94667939075
-0.037512763347448,2372.95667939075
-0.0493989706117169,2372.96667939075
-0.0609968690507886,2372.97667939075
-0.071022041032941,2372.98667939075
-0.0772718603484118,2372.99667939075
-0.0762046015899846,2373.00667939075
-0.064414568184486,2373.01667939075
-0.0391713122988699,2373.02667939075
0.000846805501218829,2373.03667939075
0.0546661977834698,2373.04667939075
0.119360902399428,2373.05667939075
0.192910187664993,2373.06667939075
0.2699027105687,2373.07667939075
0.346927990965842,2373.08667939075
0.419656853664163,2373.09667939075
0.484653687416996,2373.10667939075
0.541018059539405,2373.11667939075
0.587307783906529,2373.12667939075
0.624850680765541,2373.13667939075
0.654433339697854,2373.14667939075
0.677731771502273,2373.15667939075
0.696316250331701,2373.16667939075
0.711327858697043,2373.17667939075
0.723442375621525,2373.18667939075
0.733295354333684,2373.19667939075
0.741519268311421,2373.20667939075
0.748840505623968,2373.21667939075
0.755331033395226,2373.22667939075
0.761337372422873,2373.23667939075
0.766992852832738,2373.24667939075
0.770746064907452,2373.25667939075
0.77195916135903,2373.26667939075
0.77000058659993,2373.27667939075
0.764012379381666,2373.28667939075
0.754483780852162,2373.29667939075
0.743411938124164,2373.30667939075
0.731393251594964,2373.31667939075
0.71998891582552,2373.32667939075
0.709252074491178,2373.33667939075
0.699911831788338,2373.34667939075
0.691879209899444,2373.35667939075
0.685705736964957,2373.36667939075
0.681296784725434,2373.37667939075
0.678405444830523,2373.38667939075
0.676514333999706,2373.39667939075
0.674500464870933,2373.40667939075
0.671832147624961,2373.41667939075
0.666885943672678,2373.42667939075
0.659945218582635,2373.43667939075
0.651142478539006,2373.44667939075
0.640466002799995,2373.45667939075
0.628382972307465,2373.46667939075
0.614498698096593,2373.47667939075
0.599240572553729,2373.48667939075
0.582786594946388,2373.49667939075
0.566047145762807,2373.50667939075
0.54814932736272,2373.51667939075
0.529516619842854,2373.52667939075
0.509987113630531,2373.53667939075
0.489239489438928,2373.54667939075
0.46700554966854,2373.55667939075
0.443320437561871,2373.56667939075
0.417965548983072,2373.57667939075
0.390839133950233,2373.58667939075
0.36117113652491,2373.59667939075
0.329951789850534,2373.60667939075
0.295494062083214,2373.61667939075
0.259220072909317,2373.62667939075
0.2204803078698,2373.63667939075
0.179774169575889,2373.64667939075
0.13903394279551,2373.65667939075
0.0989052604983739,2373.66667939075
0.0612037180174043,2373.67667939075
0.0255963679319662,2373.68667939075
-0.00696325094721259,2373.69667939075
-0.0366753211273196,2373.70667939075
-0.0636213309626622,2373.71667939075
-0.0882425586244181,2373.72667939075
-0.111128086735936,2373.73667939075
-0.13295032721804,2373.74667939075
-0.15361354389299,2373.75667939075
-0.173980454875863,2373.76667939075
-0.194292064696487,2373.77667939075
-0.213710748554063,2373.78667939075
-0.232412587832291,2373.79667939075
-0.250110377748288,2373.80667939075
-0.267391590214862,2373.81667939075
-0.283683267780463,2373.82667939075
-0.299269624290176,2373.83667939075
-0.313868903754082,2373.84667939075
-0.328107870251,2373.85667939075
-0.341121883577265,2373.86667939075
-0.353327547167561,2373.87667939075
-0.36389268942424,2373.88667939075
-0.373203630559514,2373.89667939075
-0.379787692688357,2373.90667939075
-0.382441779334893,2373.91667939075
-0.379647478351701,2373.92667939075
-0.367606099692991,2373.93667939075
-0.343787439370571,2373.94667939075
-0.305352400485479,2373.95667939075
-0.250954487761439,2373.96667939075
-0.18192613695486,2373.97667939075
-0.100177394680882,2373.98667939075
-0.00919567674423313,2373.99667939075
0.0851996178680098,2374.00667939075
0.179834556917252,2374.01667939075
0.270238242390312,2374.02667939075
0.352953747381586,2374.03667939075
0.4264031936577,2374.04667939075
0.489930544601949,2374.05667939075
0.543772664879934,2374.06667939075
0.588721054383945,2374.07667939075
0.625904270121,2374.08667939075
0.656082902282334,2374.09667939075
0.680464767790526,2374.10667939075
0.700625858127626,2374.11667939075
0.71694473486407,2374.12667939075
0.730970724764822,2374.13667939075
0.743216267946367,2374.14667939075
0.753879432497805,2374.15667939075
0.76281148869461,2374.16667939075
0.769656657764201,2374.17667939075
0.774158483220168,2374.18667939075
0.77551548121084,2374.19667939075
0.773166913807561,2374.20667939075
0.767625540453853,2374.21667939075
0.758620281947262,2374.22667939075
0.747575959644668,2374.23667939075
0.736690363661499,2374.24667939075
0.725669290121994,2374.25667939075
0.716158079885591,2374.26667939075
0.709127149859958,2374.27667939075
0.703930409591773,2374.28667939075
0.701189750118373,2374.29667939075
0.70043792280594,2374.30667939075
0.701217486343039,2374.31667939075
0.702550483964958,2374.32667939075
0.704148692460377,2374.33667939075
0.705526041072598,2374.34667939075
0.705640644163518,2374.35667939075
0.704602494582868,2374.36667939075
0.702094534577408,2374.37667939075
0.697616404072757,2374.38667939075
0.691720385322306,2374.39667939075
0.684690494628653,2374.40667939075
0.676793212507553,2374.41667939075
0.667871844567433,2374.42667939075
0.657798815416325,2374.43667939075
0.645899597548549,2374.44667939075
0.633127203025519,2374.45667939075
0.619160227888321,2374.46667939075
0.603974168871609,2374.47667939075
0.587958635127397,2374.48667939075
0.571340823225102,2374.49667939075
0.555194957891066,2374.50667939075
0.537903222087849,2374.51667939075
0.520588022509907,2374.52667939075
0.503202826848346,2374.53667939075
0.485302293250612,2374.54667939075
0.467136355382478,2374.55667939075
0.448593432468483,2374.56667939075
0.430193953079683,2374.57667939075
0.411850899953936,2374.58667939075
0.393390114235533,2374.59667939075
0.374474146256818,2374.60667939075
0.355411697241038,2374.61667939075
0.336044977774835,2374.62667939075
0.317354397352953,2374.63667939075
0.298817946637071,2374.64667939075
0.281326695227439,2374.65667939075
0.264434997435761,2374.66667939075
0.248072429026073,2374.67667939075
0.231369983501957,2374.68667939075
0.214755832802754,2374.69667939075
0.198429835033998,2374.70667939075
0.181869502537242,2374.71667939075
0.165777286760317,2374.72667939075
0.149290019990356,2374.73667939075
0.13296163865514,2374.74667939075
0.116794864178393,2374.75667939075
0.100789929151568,2374.76667939075
0.0846208285751054,2374.77667939075
0.0686239909765761,2374.78667939075
0.052929882788281,2374.79667939075
0.0399659220491031,2374.80667939075
0.0324309830007398,2374.81667939075
0.0345119622186063,2374.82667939075
0.0501444836273701,2374.83667939075
0.0812290277790266,2374.84667939075
0.128252346689756,2374.85667939075
0.190246557596034,2374.86667939075
0.263656585182854,2374.87667939075
0.34350825390646,2374.88667939075
0.425550715737903,2374.89667939075
0.50339484689575,2374.90667939075
0.572776780758617,2374.91667939075
0.631100497941358,2374.92667939075
0.677146582337324,2374.93667939075
0.711441987837744,2374.94667939075
0.735068290462733,2374.95667939075
0.75073245080074,2374.96667939075
0.759240761032041,2374.97667939075
0.763941391539894,2374.98667939075
0.765700622501007,2374.99667939075
0.766005404560025,2375.00667939075
0.765157150445028,2375.01667939075
0.763778444783927,2375.02667939075
0.761391445379512,2375.03667939075
0.757671216853849,2375.04667939075
0.752187002099383,2375.05667939075
0.743703137946649,2375.06667939075
0.731191237839513,2375.07667939075
0.715189477733122,2375.08667939075
0.696398717159928,2375.09667939075
0.676315408953703,2375.10667939075
0.657028934302261,2375.11667939075
0.638657367645706,2375.12667939075
0.622282507680423,2375.13667939075
0.609145612840781,2375.14667939075
0.598707408045446,2375.15667939075
0.591986119724814,2375.16667939075
0.588446152839597,2375.17667939075
0.587603822569121,2375.18667939075
0.588357651231138,2375.19667939075
0.59035025412541,2375.20667939075
0.592412863789448,2375.21667939075
0.593636150216408,2375.22667939075
0.594219396275045,2375.23667939075
0.593092393770517,2375.24667939075
0.590197208514311,2375.25667939075
0.58512488650313,2375.26667939075
0.578570701282029,2375.27667939075
0.570612198441474,2375.28667939075
0.560965127435824,2375.29667939075
0.550664189071264,2375.30667939075
0.539292407307857,2375.31667939075
0.527263375934628,2375.32667939075
0.514598343290064,2375.33667939075
0.500672000752261,2375.34667939075
0.485960048244244,2375.35667939075
0.470188050882159,2375.36667939075
0.453804218052558,2375.37667939075
0.43687744472345,2375.38667939075
0.419763252865977,2375.39667939075
0.403016612593559,2375.40667939075
0.386129738812496,2375.41667939075
0.369245987746795,2375.42667939075
0.352986935193259,2375.43667939075
0.336674224049346,2375.44667939075
0.320487352609863,2375.45667939075
0.304420042522836,2375.46667939075
0.288151295521545,2375.47667939075
0.272235579842569,2375.48667939075
0.256538141064807,2375.49667939075
0.241321673517533,2375.50667939075
0.226733350672459,2375.51667939075
0.212996735025882,2375.52667939075
0.199597425671086,2375.53667939075
0.186560176807932,2375.54667939075
0.173591990173113,2375.55667939075
0.160820452277478,2375.56667939075
0.14756880208496,2375.57667939075
0.134210318370494,2375.58667939075
0.120928062699238,2375.59667939075
0.107561716337184,2375.60667939075
0.0938261920771188,2375.61667939075
0.0804690273509613,2375.62667939075
0.0688741930594323,2375.63667939075
0.0613346469834835,2375.64667939075
0.0619422560757916,2375.65667939075
0.0752552349006604,2375.66667939075
0.104074495069559,2375.67667939075
0.150422119321515,2375.68667939075
0.213505770896052,2375.69667939075
0.290175726313116,2375.70667939075
0.376081495861865,2375.71667939075
0.464800928839052,2375.72667939075
0.55104675536277,2375.73667939075
0.629024132538361,2375.74667939075
0.695013439673345,2375.75667939075
0.74843995734024,2375.76667939075
0.788924100849922,2375.77667939075
0.817280395402404,2375.78667939075
0.836334710918995,2375.79667939075
0.847752703288685,2375.80667939075
0.853961414702247,2375.81667939075
0.856521052472831,2375.82667939075
0.856309360137953,2375.83667939075
0.854522246636701,2375.84667939075
0.851320894228788,2375.85667939075
0.847065037663601,2375.86667939075
0.841232735636662,2375.87667939075
0.833001754824394,2375.88667939075
0.822159995417223,2375.89667939075
0.808015532910037,2375.90667939075
0.790985292997709,2375.91667939075
0.770507458029041,2375.92667939075
0.747395331816557,2375.93667939075
0.723428384376975,2375.94667939075
0.700411104043016,2375.95667939075
0.679706308817433,2375.96667939075
0.662603234681131,2375.97667939075
0.649507325992447,2375.98667939075
0.640342395589521,2375.99667939075
0.635346355742942,2376.00667939075
0.633256841163552,2376.01667939075
0.633546261042032,2376.02667939075
0.634963904691086,2376.03667939075
0.636811864767737,2376.04667939075
0.637906332682422,2376.05667939075
0.63817065238689,2376.06667939075
0.637398010769061,2376.07667939075
0.634879383500593,2376.08667939075
0.630372016927834,2376.09667939075
0.624147107081245,2376.10667939075
0.616408582921678,2376.11667939075
0.60726462999727,2376.12667939075
0.597655178996056,2376.13667939075
0.587007032624128,2376.14667939075
0.576020404327073,2376.15667939075
0.56378379316894,2376.16667939075
0.549923048811517,2376.17667939075
0.534989557587183,2376.18667939075
0.519091865082501,2376.19667939075
0.502406014866304,2376.20667939075
0.485444281371348,2376.21667939075
0.468015322821386,2376.22667939075
0.450717300892184,2376.23667939075
0.433704179868838,2376.24667939075
0.41637246613548,2376.25667939075
0.399269999488264,2376.26667939075
0.381694317725367,2376.27667939075
0.364356739355809,2376.28667939075
0.347580909133697,2376.29667939075
0.331996803080452,2376.30667939075
0.317289229750628,2376.31667939075
0.302921855294594,2376.32667939075
0.289602786541895,2376.33667939075
0.277184432512339,2376.34667939075
0.264734155286277,2376.35667939075
0.252394826587017,2376.36667939075
0.240285800236809,2376.37667939075
0.228279665659512,2376.38667939075
0.216694906394425,2376.39667939075
0.204599156523215,2376.40667939075
0.19215572232544,2376.41667939075
0.178721792099322,2376.42667939075
0.164736569283644,2376.43667939075
0.150499431130023,2376.44667939075
0.137062063346422,2376.45667939075
0.126724489787576,2376.46667939075
0.122869255511,2376.47667939075
0.129504515851699,2376.48667939075
0.151134332282279,2376.49667939075
0.19122587857951,2376.50667939075
0.250512623579992,2376.51667939075
0.328315500074329,2376.52667939075
0.420658177791848,2376.53667939075
0.521793594379752,2376.54667939075
0.624825598586528,2376.55667939075
0.723081311579155,2376.56667939075
0.810613091110445,2376.57667939075
0.884457441618801,2376.58667939075
0.94394626495467,2376.59667939075
0.989378728075104,2376.60667939075
1.0231936452676,2376.61667939075
1.04965292138261,2376.62667939075
1.07032529652131,2376.63667939075
1.08469827289135,2376.64667939075
1.09395823900185,2376.65667939075
1.0989802984141,2376.66667939075
1.10072873961051,2376.67667939075
1.10169830868403,2376.68667939075
1.10314364278164,2376.69667939075
1.10535856431449,2376.70667939075
1.10509500246606,2376.71667939075
1.10094222127506,2376.72667939075
1.09198844494676,2376.73667939075
1.07834358035536,2376.74667939075
1.06193223885087,2376.75667939075
1.04473798196348,2376.76667939075
1.02788101555767,2376.77667939075
1.01017392135219,2376.78667939075
0.991925224496819,2376.79667939075
0.97445775932754,2376.80667939075
0.95931019241034,2376.81667939075
0.947793868550906,2376.82667939075
0.94200077742121,2376.83667939075
0.941082444817083,2376.84667939075
0.941636876201598,2376.85667939075
0.94162821684571,2376.86667939075
0.940419579150194,2376.87667939075
0.938424022797494,2376.88667939075
0.936710331314447,2376.89667939075
0.936059038967049,2376.90667939075
0.936199515630358,2376.91667939075
0.934573475982209,2376.92667939075
0.929647456170858,2376.93667939075
0.921254501916191,2376.94667939075
0.910509641358643,2376.95667939075
0.898485603873272,2376.96667939075
0.886779559823202,2376.97667939075
0.875365176062146,2376.98667939075
0.861874872146035,2376.99667939075
0.844782221404643,2377.00667939075
0.82541660790949,2377.01667939075
0.804891557811258,2377.02667939075
0.784990150194436,2377.03667939075
0.766680542019433,2377.04667939075
0.750412631842267,2377.05667939075
0.733156957118235,2377.06667939075
0.714658556203273,2377.07667939075
0.694894858429528,2377.08667939075
0.674772422185756,2377.09667939075
0.655744265521238,2377.10667939075
0.639235417869443,2377.11667939075
0.624280367583968,2377.12667939075
0.608804769153425,2377.13667939075
0.591673580340609,2377.14667939075
0.572798582572527,2377.15667939075
0.553727108926391,2377.16667939075
0.535844439152038,2377.17667939075
0.520781451114295,2377.18667939075
0.507871861100461,2377.19667939075
0.494529575930989,2377.20667939075
0.479644477123411,2377.21667939075
0.463337804413431,2377.22667939075
0.446892799311731,2377.23667939075
0.431517170811195,2377.24667939075
0.418630758955405,2377.25667939075
0.407439022486019,2377.26667939075
0.395493678615765,2377.27667939075
0.381055948166279,2377.28667939075
0.36520433669951,2377.29667939075
0.348993889723042,2377.30667939075
0.333584960939994,2377.31667939075
0.319905354528686,2377.32667939075
0.307767479950713,2377.33667939075
0.295548969981058,2377.34667939075
0.282398850061705,2377.35667939075
0.271446163732686,2377.36667939075
0.266885443847769,2377.37667939075
0.274731608475942,2377.38667939075
0.301774918850112,2377.39667939075
0.350661853143724,2377.40667939075
0.420767935696997,2377.41667939075
0.508144829507253,2377.42667939075
0.609012668865478,2377.43667939075
0.717266493132375,2377.44667939075
0.826600414069299,2377.45667939075
0.931462375790753,2377.46667939075
1.02607361703159,2377.47667939075
1.10449988067078,2377.48667939075
1.16457498144752,2377.49667939075
1.2073541873314,2377.50667939075
1.23576705827463,2377.51667939075
1.25428132430401,2377.52667939075
1.26727634564358,2377.53667939075
1.27691764427948,2377.54667939075
1.28276953650092,2377.55667939075
1.28420150892312,2377.56667939075
1.2820613733467,2377.57667939075
1.27742632626979,2377.58667939075
1.27196981901845,2377.59667939075
1.2678743856294,2377.60667939075
1.26451257261566,2377.61667939075
1.25949413210793,2377.62667939075
1.24990908841829,2377.63667939075
1.2358572903936,2377.64667939075
1.21684500780685,2377.65667939075
1.19551882952168,2377.66667939075
1.17348190083894,2377.67667939075
1.15245703652183,2377.68667939075
1.1320143703676,2377.69667939075
1.11189778482472,2377.70667939075
1.09298815866532,2377.71667939075
1.07733176587395,2377.72667939075
1.06641564785329,2377.73667939075
1.0609538963355,2377.74667939075
1.06012933449781,2377.75667939075
1.06061270732688,2377.76667939075
1.05983000123331,2377.77667939075
1.05789585954966,2377.78667939075
1.05499226239839,2377.79667939075
1.05160981536679,2377.80667939075
1.04879963813584,2377.81667939075
1.04639487793928,2377.82667939075
1.04125528141968,2377.83667939075
1.03184691165933,2377.84667939075
1.01993327826975,2377.85667939075
1.00564537979745,2377.86667939075
0.990629100648029,2377.87667939075
0.976432004506035,2377.88667939075
0.962689924431462,2377.89667939075
0.947373419595898,2377.90667939075
0.929483672683636,2377.91667939075
0.909817173963587,2377.92667939075
0.888578452036349,2377.93667939075
0.867340309252238,2377.94667939075
0.848264661597279,2377.95667939075
0.830072141547624,2377.96667939075
0.811656773396484,2377.97667939075
0.790841465634611,2377.98667939075
0.768641106643867,2377.99667939075
0.746455831580215,2378.00667939075
0.725672796770711,2378.01667939075
0.707280985377022,2378.02667939075
0.690519760702711,2378.03667939075
0.673490534104206,2378.04667939075
0.655207414636325,2378.05667939075
0.635366258234284,2378.06667939075
0.615467972956305,2378.07667939075
0.596663629211106,2378.08667939075
0.579836686367682,2378.09667939075
0.565259564442316,2378.10667939075
0.550290064689774,2378.11667939075
0.534292960003331,2378.12667939075
0.517649863866093,2378.13667939075
0.50006986519267,2378.14667939075
0.483429734603692,2378.15667939075
0.468598666195457,2378.16667939075
0.455428362108119,2378.17667939075
0.441715135047091,2378.18667939075
0.426652115229164,2378.19667939075
0.410173900758855,2378.20667939075
0.393012000042073,2378.21667939075
0.376465111257239,2378.22667939075
0.361767455111487,2378.23667939075
0.347724670071969,2378.24667939075
0.333060906473861,2378.25667939075
0.316149245381481,2378.26667939075
0.298389643633199,2378.27667939075
0.281641794622801,2378.28667939075
0.268575223339361,2378.29667939075
0.26500324560157,2378.30667939075
0.274790114077464,2378.31667939075
0.301179924631275,2378.32667939075
0.347001894510789,2378.33667939075
0.412811472317781,2378.34667939075
0.497726424837146,2378.35667939075
0.597588859220599,2378.36667939075
0.706380453106498,2378.37667939075
0.816110888587437,2378.38667939075
0.916933193946531,2378.39667939075
1.00271797019811,2378.40667939075
1.07026153880778,2378.41667939075
1.12046936838861,2378.42667939075
1.15582876304014,2378.43667939075
1.18051606000847,2378.44667939075
1.19659217575541,2378.45667939075
1.2045610571509,2378.46667939075
1.20589166108493,2378.47667939075
1.20233609957898,2378.48667939075
1.19594088213372,2378.49667939075
1.18884061775161,2378.50667939075
1.18200381076896,2378.51667939075
1.17536825446358,2378.52667939075
1.16627773308091,2378.53667939075
1.15454925168991,2378.54667939075
1.13998798107744,2378.55667939075
1.12184326217585,2378.56667939075
1.10103314954287,2378.57667939075
1.07856444997162,2378.58667939075
1.05433582059066,2378.59667939075
1.0276631135891,2378.60667939075
0.99931609422123,2378.61667939075
0.970455229762482,2378.62667939075
0.944058296594996,2378.63667939075
0.92228239829255,2378.64667939075
0.90700072346131,2378.65667939075
0.897356078523223,2378.66667939075
0.891024424407958,2378.67667939075
0.886213096304067,2378.68667939075
0.881641051226919,2378.69667939075
0.878301615808389,2378.70667939075
0.875491297754266,2378.71667939075
0.873838248394371,2378.72667939075
0.871311616992125,2378.73667939075
0.866630009838718,2378.74667939075
0.857884825242857,2378.75667939075
0.846497001367582,2378.76667939075
0.832798709170409,2378.77667939075
0.817786965864057,2378.78667939075
0.803507862783257,2378.79667939075
0.788894327981767,2378.80667939075
0.77271375789611,2378.81667939075
0.753514810660633,2378.82667939075
0.731990334418363,2378.83667939075
0.709560379705733,2378.84667939075
0.68669421008909,2378.85667939075
0.665456290136088,2378.86667939075
0.644926771058888,2378.87667939075
0.623445813320855,2378.88667939075
0.600042414396109,2378.89667939075
0.575471257691676,2378.90667939075
0.55040155282757,2378.91667939075
0.525674104723356,2378.92667939075
0.503582437005346,2378.93667939075
0.482159818901274,2378.94667939075
0.460361191169135,2378.95667939075
0.437526463655965,2378.96667939075
0.414591461298357,2378.97667939075
0.391860003548555,2378.98667939075
0.37067211642532,2378.99667939075
0.351869229187292,2379.00667939075
0.335077053373697,2379.01667939075
0.317476580753362,2379.02667939075
0.299588153863441,2379.03667939075
0.28093886909014,2379.04667939075
0.262197267567815,2379.05667939075
0.244276398556631,2379.06667939075
0.227978515288861,2379.07667939075
0.212312351079407,2379.08667939075
0.194938078473275,2379.09667939075
0.17539495983151,2379.10667939075
0.154158855161943,2379.11667939075
0.13205366520794,2379.12667939075
0.111546037789173,2379.13667939075
0.0941905180261558,2379.14667939075
0.0805506126262477,2379.15667939075
0.0724871136673108,2379.16667939075
0.0727751338132876,2379.17667939075
0.0866296100044045,2379.18667939075
0.118232873654977,2379.19667939075
0.170123420652716,2379.20667939075
0.241754294681285,2379.21667939075
0.328192201408136,2379.22667939075
0.422002936993858,2379.23667939075
0.514709587889672,2379.24667939075
0.600326985983001,2379.25667939075
0.673512143934517,2379.26667939075
0.731606197717326,2379.27667939075
0.775963304099652,2379.28667939075
0.807570090826755,2379.29667939075
0.826283803018583,2379.30667939075
0.834194851988267,2379.31667939075
0.833568988862504,2379.32667939075
0.827686283381333,2379.33667939075
0.819061979616425,2379.34667939075
0.810265398139215,2379.35667939075
0.801213476046033,2379.36667939075
0.790280625088831,2379.37667939075
0.776826376203902,2379.38667939075
0.761411207758701,2379.39667939075
0.743779846995996,2379.40667939075
0.723778569330092,2379.41667939075
0.702352133346651,2379.42667939075
0.678707357866265,2379.43667939075
0.65164107153676,2379.44667939075
0.621032559949248,2379.45667939075
0.589841465279271,2379.46667939075
0.560515359285056,2379.47667939075
0.535102592039853,2379.48667939075
0.516203156307984,2379.49667939075
0.502741340422777,2379.50667939075
0.492610455297084,2379.51667939075
0.484246129545429,2379.52667939075
0.478228288758481,2379.53667939075
0.473395540497827,2379.54667939075
0.469699712105503,2379.55667939075
0.466565420414363,2379.56667939075
0.463660542389113,2379.57667939075
0.459474588747342,2379.58667939075
0.453190534130181,2379.59667939075
0.444858412061846,2379.60667939075
0.434891640919497,2379.61667939075
0.425150151448891,2379.62667939075
0.415067334193034,2379.63667939075
0.402258257315664,2379.64667939075
0.385654652758384,2379.65667939075
0.365396437302188,2379.66667939075
0.343368815267658,2379.67667939075
0.321690680850187,2379.68667939075
0.301327724168807,2379.69667939075
0.282970548466499,2379.70667939075
0.263113304188803,2379.71667939075
0.240163232633461,2379.72667939075
0.214749007404039,2379.73667939075
0.188743002735919,2379.74667939075
0.163251172327083,2379.75667939075
0.141158523145858,2379.76667939075
0.122260942184915,2379.77667939075
0.102847555309881,2379.78667939075
0.0812628424316342,2379.79667939075
0.0577880904972705,2379.80667939075
0.0337575555310775,2379.81667939075
0.0113870344730203,2379.82667939075
-0.00747891049881841,2379.83667939075
-0.0229104832653674,2379.84667939075
-0.0391397902912937,2379.85667939075
-0.0584057058313892,2379.86667939075
-0.0799131958764487,2379.87667939075
-0.102712252917778,2379.88667939075
-0.1247636463047,2379.89667939075
-0.143973175607433,2379.90667939075
-0.159630080901813,2379.91667939075
-0.176536065081705,2379.92667939075
-0.195965554911694,2379.93667939075
-0.216935988651331,2379.94667939075
-0.235784932386483,2379.95667939075
-0.247392489557591,2379.96667939075
-0.246022572243477,2379.97667939075
-0.22818341894166,2379.98667939075
-0.19533904863714,2379.99667939075
-0.148090229667121,2380.00667939075
-0.088866420546808,2380.01667939075
-0.0203793884650885,2380.02667939075
0.0527927735013354,2380.03667939075
0.126200863052539,2380.04667939075
0.194940514400179,2380.05667939075
0.253546428297291,2380.06667939075
0.299276680529777,2380.07667939075
0.333382615016621,2380.08667939075
0.35662692153351,2380.09667939075
0.372423654783405,2380.10667939075
0.384339379059515,2380.11667939075
0.393587575565517,2380.12667939075
0.397330039298976,2380.13667939075
0.394921438461143,2380.14667939075
0.386709880515291,2380.15667939075
0.377006917090332,2380.16667939075
0.366694986013095,2380.17667939075
0.359582339203616,2380.18667939075
0.354733019159418,2380.19667939075
0.347226916446036,2380.20667939075
0.334242124816203,2380.21667939075
0.314747990412852,2380.22667939075
0.290718342437509,2380.23667939075
0.265025290976374,2380.24667939075
0.242301343824503,2380.25667939075
0.223080866905403,2380.26667939075
0.204340001335719,2380.27667939075
0.183311040345496,2380.28667939075
0.16115904819757,2380.29667939075
0.139465048871469,2380.30667939075
0.121239523818738,2380.31667939075
0.109221621810617,2380.32667939075
0.102729064918076,2380.33667939075
0.0982119101168859,2380.34667939075
0.0927059140836531,2380.35667939075
0.0857988554277953,2380.36667939075
0.0771586803470116,2380.37667939075
0.0681345942188446,2380.38667939075
0.0605209328066015,2380.39667939075
0.053860721428167,2380.40667939075
0.0450027004841911,2380.41667939075
0.0328339475734005,2380.42667939075
0.0173226084399965,2380.43667939075
-0.000559116108581087,2380.44667939075
-0.0183948199344773,2380.45667939075
-0.0340110870935454,2380.46667939075
-0.0471369353327976,2380.47667939075
-0.0617214669413706,2380.48667939075
-0.0792877103851692,2380.49667939075
-0.1008315858446,2380.50667939075
-0.123754241868044,2380.51667939075
-0.147059646176539,2380.52667939075
-0.166548514306207,2380.53667939075
-0.183219526689779,2380.54667939075
-0.200701820973811,2380.55667939075
-0.220890498689593,2380.56667939075
-0.243953529954532,2380.57667939075
-0.268004353505043,2380.58667939075
-0.292094714325269,2380.59667939075
-0.315436726596064,2380.60667939075
-0.337389545936173,2380.61667939075
-0.355753695381851,2380.62667939075
-0.371333857283195,2380.63667939075
-0.387155741814161,2380.64667939075
-0.405145505478155,2380.65667939075
-0.42514716877225,2380.66667939075
-0.44637249527427,2380.67667939075
-0.466683017899823,2380.68667939075
-0.484947299976499,2380.69667939075
-0.501766340547372,2380.70667939075
-0.519259470409288,2380.71667939075
-0.538463118491429,2380.72667939075
-0.559302951340891,2380.73667939075
-0.580893407140443,2380.74667939075
-0.600513193253836,2380.75667939075
-0.615893508974094,2380.76667939075
-0.625743222885902,2380.77667939075
-0.628512328650892,2380.78667939075
-0.623663727355231,2380.79667939075
-0.608148405141981,2380.80667939075
-0.579606117576192,2380.81667939075
-0.538199311860095,2380.82667939075
-0.484450602829714,2380.83667939075
-0.421946622815817,2380.84667939075
-0.35867142522889,2380.85667939075
-0.300503245604825,2380.86667939075
-0.250159349734896,2380.87667939075
-0.208013374625578,2380.88667939075
-0.173365453941808,2380.89667939075
-0.143387695828016,2380.90667939075
-0.117333647140497,2380.91667939075
-0.0975450629819487,2380.92667939075
-0.084720353579123,2380.93667939075
-0.0777577714615056,2380.94667939075
-0.0752403516791066,2380.95667939075
-0.0741815115314283,2380.96667939075
-0.0713756840999695,2380.97667939075
-0.0679680008843288,2380.98667939075
-0.0660115664415885,2380.99667939075
-0.0677912587661069,2381.00667939075
-0.0730851779184368,2381.01667939075
-0.0810372296667014,2381.02667939075
-0.0907216083183827,2381.03667939075
-0.0999027981257949,2381.04667939075
-0.109110634566799,2381.05667939075
-0.121420875883121,2381.06667939075
-0.137399523259994,2381.07667939075
-0.155968989620511,2381.08667939075
-0.175473665909844,2381.09667939075
-0.193133447869091,2381.10667939075
-0.206178235927132,2381.11667939075
-0.214678373983121,2381.12667939075
-0.221873275948969,2381.13667939075
-0.230457662290496,2381.14667939075
-0.240602847067933,2381.15667939075
-0.250911146895509,2381.16667939075
-0.259600849880454,2381.17667939075
-0.264606263150213,2381.18667939075
-0.266938511526974,2381.19667939075
-0.270050589321967,2381.20667939075
-0.276412006102519,2381.21667939075
-0.285865336079147,2381.22667939075
-0.297834690231278,2381.23667939075
-0.309805886607948,2381.24667939075
-0.319872070007328,2381.25667939075
-0.328978954429171,2381.26667939075
-0.338943797865289,2381.27667939075
-0.351965807634903,2381.28667939075
-0.367499736539019,2381.29667939075
-0.384722372387733,2381.30667939075
-0.401865586760321,2381.31667939075
-0.417000368936217,2381.32667939075
-0.431458914653598,2381.33667939075
-0.446938921715112,2381.34667939075
-0.464785182212951,2381.35667939075
-0.484230447090387,2381.36667939075
-0.504114115708588,2381.37667939075
-0.522873419097286,2381.38667939075
-0.539471091554237,2381.39667939075
-0.55449962139808,2381.40667939075
-0.57024176773549,2381.41667939075
-0.587755746288326,2381.42667939075
-0.607079609715186,2381.43667939075
-0.626805974207553,2381.44667939075
-0.645497226863355,2381.45667939075
-0.660057077475784,2381.46667939075
-0.671080884281866,2381.47667939075
-0.682440384893202,2381.48667939075
-0.696814234030769,2381.49667939075
-0.714005947409537,2381.50667939075
-0.73179813852647,2381.51667939075
-0.749699330224686,2381.52667939075
-0.763981435180612,2381.53667939075
-0.775226015255428,2381.54667939075
-0.787531721193828,2381.55667939075
-0.802195006418681,2381.56667939075
-0.819787641830303,2381.57667939075
-0.83844812024444,2381.58667939075
-0.856787596948803,2381.59667939075
-0.873616086565644,2381.60667939075
-0.888043273428246,2381.61667939075
-0.89730518824514,2381.62667939075
-0.899970564656944,2381.63667939075
-0.897256400836529,2381.64667939075
-0.887771266073793,2381.65667939075
-0.86975589062682,2381.66667939075
-0.842278579723562,2381.67667939075
-0.805460980122296,2381.68667939075
-0.760392416307043,2381.69667939075
-0.711087659428022,2381.70667939075
-0.662982738879215,2381.71667939075
-0.61972581091472,2381.72667939075
-0.583135484131179,2381.73667939075
-0.552201776883627,2381.74667939075
-0.52616796869401,2381.75667939075
-0.50179834251852,2381.76667939075
-0.478444333206132,2381.77667939075
-0.459847122074898,2381.78667939075
-0.446742316191036,2381.79667939075
-0.439148196489529,2381.80667939075
-0.434982999056748,2381.81667939075
-0.431898530193176,2381.82667939075
-0.425987082558947,2381.83667939075
-0.416930285293381,2381.84667939075
-0.408965300815904,2381.85667939075
-0.405810401916351,2381.86667939075
-0.40774306942645,2381.87667939075
-0.413203241302896,2381.88667939075
-0.420506651013676,2381.89667939075
-0.427595388502953,2381.90667939075
-0.434364900359847,2381.91667939075
-0.442949477031426,2381.92667939075
-0.454634426690558,2381.93667939075
-0.469232469524696,2381.94667939075
-0.484516810091549,2381.95667939075
-0.498384524485198,2381.96667939075
-0.507627633786945,2381.97667939075
-0.512439063590398,2381.98667939075
-0.516021511275424,2381.99667939075
-0.520764569483313,2382.00667939075
-0.52685305734996,2382.01667939075
-0.533818845794774,2382.02667939075
-0.539676289418483,2382.03667939075
-0.543140422233521,2382.04667939075
-0.544536511331725,2382.05667939075
-0.547069633442153,2382.06667939075
-0.552662513404772,2382.07667939075
-0.560840624642968,2382.08667939075
-0.570905864877351,2382.09667939075
-0.580196262411335,2382.10667939075
-0.586843541415024,2382.11667939075
-0.591553762228823,2382.12667939075
-0.597599917354306,2382.13667939075
-0.608013910420671,2382.14667939075
-0.621140473107938,2382.15667939075
-0.636401361521779,2382.16667939075
-0.651438494538472,2382.17667939075
-0.662890449616844,2382.18667939075
-0.671165581633012,2382.19667939075
-0.680734162609538,2382.20667939075
-0.694323290788546,2382.21667939075
-0.711291564309961,2382.22667939075
-0.730414326312489,2382.23667939075
-0.749004175831678,2382.24667939075
-0.763539413101464,2382.25667939075
-0.774619794575844,2382.26667939075
-0.785977487258862,2382.27667939075
-0.799856621636086,2382.28667939075
-0.816833384426883,2382.29667939075
-0.835347652659833,2382.30667939075
-0.853307683892712,2382.31667939075
-0.868241158438726,2382.32667939075
-0.880105790958221,2382.33667939075
-0.893203316529566,2382.34667939075
-0.908999781039448,2382.35667939075
-0.927226856048153,2382.36667939075
-0.946238980613577,2382.37667939075
-0.964172708714007,2382.38667939075
-0.978462105844065,2382.39667939075
-0.989422233196317,2382.40667939075
-1.00069257698089,2382.41667939075
-1.0146050186833,2382.42667939075
-1.0310553999694,2382.43667939075
-1.04789454309356,2382.44667939075
-1.06410705099693,2382.45667939075
-1.07630032929686,2382.46667939075
-1.0853129134994,2382.47667939075
-1.09572005052391,2382.48667939075
-1.10871844028568,2382.49667939075
-1.12427868631399,2382.50667939075
-1.14145052140197,2382.51667939075
-1.15796186866972,2382.52667939075
-1.17116595457571,2382.53667939075
-1.18111689835942,2382.54667939075
-1.18917923999463,2382.55667939075
-1.19471787990907,2382.56667939075
-1.19571244167034,2382.57667939075
-1.18896788762591,2382.58667939075
-1.17196980119615,2382.59667939075
-1.14519552046704,2382.60667939075
-1.10988118710244,2382.61667939075
-1.06752163726261,2382.62667939075
-1.02213932947931,2382.63667939075
-0.979408749258453,2382.64667939075
-0.943077040756627,2382.65667939075
-0.913195717784768,2382.66667939075
-0.889413698880154,2382.67667939075
-0.869510858887864,2382.68667939075
-0.850397980599876,2382.69667939075
-0.831895656292642,2382.70667939075
-0.816425461541705,2382.71667939075
-0.806255703995638,2382.72667939075
-0.799766999411645,2382.73667939075
-0.795699117255427,2382.74667939075
-0.791385186385635,2382.75667939075
-0.785074593239301,2382.76667939075
-0.776564895977901,2382.77667939075
-0.76951951349831,2382.78667939075
-0.766362073643957,2382.79667939075
-0.767786616090619,2382.80667939075
-0.772245338564173,2382.81667939075
-0.777828860107579,2382.82667939075
-0.78289136961932,2382.83667939075
-0.786803381479103,2382.84667939075
-0.792273822897978,2382.85667939075
-0.800303425021755,2382.86667939075
-0.809838110467576,2382.87667939075
-0.818500799709337,2382.88667939075
-0.825003785404487,2382.89667939075
-0.827062717807059,2382.90667939075
-0.825617573387987,2382.91667939075
-0.823704229864611,2382.92667939075
-0.822525803867513,2382.93667939075
-0.822294244662238,2382.94667939075
-0.82276704783263,2382.95667939075
-0.822678071601555,2382.96667939075
-0.820492845895019,2382.97667939075
-0.817555163427297,2382.98667939075
-0.816635881308246,2382.99667939075
-0.818868541230579,2383.00667939075
-0.823668573302091,2383.01667939075
-0.829239119550148,2383.02667939075
-0.834308407677946,2383.03667939075
-0.836856234986345,2383.04667939075
-0.837112652344573,2383.05667939075
-0.839642392673569,2383.06667939075
-0.846364391383074,2383.07667939075
-0.856427685644575,2383.08667939075
-0.868188072955846,2383.09667939075
-0.87899307463077,2383.10667939075
-0.885967910451029,2383.11667939075
-0.889624830665751,2383.12667939075
-0.89409804500709,2383.13667939075
-0.902198637321335,2383.14667939075
-0.913895171511694,2383.15667939075
-0.927274312501467,2383.16667939075
-0.940382746440347,2383.17667939075
-0.950847235215634,2383.18667939075
-0.958879187872648,2383.19667939075
-0.966954237952085,2383.20667939075
-0.977417597292027,2383.21667939075
-0.989869929274286,2383.22667939075
-1.00309376972193,2383.23667939075
-1.01555065851575,2383.24667939075
-1.0249611608507,2383.25667939075
-1.03153367701031,2383.26667939075
-1.03750466617327,2383.27667939075
-1.04506223385499,2383.28667939075
-1.05439456140892,2383.29667939075
-1.06398899128671,2383.30667939075
-1.07336338105607,2383.31667939075
-1.08086132966635,2383.32667939075
-1.08654480093299,2383.33667939075
-1.09314934624638,2383.34667939075
-1.10204909918932,2383.35667939075
-1.11324789807677,2383.36667939075
-1.12528937101045,2383.37667939075
-1.13629775669953,2383.38667939075
-1.14368992383253,2383.39667939075
-1.14790194086251,2383.40667939075
-1.15187871460307,2383.41667939075
-1.15595468799067,2383.42667939075
-1.15803495846408,2383.43667939075
-1.15449953802491,2383.44667939075
-1.14095146185232,2383.45667939075
-1.11440895768161,2383.46667939075
-1.07560315701147,2383.47667939075
-1.03103319860583,2383.48667939075
-0.98561999505673,2383.49667939075
-0.942258046309441,2383.50667939075
-0.901851154417596,2383.51667939075
-0.863616143538532,2383.52667939075
-0.826224137824099,2383.53667939075
-0.790541769011179,2383.54667939075
-0.759599561957541,2383.55667939075
-0.734265328638541,2383.56667939075
-0.713678683018014,2383.57667939075
-0.69704278064202,2383.58667939075
-0.682091361489076,2383.59667939075
-0.668539248752987,2383.60667939075
-0.655328017173934,2383.61667939075
-0.64085779545385,2383.62667939075
-0.626192095232337,2383.63667939075
-0.61347967503754,2383.64667939075
-0.604125141088703,2383.65667939075
-0.598284529091876,2383.66667939075
-0.594658191372236,2383.67667939075
-0.59299188816846,2383.68667939075
-0.591198330321472,2383.69667939075
-0.590037091639222,2383.70667939075
-0.591551029362428,2383.71667939075
-0.596471727749703,2383.72667939075
-0.603191711421328,2383.73667939075
-0.609456379688387,2383.74667939075
-0.613434597849679,2383.75667939075
-0.612766456778573,2383.76667939075
-0.607164689617508,2383.77667939075
-0.601160387277223,2383.78667939075
-0.597562648743506,2383.79667939075
-0.59587861341745,2383.80667939075
-0.595341566242282,2383.81667939075
-0.593722430675239,2383.82667939075
-0.588285705319473,2383.83667939075
-0.580018779120601,2383.84667939075
-0.572544306911173,2383.85667939075
-0.56857015736391,2383.86667939075
-0.568147378525628,2383.87667939075
-0.570148917435825,2383.88667939075
-0.572693476845145,2383.89667939075
-0.573248084485842,2383.90667939075
-0.572151122194223,2383.91667939075
-0.571955432788483,2383.92667939075
-0.57387501058122,2383.93667939075
-0.577898732406451,2383.94667939075
-0.583009904937673,2383.95667939075
-0.588001243339354,2383.96667939075
-0.591701490033365,2383.97667939075
-0.594193757503245,2383.98667939075
-0.598927828314135,2383.99667939075
-0.60688759366223,2384.00667939075
-0.617341687211747,2384.01667939075
-0.628962223115777,2384.02667939075
-0.639840584103445,2384.03667939075
-0.646973722173157,2384.04667939075
-0.650781080797331,2384.05667939075
-0.655612327209133,2384.06667939075
-0.66359261797653,2384.07667939075
-0.674509407089869,2384.08667939075
-0.686282792544826,2384.09667939075
-0.69705545383508,2384.10667939075
-0.703844122501572,2384.11667939075
-0.707983017378948,2384.12667939075
-0.712743980030923,2384.13667939075
-0.720470237742953,2384.14667939075
-0.730692274597167,2384.15667939075
-0.741188076192824,2384.16667939075
-0.750641494601257,2384.17667939075
-0.756399582392023,2384.18667939075
-0.759617225744833,2384.19667939075
-0.76372749041382,2384.20667939075
-0.770823677081979,2384.21667939075
-0.78050678488975,2384.22667939075
-0.79127707368666,2384.23667939075
-0.802090811437935,2384.24667939075
-0.809849855300075,2384.25667939075
-0.814788639958609,2384.26667939075
-0.819140319651655,2384.27667939075
-0.821867870505743,2384.28667939075
-0.820390186922722,2384.29667939075
-0.811354730975488,2384.30667939075
-0.791380221014804,2384.31667939075
-0.757169215399877,2384.32667939075
-0.70945013400767,2384.33667939075
-0.653766384274419,2384.34667939075
-0.595555313500098,2384.35667939075
-0.536913159648658,2384.36667939075
-0.480815497380226,2384.37667939075
-0.426923134474478,2384.38667939075
-0.374255756824675,2384.39667939075
-0.324148732131378,2384.40667939075
-0.280302670022319,2384.41667939075
-0.243529513823543,2384.42667939075
-0.213329336382612,2384.43667939075
-0.188257902936053,2384.44667939075
-0.164622737730831,2384.45667939075
-0.139944332670027,2384.46667939075
-0.114319269428585,2384.47667939075
-0.0912297628010895,2384.48667939075
-0.0718643478179683,2384.49667939075
-0.0562396141474658,2384.50667939075
-0.043242467194009,2384.51667939075
-0.0317272720358021,2384.52667939075
-0.0196130810725524,2384.53667939075
-0.00782710258983104,2384.54667939075
0.000287193730956369,2384.55667939075
0.00300677421427869,2384.56667939075
0.000695045238309349,2384.57667939075
-0.00404805091076578,2384.58667939075
-0.00979191499338124,2384.59667939075
-0.01514419305653,2384.60667939075
-0.0188760811812731,2384.61667939075
-0.0181021614586198,2384.62667939075
-0.0137673519877721,2384.63667939075
-0.00926226647067225,2384.64667939075
-0.00660951176931004,2384.65667939075
-0.00617803441694831,2384.66667939075
-0.00601109133604072,2384.67667939075
-0.00429554099260862,2384.68667939075
0.00115271384071206,2384.69667939075
0.00977696044864543,2384.70667939075
0.016923115406422,2384.71667939075
0.0208952628633206,2384.72667939075
0.0207983293708933,2384.73667939075
0.0183258279843534,2384.74667939075
0.0163801366874235,2384.75667939075
0.0175770781940261,2384.76667939075
0.0216713725750323,2384.77667939075
0.0243375570502775,2384.78667939075
0.0229842499655433,2384.79667939075
0.0170884149600498,2384.80667939075
0.00839153556576168,2384.81667939075
-0.000746256232862136,2384.82667939075
-0.00755817322425951,2384.83667939075
-0.0118585339627992,2384.84667939075
-0.0170924388580848,2384.85667939075
-0.024875473901936,2384.86667939075
-0.0353959117064076,2384.87667939075
-0.0469563123193782,2384.88667939075
-0.0583540929430344,2384.89667939075
-0.0667412811707521,2384.90667939075
-0.0730756892771601,2384.91667939075
-0.0809342151836328,2384.92667939075
-0.0920509349677796,2384.93667939075
-0.105198547693014,2384.94667939075
-0.119189089366359,2384.95667939075
-0.13182937211124,2384.96667939075
-0.140939500176766,2384.97667939075
-0.146671148947223,2384.98667939075
-0.152812537370052,2384.99667939075
-0.161687377308117,2385.00667939075
-0.17369644569786,2385.01667939075
-0.186390807826433,2385.02667939075
-0.197933543317669,2385.03667939075
-0.204837910801491,2385.04667939075
-0.207910261757981,2385.05667939075
-0.21152081261361,2385.06667939075
-0.218231521474109,2385.07667939075
-0.227387622289247,2385.08667939075
-0.237306340335389,2385.09667939075
-0.245828579741797,2385.10667939075
-0.250682788462194,2385.11667939075
-0.251525422727664,2385.12667939075
-0.25146323183465,2385.13667939075
-0.252986439969262,2385.14667939075
-0.255875065477443,2385.15667939075
-0.259713023427925,2385.16667939075
-0.263712411239009,2385.17667939075
-0.265723249714047,2385.18667939075
-0.266496941031875,2385.19667939075
-0.268228572871436,2385.20667939075
-0.270045381223884,2385.21667939075
-0.269202113572984,2385.22667939075
-0.262031412582638,2385.23667939075
-0.243740522723847,2385.24667939075
-0.211533274930851,2385.25667939075
-0.165724495359581,2385.26667939075
-0.109935191894877,2385.27667939075
-0.0476817463292763,2385.28667939075
0.0175644016019557,2385.29667939075
0.08227541673391,2385.30667939075
0.144878289363634,2385.31667939075
0.204618242585896,2385.32667939075
0.25991212047879,2385.33667939075
0.306803876566668,2385.34667939075
0.343693050525208,2385.35667939075
0.37167254160848,2385.36667939075
0.393865276449202,2385.37667939075
0.41269824705488,2385.38667939075
0.431870395803804,2385.39667939075
0.450859865100192,2385.40667939075
0.465654882260304,2385.41667939075
0.474429680912438,2385.42667939075
0.476430872499959,2385.43667939075
0.472172963442898,2385.44667939075
0.463587380023746,2385.45667939075
0.452994395500144,2385.46667939075
0.439541733830983,2385.47667939075
0.420876214939084,2385.48667939075
0.396317691005776,2385.49667939075
0.366996318000681,2385.50667939075
0.335141650323214,2385.51667939075
0.303847592386818,2385.52667939075
0.276367640199471,2385.53667939075
0.253449155798112,2385.54667939075
0.232634485973165,2385.55667939075
0.213102920085379,2385.56667939075
0.194709352133356,2385.57667939075
0.178675277548892,2385.58667939075
0.16562657225477,2385.59667939075
0.155472008013519,2385.60667939075
0.148622744532182,2385.61667939075
0.14630280816723,2385.62667939075
0.147406865188182,2385.63667939075
0.147400392000306,2385.64667939075
0.144270043081006,2385.65667939075
0.136901933552025,2385.66667939075
0.127617224354648,2385.67667939075
0.118102584067088,2385.68667939075
0.11164335622631,2385.69667939075
0.108615702357217,2385.70667939075
0.104372916878942,2385.71667939075
0.0976509117701843,2385.72667939075
0.0887367555206911,2385.73667939075
0.0789424467211977,2385.74667939075
0.0711105783446866,2385.75667939075
0.0679723009627247,2385.76667939075
0.0686720674152984,2385.77667939075
0.0686045435621698,2385.78667939075
0.0652767857874523,2385.79667939075
0.0578171430791461,2385.80667939075
0.0484014431131991,2385.81667939075
0.0389131871653965,2385.82667939075
0.0327349737341316,2385.83667939075
0.0304211990709776,2385.84667939075
0.0278507470487199,2385.85667939075
0.0235359099290142,2385.86667939075
0.0166839123611975,2385.87667939075
0.00914175623950879,2385.88667939075
0.00210973174706678,2385.89667939075
-0.00232331138120327,2385.90667939075
-0.00509505527347244,2385.91667939075
-0.00992886456829967,2385.92667939075
-0.0189180649723628,2385.93667939075
-0.0319231078113018,2385.94667939075
-0.0476732820940987,2385.95667939075
-0.0641999684444294,2385.96667939075
-0.0790452610198633,2385.97667939075
-0.092185633803617,2385.98667939075
-0.10650995213591,2385.99667939075
-0.124677520202693,2386.00667939075
-0.146226117351591,2386.01667939075
-0.169353014867781,2386.02667939075
-0.191397331305712,2386.03667939075
-0.209134985749692,2386.04667939075
-0.223234322463394,2386.05667939075
-0.236879671180153,2386.06667939075
-0.252853900045386,2386.07667939075
-0.271024902129032,2386.08667939075
-0.290297350850099,2386.09667939075
-0.308427361495721,2386.10667939075
-0.322406954042442,2386.11667939075
-0.333082043523872,2386.12667939075
-0.343504946023425,2386.13667939075
-0.356120539644557,2386.14667939075
-0.369088867295231,2386.15667939075
-0.379028760280914,2386.16667939075
-0.380393279557437,2386.17667939075
-0.368048706456007,2386.18667939075
-0.340899940112813,2386.19667939075
-0.301340466558146,2386.20667939075
-0.25343484083461,2386.21667939075
-0.199359391449391,2386.22667939075
-0.14240722065413,2386.23667939075
-0.0829475100424561,2386.24667939075
-0.0221494502655683,2386.25667939075
0.0378153602719262,2386.26667939075
0.0908961042006484,2386.27667939075
0.133240208618604,2386.28667939075
0.165397934245899,2386.29667939075
0.188575163590405,2386.30667939075
0.20516442086086,2386.31667939075
0.219278740762822,2386.32667939075
0.231169245361941,2386.33667939075
0.23752644437265,2386.34667939075
0.235608535801935,2386.35667939075
0.226277617468965,2386.36667939075
0.21138304561392,2386.37667939075
0.193898677513085,2386.38667939075
0.17673639572936,2386.39667939075
0.159191066739168,2386.40667939075
0.138348355694705,2386.41667939075
0.111651508786906,2386.42667939075
0.0796372861985688,2386.43667939075
0.0434570658247743,2386.44667939075
0.00592534303845704,2386.45667939075
-0.0295614862875218,2386.46667939075
-0.0621908302076114,2386.47667939075
-0.0929261625681703,2386.48667939075
-0.122101618684383,2386.49667939075
-0.148718595871097,2386.50667939075
-0.172367776828798,2386.51667939075
-0.191424180296544,2386.52667939075
-0.204774393126242,2386.53667939075
-0.213240815912868,2386.54667939075
-0.220609466701546,2386.55667939075
-0.228652536392659,2386.56667939075
-0.23744073121446,2386.57667939075
-0.245822689038969,2386.58667939075
-0.252869312854244,2386.59667939075
-0.257821629395059,2386.60667939075
-0.260218472193794,2386.61667939075
-0.257480280897792,2386.62667939075
-0.250292455874627,2386.63667939075
-0.24284164251821,2386.64667939075
-0.238180584181419,2386.65667939075
-0.236428256635554,2386.66667939075
-0.236107434043001,2386.67667939075
-0.234908647312724,2386.68667939075
-0.230696463349022,2386.69667939075
-0.224133106868235,2386.70667939075
-0.218804403806097,2386.71667939075
-0.216435097348899,2386.72667939075
-0.216962802196231,2386.73667939075
-0.219926981242602,2386.74667939075
-0.222850068370645,2386.75667939075
-0.223700831088307,2386.76667939075
-0.223200638849258,2386.77667939075
-0.224571936299613,2386.78667939075
-0.229490285470557,2386.79667939075
-0.238504280286726,2386.80667939075
-0.249880781311371,2386.81667939075
-0.261935193618693,2386.82667939075
-0.273269772836738,2386.83667939075
-0.284844848170884,2386.84667939075
-0.298938734542449,2386.85667939075
-0.316966676025376,2386.86667939075
-0.33844931742824,2386.87667939075
-0.361287561378766,2386.88667939075
-0.384140125379515,2386.89667939075
-0.404453240935473,2386.90667939075
-0.422781160736273,2386.91667939075
-0.442660864142229,2386.92667939075
-0.465287790103315,2386.93667939075
-0.490791933683848,2386.94667939075
-0.517828401788336,2386.95667939075
-0.544787463472961,2386.96667939075
-0.568913782319261,2386.97667939075
-0.589972160893321,2386.98667939075
-0.612575959913934,2386.99667939075
-0.638858957627091,2387.00667939075
-0.666766638827475,2387.01667939075
-0.693027167531555,2387.02667939075
-0.712205400790749,2387.03667939075
-0.719030172919642,2387.04667939075
-0.712170287224509,2387.05667939075
-0.692393915269629,2387.06667939075
-0.663087083733631,2387.07667939075
-0.62637589512345,2387.08667939075
-0.583739875470429,2387.09667939075
-0.537858717212873,2387.10667939075
-0.489740961163371,2387.11667939075
-0.443495926834128,2387.12667939075
-0.40323863168192,2387.13667939075
-0.371215035949476,2387.14667939075
-0.348504368299732,2387.15667939075
-0.33255450654064,2387.16667939075
-0.320433536242215,2387.17667939075
-0.309558819102652,2387.18667939075
-0.297887042686886,2387.19667939075
-0.287636537101142,2387.20667939075
-0.279204002205182,2387.21667939075
-0.271630732722895,2387.22667939075
-0.263730568094863,2387.23667939075
-0.253318738317851,2387.24667939075
-0.23827526158095,2387.25667939075
-0.218833206759143,2387.26667939075
-0.199234926928346,2387.27667939075
-0.181742259953666,2387.28667939075
-0.167470584835953,2387.29667939075
-0.156352365480461,2387.30667939075
-0.14588483091929,2387.31667939075
-0.133492054164477,2387.32667939075
-0.119172559548896,2387.33667939075
-0.105919053297528,2387.34667939075
-0.0952148363429837,2387.35667939075
-0.0870920254437644,2387.36667939075
-0.0789985218137516,2387.37667939075
-0.0693381251194886,2387.38667939075
-0.0560593779955567,2387.39667939075
-0.039114508703154,2387.40667939075
-0.0237173504445288,2387.41667939075
-0.0116114443873362,2387.42667939075
-0.00270036934466191,2387.43667939075
0.00385602531122047,2387.44667939075
0.00947628976957969,2387.45667939075
0.0160819454103284,2387.46667939075
0.0236137120952327,2387.47667939075
0.0287411178314124,2387.48667939075
0.0306625113506552,2387.49667939075
0.0285275124192972,2387.50667939075
0.0233148818706318,2387.51667939075
0.017050918307674,2387.52667939075
0.012107486751375,2387.53667939075
0.00813040829420709,2387.54667939075
0.00107740178126495,2387.55667939075
-0.012479762286211,2387.56667939075
-0.032518410458744,2387.57667939075
-0.0573356462263398,2387.58667939075
-0.0848113958622004,2387.59667939075
-0.113116555624892,2387.60667939075
-0.140389673737481,2387.61667939075
-0.164046760013454,2387.62667939075
-0.184669298972528,2387.63667939075
-0.207355682534022,2387.64667939075
-0.234041396268499,2387.65667939075
-0.265116593295339,2387.66667939075
-0.299437889302722,2387.67667939075
-0.3326072791542,2387.68667939075
-0.363282596561904,2387.69667939075
-0.390944803239479,2387.70667939075
-0.419092251085766,2387.71667939075
-0.450471822115055,2387.72667939075
-0.485468707522467,2387.73667939075
-0.521629353606634,2387.74667939075
-0.557752545042493,2387.75667939075
-0.590863007379723,2387.76667939075
-0.621063062513519,2387.77667939075
-0.651140545819509,2387.78667939075
-0.682804137420957,2387.79667939075
-0.715911736789438,2387.80667939075
-0.7496544686948,2387.81667939075
-0.782625405476033,2387.82667939075
-0.812333349193946,2387.83667939075
-0.839509144977589,2387.84667939075
-0.866656011743194,2387.85667939075
-0.895482022571569,2387.86667939075
-0.92546173908177,2387.87667939075
-0.954043970574022,2387.88667939075
-0.97885321785533,2387.89667939075
-0.994808410158396,2387.90667939075
-0.999123985796558,2387.91667939075
-0.99287777045592,2387.92667939075
-0.976626318578785,2387.93667939075
-0.94864235092047,2387.94667939075
-0.908355628555515,2387.95667939075
-0.855928437672385,2387.96667939075
-0.791750785744942,2387.97667939075
-0.720259779070945,2387.98667939075
-0.649028310257124,2387.99667939075
-0.583764759121275,2388.00667939075
-0.525821086315769,2388.01667939075
-0.475363173830072,2388.02667939075
-0.430550397383299,2388.03667939075
-0.388794499113953,2388.04667939075
-0.349927477887591,2388.05667939075
-0.316705695032296,2388.06667939075
-0.289607526985345,2388.07667939075
-0.267723678230475,2388.08667939075
-0.249530318055822,2388.09667939075
-0.232373773032026,2388.10667939075
-0.214036985491003,2388.11667939075
-0.195149681277454,2388.12667939075
-0.178316677863637,2388.13667939075
-0.16580386777721,2388.14667939075
-0.157563966384496,2388.15667939075
-0.15265469342463,2388.16667939075
-0.149870768892735,2388.17667939075
-0.147423150052897,2388.18667939075
-0.145317608238374,2388.19667939075
-0.146393002824487,2388.20667939075
-0.150999966743356,2388.21667939075
-0.158176776637001,2388.22667939075
-0.166731162435028,2388.23667939075
-0.174092114133466,2388.24667939075
-0.178255405764207,2388.25667939075
-0.17890588974548,2388.26667939075
-0.180243641366947,2388.27667939075
-0.183373376646239,2388.28667939075
-0.189049399771627,2388.29667939075
-0.196120523389391,2388.30667939075
-0.20270402174647,2388.31667939075
-0.206016471357004,2388.32667939075
-0.205362387634584,2388.33667939075
-0.205690710087168,2388.34667939075
-0.209066228953449,2388.35667939075
-0.21616388148634,2388.36667939075
-0.225802831870845,2388.37667939075
-0.236379882495147,2388.38667939075
-0.245184434975035,2388.39667939075
-0.252411598753619,2388.40667939075
-0.262518662308335,2388.41667939075
-0.275976024420351,2388.42667939075
-0.292958014028671,2388.43667939075
-0.311707794601879,2388.44667939075
-0.33002549698553,2388.45667939075
-0.344754951749338,2388.46667939075
-0.356171120002142,2388.47667939075
-0.367214272441021,2388.48667939075
-0.379961715709402,2388.49667939075
-0.394644462038961,2388.50667939075
-0.409164545956347,2388.51667939075
-0.422592254419685,2388.52667939075
-0.431867698295504,2388.53667939075
-0.437714735482957,2388.54667939075
-0.444480103059042,2388.55667939075
-0.452765662111853,2388.56667939075
-0.463280971465213,2388.57667939075
-0.473174779841631,2388.58667939075
-0.481920281260683,2388.59667939075
-0.488882926216742,2388.60667939075
-0.49416055281284,2388.61667939075
-0.495741573158281,2388.62667939075
-0.494908579807315,2388.63667939075
-0.495202888420935,2388.64667939075
-0.498941505027204,2388.65667939075
-0.505018869955548,2388.66667939075
-0.511663375663497,2388.67667939075
-0.518140124965507,2388.68667939075
-0.521513344767492,2388.69667939075
-0.522337627309417,2388.70667939075
-0.523292678115082,2388.71667939075
-0.526981711873556,2388.72667939075
-0.532943750515682,2388.73667939075
-0.539567128091689,2388.74667939075
-0.545624785935529,2388.75667939075
-0.549827443001674,2388.76667939075
-0.551617486643181,2388.77667939075
-0.554607014414223,2388.78667939075
-0.559302822320404,2388.79667939075
-0.566354052809252,2388.80667939075
-0.574670468467581,2388.81667939075
-0.582429886085575,2388.82667939075
-0.58567532363984,2388.83667939075
-0.582269391359917,2388.84667939075
-0.571364177499303,2388.85667939075
-0.552474413507607,2388.86667939075
-0.524185669310864,2388.87667939075
-0.486324136830878,2388.88667939075
-0.438825190204794,2388.89667939075
-0.381809987157702,2388.90667939075
-0.318910334660802,2388.91667939075
-0.259099255741873,2388.92667939075
-0.207612306798581,2388.93667939075
-0.16802652295629,2388.94667939075
-0.13966246027849,2388.95667939075
-0.120298097357351,2388.96667939075
-0.105697636727426,2388.97667939075
-0.0940164933300679,2388.98667939075
-0.0856053232901277,2388.99667939075
-0.0793760328319153,2389.00667939075
-0.0757775441507071,2389.01667939075
-0.0732091136127826,2389.02667939075
-0.0715751818000532,2389.03667939075
-0.0689776284853572,2389.04667939075
-0.0658452879037493,2389.05667939075
-0.0648988599075477,2389.06667939075
-0.0672455959330504,2389.07667939075
-0.072444446215721,2389.08667939075
-0.0798893554539632,2389.09667939075
-0.0882034702739329,2389.10667939075
-0.0954241032671941,2389.11667939075
-0.102543720130447,2389.12667939075
-0.111030422766954,2389.13667939075
-0.121289866498285,2389.14667939075
-0.132435982212675,2389.15667939075
-0.143181382048024,2389.16667939075
-0.151064528542784,2389.17667939075
-0.154404197512245,2389.18667939075
-0.153262487148245,2389.19667939075
-0.150530007162482,2389.20667939075
-0.148919058676626,2389.21667939075
-0.148118051288663,2389.22667939075
-0.147033669805775,2389.23667939075
-0.144046801560794,2389.24667939075
-0.136978788313598,2389.25667939075
-0.126163888387344,2389.26667939075
-0.114972624122889,2389.27667939075
-0.106009035719033,2389.28667939075
-0.0993408299919551,2389.29667939075
-0.0950633906698394,2389.30667939075
-0.0919950268740181,2389.31667939075
-0.0880909412960579,2389.32667939075
-0.0842034072670272,2389.33667939075
-0.0837365136451428,2389.34667939075
-0.0892091344499231,2389.35667939075
-0.0997593147575771,2389.36667939075
-0.113375345874086,2389.37667939075
-0.127784160909709,2389.38667939075
-0.14071193121096,2389.39667939075
-0.152911066966254,2389.40667939075
-0.167057928663096,2389.41667939075
-0.185276756807683,2389.42667939075
-0.205865665593179,2389.43667939075
-0.227225619127319,2389.44667939075
-0.248183890699153,2389.45667939075
-0.265836577191187,2389.46667939075
-0.280569275831706,2389.47667939075
-0.296668825782198,2389.48667939075
-0.315707173455522,2389.49667939075
-0.337598709812079,2389.50667939075
-0.360247029629332,2389.51667939075
-0.382561807314198,2389.52667939075
-0.401682390372909,2389.53667939075
-0.418325315522609,2389.54667939075
-0.436162401678167,2389.55667939075
-0.4576675225353,2389.56667939075
-0.481410659417793,2389.57667939075
-0.506698184589177,2389.58667939075
-0.532043623609887,2389.59667939075
-0.55684297798135,2389.60667939075
-0.580384701990162,2389.61667939075
-0.600749965199992,2389.62667939075
-0.61877396872301,2389.63667939075
-0.637292795925571,2389.64667939075
-0.658998672872122,2389.65667939075
-0.681222876196247,2389.66667939075
-0.703022707477389,2389.67667939075
-0.72091093950616,2389.68667939075
-0.733313160073524,2389.69667939075
-0.740688202692789,2389.70667939075
-0.747239035340273,2389.71667939075
-0.755366993059433,2389.72667939075
-0.76554158159689,2389.73667939075
-0.777043717183841,2389.74667939075
-0.786834016452886,2389.75667939075
-0.791879644009832,2389.76667939075
-0.790332458561307,2389.77667939075
-0.781593005081481,2389.78667939075
-0.764242723337124,2389.79667939075
-0.736879633287975,2389.80667939075
-0.697835483310292,2389.81667939075
-0.648243277672876,2389.82667939075
-0.58922702710291,2389.83667939075
-0.524939594843181,2389.84667939075
-0.461741822258385,2389.85667939075
-0.404128518983113,2389.86667939075
-0.353883232566355,2389.87667939075
-0.310985876484383,2389.88667939075
-0.273057503864116,2389.89667939075
-0.237156129547199,2389.90667939075
-0.203538840266441,2389.91667939075
-0.175326707731677,2389.92667939075
-0.153952473399978,2389.93667939075
-0.139125067628924,2389.94667939075
-0.128370941115743,2389.95667939075
-0.119082971016574,2389.96667939075
-0.108305128857279,2389.97667939075
-0.0961243747086344,2389.98667939075
-0.0862262339464187,2389.99667939075
-0.0794839196270656,2390.00667939075
-0.0764963190103642,2390.01667939075
-0.0763371973631715,2390.02667939075
-0.0779268153398658,2390.03667939075
-0.0793158223305123,2390.04667939075
-0.0796065407505431,2390.05667939075
-0.0819317099675251,2390.06667939075
-0.0870751516746598,2390.07667939075
-0.09353740007408,2390.08667939075
-0.0983646148325954,2390.09667939075
-0.0999373744896291,2390.10667939075
-0.0954737534974163,2390.11667939075
-0.0857174737537618,2390.12667939075
-0.0744320512380512,2390.13667939075
-0.0647824730677018,2390.14667939075
-0.0561532622857287,2390.15667939075
-0.0474998479195924,2390.16667939075
-0.0376101752493264,2390.17667939075
-0.0237623141731004,2390.18667939075
-0.00674121938329599,2390.19667939075
0.00872386839998393,2390.20667939075
0.0189667192553517,2390.21667939075
0.024925706060119,2390.22667939075
0.0279650217853971,2390.23667939075
0.0300364477341433,2390.24667939075
0.0347708573218468,2390.25667939075
0.0416736066282285,2390.26667939075
0.0468891658187871,2390.27667939075
0.0480843029707224,2390.28667939075
0.0457303702450195,2390.29667939075
0.0408586288401293,2390.30667939075
0.0359342357764483,2390.31667939075
0.0330554860767132,2390.32667939075
0.0315439194380757,2390.33667939075
0.0293146532367127,2390.34667939075
0.0245241837407868,2390.35667939075
0.0172521607053193,2390.36667939075
0.00868886413225496,2390.37667939075
0.000291438114287442,2390.38667939075
-0.00590111820158039,2390.39667939075
-0.0105848782249737,2390.40667939075
-0.0166728197670385,2390.41667939075
-0.0247096879157694,2390.42667939075
-0.0347512685543394,2390.43667939075
-0.045632351553607,2390.44667939075
-0.0557663848825681,2390.45667939075
-0.0629893302482234,2390.46667939075
-0.0672549113692582,2390.47667939075
-0.071888850578533,2390.48667939075
-0.0786212090761924,2390.49667939075
-0.0877278152051879,2390.50667939075
-0.097194183482077,2390.51667939075
-0.106201853259614,2390.52667939075
-0.111342791358647,2390.53667939075
-0.113166761547102,2390.54667939075
-0.116042681622416,2390.55667939075
-0.121314806142397,2390.56667939075
-0.128953854101527,2390.57667939075
-0.136870747203957,2390.58667939075
-0.144454878533454,2390.59667939075
-0.151363396010824,2390.60667939075
-0.156643406834427,2390.61667939075
-0.160373387548352,2390.62667939075
-0.161264528480128,2390.63667939075
-0.160722843490539,2390.64667939075
-0.157961867161948,2390.65667939075
-0.149247366798912,2390.66667939075
-0.13159714423718,2390.67667939075
-0.102201527229672,2390.68667939075
-0.0596687821932187,2390.69667939075
-0.00648128583676753,2390.70667939075
0.0529643705279429,2390.71667939075
0.114072652753187,2390.72667939075
0.174209188419528,2390.73667939075
0.232139595485882,2390.74667939075
0.285724639191424,2390.75667939075
0.336131306086886,2390.76667939075
0.383136363657517,2390.77667939075
0.423687080650967,2390.78667939075
0.457725057918842,2390.79667939075
0.486176262406676,2390.80667939075
0.511196116602484,2390.81667939075
0.534097546217332,2390.82667939075
0.557651608968781,2390.83667939075
0.581089136453742,2390.84667939075
0.601762387346923,2390.85667939075
0.618706154498792,2390.86667939075
0.631707278837376,2390.87667939075
0.641781442416086,2390.88667939075
0.650045313637298,2390.89667939075
0.658802973404261,2390.90667939075
0.667288910799663,2390.91667939075
0.671061614576465,2390.92667939075
0.669046588427414,2390.93667939075
0.661688679120244,2390.94667939075
0.652699115672027,2390.95667939075
0.644840824250108,2390.96667939075
0.642313383832745,2390.97667939075
0.645749459561712,2390.98667939075
0.650277904798894,2390.99667939075
0.654489829691668,2391.00667939075
0.657481806897171,2391.01667939075
0.660170535461987,2391.02667939075
0.663549800401929,2391.03667939075
0.669185453440418,2391.04667939075
0.67649935503815,2391.05667939075
0.68240648478996,2391.06667939075
0.685615330719699,2391.07667939075
0.685706486374054,2391.08667939075
0.683757455955949,2391.09667939075
0.681232816345275,2391.10667939075
0.680173102488105,2391.11667939075
0.681090293947785,2391.12667939075
0.679360457195174,2391.13667939075
0.673356147429143,2391.14667939075
0.663433752337218,2391.15667939075
0.65194329459245,2391.16667939075
0.640430066928591,2391.17667939075
0.632653506068553,2391.18667939075
0.626467045044438,2391.19667939075
0.618983560721566,2391.20667939075
0.608007424895959,2391.21667939075
0.593266956991108,2391.22667939075
0.576649175509048,2391.23667939075
0.560938958653334,2391.24667939075
0.548892720329066,2391.25667939075
0.538534141875321,2391.26667939075
0.528162558303534,2391.27667939075
0.514300673010129,2391.28667939075
0.497963234207726,2391.29667939075
0.479714528733185,2391.30667939075
0.461345307185574,2391.31667939075
0.44565129504131,2391.32667939075
0.432135255498127,2391.33667939075
0.417062997491675,2391.34667939075
0.399208129619516,2391.35667939075
0.377971344716599,2391.36667939075
0.35514771734339,2391.37667939075
0.332807341655802,2391.38667939075
0.313144957280759,2391.39667939075
0.296851859650216,2391.40667939075
0.280041314548467,2391.41667939075
0.260419956792075,2391.42667939075
0.238960910615857,2391.43667939075
0.217610782690023,2391.44667939075
0.197530302193359,2391.45667939075
0.182659577096695,2391.46667939075
0.170935105816122,2391.47667939075
0.158182529062329,2391.48667939075
0.141126239063292,2391.49667939075
0.120421650910591,2391.50667939075
0.0981895453116087,2391.51667939075
0.0781797418231686,2391.52667939075
0.0651927677368884,2391.53667939075
0.0615328097711932,2391.54667939075
0.0675278373906299,2391.55667939075
0.082333650634996,2391.56667939075
0.107674428751777,2391.57667939075
0.143990846257405,2391.58667939075
0.190797341935985,2391.59667939075
0.244926443377731,2391.60667939075
0.303269219846987,2391.61667939075
0.363078407496788,2391.62667939075
0.420870918491196,2391.63667939075
0.471752718952859,2391.64667939075
0.51413281649506,2391.65667939075
0.547638424969224,2391.66667939075
0.573550364120376,2391.67667939075
0.594284423912095,2391.68667939075
0.611946564086754,2391.69667939075
0.6270362346344,2391.70667939075
0.637656758726413,2391.71667939075
0.643697527389028,2391.72667939075
0.64648464960833,2391.73667939075
0.64630109150333,2391.74667939075
0.646399585561467,2391.75667939075
0.648604678772941,2391.76667939075
0.652664094497409,2391.77667939075
0.654484041698166,2391.78667939075
0.651038694737022,2391.79667939075
0.643172207392008,2391.80667939075
0.631282058380126,2391.81667939075
0.61799262489498,2391.82667939075
0.606198877926592,2391.83667939075
0.596397610560003,2391.84667939075
0.586436807742234,2391.85667939075
0.57522870166957,2391.86667939075
0.563538933431976,2391.87667939075
0.553431396353154,2391.88667939075
0.546553483725807,2391.89667939075
0.544158508441258,2391.90667939075
0.546076882703137,2391.91667939075
0.550299745583102,2391.92667939075
0.554106155369057,2391.93667939075
0.558362153101154,2391.94667939075
0.563459553822526,2391.95667939075
0.570068946172372,2391.96667939075
0.579337997819471,2391.97667939075
0.589475295624935,2391.98667939075
0.598844339357794,2391.99667939075
0.605369569327374,2392.00667939075
0.608855495681646,2392.01667939075
0.611282631918853,2392.02667939075
0.613486454389248,2392.03667939075
0.617521226053261,2392.04667939075
0.622373336256134,2392.05667939075
0.624873633447178,2392.06667939075
0.623533826381086,2392.07667939075
0.619100984844657,2392.08667939075
0.612390366696466,2392.09667939075
0.605175973314961,2392.10667939075
0.60013008529808,2392.11667939075
0.597493871422315,2392.12667939075
0.592639768403602,2392.13667939075
0.584110487933015,2392.14667939075
0.571270165593649,2392.15667939075
0.556100740909918,2392.16667939075
0.540704407167996,2392.17667939075
0.527427459139085,2392.18667939075
0.517260216824932,2392.19667939075
0.505096869629691,2392.20667939075
0.488532118672497,2392.21667939075
0.468583488816621,2392.22667939075
0.446325137865146,2392.23667939075
0.425072821922619,2392.24667939075
0.40732827432393,2392.25667939075
0.392690639572522,2392.26667939075
0.378043636582286,2392.27667939075
0.362837390028399,2392.28667939075
0.347249189412039,2392.29667939075
0.332316378537355,2392.30667939075
0.319152699083495,2392.31667939075
0.309096537600475,2392.32667939075
0.300930987672271,2392.33667939075
0.291906365987328,2392.34667939075
0.279946433322526,2392.35667939075
0.26504330678087,2392.36667939075
0.248299719748101,2392.37667939075
0.231928575533633,2392.38667939075
0.218682589776992,2392.39667939075
0.2088058998911,2392.40667939075
0.198962392440121,2392.41667939075
0.187421655541574,2392.42667939075
0.173449059799035,2392.43667939075
0.158904547679654,2392.44667939075
0.145651193648614,2392.45667939075
0.136545285471606,2392.46667939075
0.130964261501361,2392.47667939075
0.124294962645287,2392.48667939075
0.114467331311983,2392.49667939075
0.101214086887983,2392.50667939075
0.0858654142408316,2392.51667939075
0.0713128791485409,2392.52667939075
0.0620285071106649,2392.53667939075
0.0608426906647516,2392.54667939075
0.0668523599751726,2392.55667939075
0.0808986514277897,2392.56667939075
0.104897508878577,2392.57667939075
0.141500514212871,2392.58667939075
0.189859937194359,2392.59667939075
0.247587308100464,2392.60667939075
0.311656731491649,2392.61667939075
0.380239235326834,2392.62667939075
0.447539516908031,2392.63667939075
0.509023502251378,2392.64667939075
0.56018716672453,2392.65667939075
0.599870348353753,2392.66667939075
0.630676517387549,2392.67667939075
0.653982694242231,2392.68667939075
0.673717082510019,2392.69667939075
0.690504159294852,2392.70667939075
0.702462900743643,2392.71667939075
0.707987056364024,2392.72667939075
0.707905299500036,2392.73667939075
0.703967017052142,2392.74667939075
0.699702380017166,2392.75667939075
0.697852202222064,2392.76667939075
0.69812495719769,2392.77667939075
0.696558828812678,2392.78667939075
0.691106704773885,2392.79667939075
0.68082988860352,2392.80667939075
0.666812408160899,2392.81667939075
0.650730758389941,2392.82667939075
0.635659440058706,2392.83667939075
0.622180791289292,2392.84667939075
0.607617612560233,2392.85667939075
0.591298324407529,2392.86667939075
0.573539587276324,2392.87667939075
0.557271766918328,2392.88667939075
0.544263673320165,2392.89667939075
0.536048358741436,2392.90667939075
0.53288115891833,2392.91667939075
0.530172701255588,2392.92667939075
0.525783594536259,2392.93667939075
0.52006594000304,2392.94667939075
0.513550464673308,2392.95667939075
0.508600738047041,2392.96667939075
0.507120687773734,2392.97667939075
0.5086416102181,2392.98667939075
0.510391283516222,2392.99667939075
0.511113961931277,2393.00667939075
0.511076270739022,2393.01667939075
0.51084878099584,2393.02667939075
0.511824947548205,2393.03667939075
0.516741048027269,2393.04667939075
0.524267179211658,2393.05667939075
0.529945549642529,2393.06667939075
0.531757118945561,2393.07667939075
0.529776214606947,2393.08667939075
0.526318168791854,2393.09667939075
0.52221272590992,2393.10667939075
0.520716774215545,2393.11667939075
0.521707431623334,2393.12667939075
0.521532044599383,2393.13667939075
0.517420406285836,2393.14667939075
0.50978715919518,2393.15667939075
0.499926917818704,2393.16667939075
0.489920487053924,2393.17667939075
0.482211166388563,2393.18667939075
0.476571752075399,2393.19667939075
0.469701914444161,2393.20667939075
0.459766194256775,2393.21667939075
0.446811334701828,2393.22667939075
0.432708201020295,2393.23667939075
0.419136645605384,2393.24667939075
0.406976641787078,2393.25667939075
0.396318529285577,2393.26667939075
0.384636288105546,2393.27667939075
0.370185734416468,2393.28667939075
0.353292123882139,2393.29667939075
0.335899947149935,2393.30667939075
0.318024128756818,2393.31667939075
0.302187765087898,2393.32667939075
0.287810718845149,2393.33667939075
0.271743561668513,2393.34667939075
0.252984294800673,2393.35667939075
0.23144114713798,2393.36667939075
0.208139551716786,2393.37667939075
0.185197499273639,2393.38667939075
0.164414845781716,2393.39667939075
0.146518304768551,2393.40667939075
0.127981980303514,2393.41667939075
0.107085859496848,2393.42667939075
0.0837532311347304,2393.43667939075
0.0592039415155866,2393.44667939075
0.0355653859496628,2393.45667939075
0.0155767656714872,2393.46667939075
-0.00119212343235767,2393.47667939075
-0.0179657742063022,2393.48667939075
-0.0364672491037791,2393.49667939075
-0.0569592055102776,2393.50667939075
-0.0779611673481006,2393.51667939075
-0.0986340199575591,2393.52667939075
-0.116546094295374,2393.53667939075
-0.132110093455277,2393.54667939075
-0.148505189537178,2393.55667939075
-0.16750351290566,2393.56667939075
-0.188304305454491,2393.57667939075
-0.207265455425323,2393.58667939075
-0.222579005163718,2393.59667939075
-0.229061007701369,2393.60667939075
-0.223768693709775,2393.61667939075
-0.202081255385711,2393.62667939075
-0.163939945911442,2393.63667939075
-0.113217399788933,2393.64667939075
-0.0520269726788244,2393.65667939075
0.0156391974026524,2393.66667939075
0.0867062185839946,2393.67667939075
0.158073019491906,2393.68667939075
0.229724761967723,2393.69667939075
0.298708904095159,2393.70667939075
0.3603778847958,2393.71667939075
0.41199121609438,2393.72667939075
0.453363394620947,2393.73667939075
0.487072731844796,2393.74667939075
0.514694674313725,2393.75667939075
0.540998895082231,2393.76667939075
0.566602306678912,2393.77667939075
0.58873912134558,2393.78667939075
0.605790842330043,2393.79667939075
0.618311685837707,2393.80667939075
0.628655704099249,2393.81667939075
0.637994642693434,2393.82667939075
0.649388899740294,2393.83667939075
0.661961735216176,2393.84667939075
0.672513181147846,2393.85667939075
0.677627637454229,2393.86667939075
0.677558296775893,2393.87667939075
0.673310904435369,2393.88667939075
0.667216455101145,2393.89667939075
0.662722469150709,2393.90667939075
0.661348980774007,2393.91667939075
0.660173862343208,2393.92667939075
0.657620678112574,2393.93667939075
0.654473453067813,2393.94667939075
0.65171934019242,2393.95667939075
0.651343631628701,2393.96667939075
0.654996114161327,2393.97667939075
0.662110744183869,2393.98667939075
0.669831749203584,2393.99667939075
0.67557019589729,2394.00667939075
0.678546274642197,2394.01667939075
0.679454238030198,2394.02667939075
0.679353430965558,2394.03667939075
0.679894235033345,2394.04667939075
0.680204241746477,2394.05667939075
0.677183848325818,2394.06667939075
0.669429855850372,2394.07667939075
0.656993198333374,2394.08667939075
0.641247040503975,2394.09667939075
0.623577047738423,2394.10667939075
0.606755006130813,2394.11667939075
0.590910068265674,2394.12667939075
0.572777047117398,2394.13667939075
0.551409217431547,2394.14667939075
0.527593044054782,2394.15667939075
0.502511871313343,2394.16667939075
0.477934374203926,2394.17667939075
0.456676313033199,2394.18667939075
0.437750238721263,2394.19667939075
0.418638986105539,2394.20667939075
0.397736586465426,2394.21667939075
0.375654508755988,2394.22667939075
0.353510963250988,2394.23667939075
0.332262634679687,2394.24667939075
0.3140911269511,2394.25667939075
0.298071683896546,2394.26667939075
0.282766211220067,2394.27667939075
0.266090936778913,2394.28667939075
0.24932404345676,2394.29667939075
0.232330284339488,2394.30667939075
0.216702212370645,2394.31667939075
0.20493466873567,2394.32667939075
0.195928532529002,2394.33667939075
0.18647322784148,2394.34667939075
0.17527301323015,2394.35667939075
0.161768521080489,2394.36667939075
0.148042150108363,2394.37667939075
0.134656088491919,2394.38667939075
0.125027329464359,2394.39667939075
0.118012692590627,2394.40667939075
0.110388457483219,2394.41667939075
0.0994065947827329,2394.42667939075
0.0852148722002268,2394.43667939075
0.0697043617225502,2394.44667939075
0.0537917185974226,2394.45667939075
0.0397427021387475,2394.46667939075
0.0274606207952059,2394.47667939075
0.0136261127087306,2394.48667939075
-0.00279300657368438,2394.49667939075
-0.0214792816962671,2394.50667939075
-0.0413203015856972,2394.51667939075
-0.060270284796286,2394.52667939075
-0.0767752312411775,2394.53667939075
-0.0902474182143716,2394.54667939075
-0.102104066305452,2394.55667939075
-0.112541013489248,2394.56667939075
-0.118716272919628,2394.57667939075
-0.115584822125748,2394.58667939075
-0.0997025112524122,2394.59667939075
-0.0682109709135404,2394.60667939075
-0.0213654477003341,2394.61667939075
0.0406725203659806,2394.62667939075
0.112769785098565,2394.63667939075
0.1887854424299,2394.64667939075
0.262330012634061,2394.65667939075
0.32957324483102,2394.66667939075
0.388008904406585,2394.67667939075
0.437041351301321,2394.68667939075
0.477939829737998,2394.69667939075
0.510824759613438,2394.70667939075
0.534032222737551,2394.71667939075
0.5473340027172,2394.72667939075
0.552792873478264,2394.73667939075
0.552528684719237,2394.74667939075
0.549840987363134,2394.75667939075
0.547680823653076,2394.76667939075
0.546416905586339,2394.77667939075
0.54325702017456,2394.78667939075
0.536894825723593,2394.79667939075
0.527788722709568,2394.80667939075
0.516014302777326,2394.81667939075
0.503576080466731,2394.82667939075
0.491857408693243,2394.83667939075
0.480285388884416,2394.84667939075
0.466876454790764,2394.85667939075
0.45121718063187,2394.86667939075
0.434482871172748,2394.87667939075
0.419278936113128,2394.88667939075
0.406555243827737,2394.89667939075
0.400054110050714,2394.90667939075
0.398684497478141,2394.91667939075
0.398719438574277,2394.92667939075
0.397547917293324,2394.93667939075
0.393447308177865,2394.94667939075
0.38757645970772,2394.95667939075
0.380642201082538,2394.96667939075
0.374928449571072,2394.97667939075
0.370108116172606,2394.98667939075
0.363078882746474,2394.99667939075
0.352233866934525,2395.00667939075
0.337706494676848,2395.01667939075
0.321324316545172,2395.02667939075
0.30432768532856,2395.03667939075
0.289872880820224,2395.04667939075
0.277533442051452,2395.05667939075
0.263133422546418,2395.06667939075
0.244152423724795,2395.07667939075
0.220450153751902,2395.08667939075
0.194622893956237,2395.09667939075
0.168059598061156,2395.10667939075
0.144541332057664,2395.11667939075
0.123913699744302,2395.12667939075
0.101750573711417,2395.13667939075
0.0769466291215983,2395.14667939075
0.0488481782024686,2395.15667939075
0.0196750884626958,2395.16667939075
-0.00756263415955321,2395.17667939075
-0.0312755173485418,2395.18667939075
-0.0521888990514579,2395.19667939075
-0.072530928846802,2395.20667939075
-0.0938666153754858,2395.21667939075
-0.116354636703915,2395.22667939075
-0.138587656022979,2395.23667939075
-0.158781380699767,2395.24667939075
-0.175485755675057,2395.25667939075
-0.189425861926712,2395.26667939075
-0.2028079677449,2395.27667939075
-0.217561779252545,2395.28667939075
-0.23269181653543,2395.29667939075
-0.246999985789257,2395.30667939075
-0.258926323842134,2395.31667939075
-0.265295231127067,2395.32667939075
-0.267640769078765,2395.33667939075
-0.269279108568585,2395.34667939075
-0.272607534676925,2395.35667939075
-0.27746330783623,2395.36667939075
-0.282977207128345,2395.37667939075
-0.286994382932741,2395.38667939075
-0.287258679194891,2395.39667939075
-0.284186463069205,2395.40667939075
-0.279835965662227,2395.41667939075
-0.276203804935124,2395.42667939075
-0.270641057714343,2395.43667939075
-0.258489100002553,2395.44667939075
-0.233663496865453,2395.45667939075
-0.190768111665855,2395.46667939075
-0.128504301845818,2395.47667939075
-0.0497554797852479,2395.48667939075
0.0411330819356574,2395.49667939075
0.140399630925252,2395.50667939075
0.243687367851168,2395.51667939075
0.347261871813251,2395.52667939075
0.44758069681778,2395.53667939075
0.540536633184264,2395.54667939075
0.621230271583104,2395.55667939075
0.689096558781062,2395.56667939075
0.743628855484206,2395.57667939075
0.788034859430199,2395.58667939075
0.824445114714539,2395.59667939075
0.854415764085064,2395.60667939075
0.88073667570677,2395.61667939075
0.904692289407416,2395.62667939075
0.927804016492305,2395.63667939075
0.947964213415604,2395.64667939075
0.964406051849711,2395.65667939075
0.977524955490067,2395.66667939075
0.988491121565718,2395.67667939075
0.99789911651729,2395.68667939075
1.0075615859053,2395.69667939075
1.01576015618424,2395.70667939075
1.01894081126104,2395.71667939075
1.01475381429306,2395.72667939075
1.00401267915169,2395.73667939075
0.989584336805175,2395.74667939075
0.97548762855967,2395.75667939075
0.965711599323702,2395.76667939075
0.961061242362722,2395.77667939075
0.959109029616136,2395.78667939075
0.95701532054938,2395.79667939075
0.955301219258887,2395.80667939075
0.954783754879912,2395.81667939075
0.95675624366284,2395.82667939075
0.962765833447875,2395.83667939075
0.971256971992762,2395.84667939075
0.979519026820617,2395.85667939075
0.984879054542072,2395.86667939075
0.986743662753015,2395.87667939075
0.986511922797044,2395.88667939075
0.984977609341003,2395.89667939075
0.98459383495754,2395.90667939075
0.984947205293319,2395.91667939075
0.983483320000432,2395.92667939075
0.978352773301024,2395.93667939075
0.969521338941135,2395.94667939075
0.957651231599519,2395.95667939075
0.944610649075144,2395.96667939075
0.932083403429684,2395.97667939075
0.920321286833272,2395.98667939075
0.907177453029029,2395.99667939075
0.891959254679385,2396.00667939075
0.875361791020957,2396.01667939075
0.858115725569355,2396.02667939075
0.841300873058247,2396.03667939075
0.827192833633243,2396.04667939075
0.815441409853219,2396.05667939075
0.802084635614031,2396.06667939075
0.785938761942943,2396.07667939075
0.766887635158002,2396.08667939075
0.747684004326185,2396.09667939075
0.729969940796914,2396.10667939075
0.716357417341235,2396.11667939075
0.706283446333936,2396.12667939075
0.694919106168996,2396.13667939075
0.680055107133144,2396.14667939075
0.661344831643603,2396.15667939075
0.641416567508744,2396.16667939075
0.622243846239755,2396.17667939075
0.606812989198319,2396.18667939075
0.593685116559247,2396.19667939075
0.579819349798834,2396.20667939075
0.564232662382272,2396.21667939075
0.547276776042326,2396.22667939075
0.529695361845381,2396.23667939075
0.513122024146568,2396.24667939075
0.500360824430285,2396.25667939075
0.490569879878398,2396.26667939075
0.479910925188912,2396.27667939075
0.466823218901711,2396.28667939075
0.451777696819029,2396.29667939075
0.436209330284264,2396.30667939075
0.422064052950861,2396.31667939075
0.411967241308731,2396.32667939075
0.405251667204435,2396.33667939075
0.398120013689928,2396.34667939075
0.387801860134145,2396.35667939075
0.374282737902761,2396.36667939075
0.359972324271061,2396.37667939075
0.345491604672115,2396.38667939075
0.334470283868465,2396.39667939075
0.327021360347761,2396.40667939075
0.32272580776687,2396.41667939075
0.324487872286782,2396.42667939075
0.336638300766826,2396.43667939075
0.364665978235635,2396.44667939075
0.412704714004,2396.45667939075
0.482370798170153,2396.46667939075
0.57008778523937,2396.47667939075
0.667982041157712,2396.48667939075
0.769427840451873,2396.49667939075
0.868452523810287,2396.50667939075
0.96077437382267,2396.51667939075
1.04369485113624,2396.52667939075
1.11615418328333,2396.53667939075
1.17664346158331,2396.54667939075
1.22352364847957,2396.55667939075
1.257422959103,2396.56667939075
1.27994413802352,2396.57667939075
1.29454555116413,2396.58667939075
1.30392184392367,2396.59667939075
1.3098161562639,2396.60667939075
1.31483728745906,2396.61667939075
1.32165068822104,2396.62667939075
1.32968727624507,2396.63667939075
1.33567865305767,2396.64667939075
1.33741886544481,2396.65667939075
1.33530428930106,2396.66667939075
1.32957107797044,2396.67667939075
1.32105307196291,2396.68667939075
1.31274479018133,2396.69667939075
1.30371508221033,2396.70667939075
1.29062515082693,2396.71667939075
1.27254161996382,2396.72667939075
1.25069368453653,2396.73667939075
1.22730968317253,2396.74667939075
1.20666194488191,2396.75667939075
1.19172136378733,2396.76667939075
1.18335087029074,2396.77667939075
1.17855592151858,2396.78667939075
1.17575709589274,2396.79667939075
1.17357500657735,2396.80667939075
1.17163570698742,2396.81667939075
1.17035233200709,2396.82667939075
1.17197023331051,2396.83667939075
1.17523357599056,2396.84667939075
1.17706223390349,2396.85667939075
1.17595657940503,2396.86667939075
1.17074583896019,2396.87667939075
1.16294878783954,2396.88667939075
1.15372482723172,2396.89667939075
1.14613986495139,2396.90667939075
1.13953105319406,2396.91667939075
1.1307696313167,2396.92667939075
1.11801369012497,2396.93667939075
1.10216553463301,2396.94667939075
1.08436004893701,2396.95667939075
1.06621403915259,2396.96667939075
1.0507612071828,2396.97667939075
1.03760827639201,2396.98667939075
1.02321085058478,2396.99667939075
1.00550179988491,2397.00667939075
0.984332696283254,2397.01667939075
0.962002695101506,2397.02667939075
0.939773702044544,2397.03667939075
0.920456142344171,2397.04667939075
0.904555303677759,2397.05667939075
0.887871557659618,2397.06667939075
0.869492248826693,2397.07667939075
0.849174051475793,2397.08667939075
0.828294144947981,2397.09667939075
0.808563789154631,2397.10667939075
0.79185622982293,2397.11667939075
0.777607478949648,2397.12667939075
0.76311176633576,2397.13667939075
0.746944365555544,2397.14667939075
0.729020035264287,2397.15667939075
0.711189637520954,2397.16667939075
0.694157362156268,2397.17667939075
0.680035599276318,2397.18667939075
0.667630344352677,2397.19667939075
0.655149928554154,2397.20667939075
0.640559761971505,2397.21667939075
0.624603663915479,2397.22667939075
0.607979618104033,2397.23667939075
0.591743788752108,2397.24667939075
0.578735162664067,2397.25667939075
0.568639875800007,2397.26667939075
0.558342306245247,2397.27667939075
0.545853976164529,2397.28667939075
0.530705747744369,2397.29667939075
0.515056910031988,2397.30667939075
0.500192158583024,2397.31667939075
0.489184097123295,2397.32667939075
0.481140228193418,2397.33667939075
0.472734933994884,2397.34667939075
0.462224986866844,2397.35667939075
0.448792984368569,2397.36667939075
0.433864299859761,2397.37667939075
0.419072649934674,2397.38667939075
0.407563843728689,2397.39667939075
0.399193605286185,2397.40667939075
0.389563240701192,2397.41667939075
0.377289633492839,2397.42667939075
0.362391852241371,2397.43667939075
0.347399164973389,2397.44667939075
0.337282939487645,2397.45667939075
0.336696601512582,2397.46667939075
0.350829522895875,2397.47667939075
0.381360901550645,2397.48667939075
0.429326753727303,2397.49667939075
0.495421323643982,2397.50667939075
0.577555752790992,2397.51667939075
0.672322712873192,2397.52667939075
0.77521240320879,2397.53667939075
0.879616995461741,2397.54667939075
0.97701363137058,2397.55667939075
1.0618469737742,2397.56667939075
1.13102191448693,2397.57667939075
1.18343645831004,2397.58667939075
1.22191922112213,2397.59667939075
1.24800529611181,2397.60667939075
1.26465527397181,2397.61667939075
1.27691626162447,2397.62667939075
1.28586950861719,2397.63667939075
1.28966618178405,2397.64667939075
1.28689238284567,2397.65667939075
1.27986002011351,2397.66667939075
1.2706863981275,2397.67667939075
1.26113842449071,2397.68667939075
1.25443172599891,2397.69667939075
1.25052445719303,2397.70667939075
1.24434531331912,2397.71667939075
1.23289824944658,2397.72667939075
1.21583819970788,2397.73667939075
1.19405013905644,2397.74667939075
1.16991709020349,2397.75667939075
1.1477175524811,2397.76667939075
1.12800680795902,2397.77667939075
1.10901261287538,2397.78667939075
1.08993045599233,2397.79667939075
1.07191097020324,2397.80667939075
1.05548496445356,2397.81667939075
1.04314549411364,2397.82667939075
1.03694777527277,2397.83667939075
1.03635036646827,2397.84667939075
1.03732252194122,2397.85667939075
1.03630237572434,2397.86667939075
1.03277345281576,2397.87667939075
1.02781515482493,2397.88667939075
1.02193729539115,2397.89667939075
1.01807996335502,2397.90667939075
1.01510084144236,2397.91667939075
1.01050321015924,2397.92667939075
1.00244001358313,2397.93667939075
0.990433280149691,2397.94667939075
0.976278841861277,2397.95667939075
0.961943980277524,2397.96667939075
0.949568457686264,2397.97667939075
0.939594239554788,2397.98667939075
0.927978767825186,2397.99667939075
0.912595354651536,2398.00667939075
0.893752645963794,2398.01667939075
0.87293414395457,2398.02667939075
0.853090366039339,2398.03667939075
0.8363067012205,2398.04667939075
0.821706718888274,2398.05667939075
0.807122880127808,2398.06667939075
0.790062055542558,2398.07667939075
0.771306753083102,2398.08667939075
0.751566183048859,2398.09667939075
0.732799912529016,2398.10667939075
0.717328801582042,2398.11667939075
0.704478039370632,2398.12667939075
0.690930128671465,2398.13667939075
0.675826572657726,2398.14667939075
0.658636634583551,2398.15667939075
0.64112901074972,2398.16667939075
0.625072426158077,2398.17667939075
0.612158591788612,2398.18667939075
0.60240114403446,2398.19667939075
0.591832172636006,2398.20667939075
0.578014166763712,2398.21667939075
0.561822095377705,2398.22667939075
0.544448921551221,2398.23667939075
0.527700530290234,2398.24667939075
0.513775470911971,2398.25667939075
0.502818734756834,2398.26667939075
0.49125891621826,2398.27667939075
0.478026621487079,2398.28667939075
0.463325079005373,2398.29667939075
0.448024321010094,2398.30667939075
0.433546956461243,2398.31667939075
0.422995834102078,2398.32667939075
0.415790988997693,2398.33667939075
0.408111855527863,2398.34667939075
0.397532463295506,2398.35667939075
0.38352205205825,2398.36667939075
0.368563991984004,2398.37667939075
0.355012897176643,2398.38667939075
0.344905998753842,2398.39667939075
0.337245244976732,2398.40667939075
0.329178076333447,2398.41667939075
0.318069390945497,2398.42667939075
0.304403879363944,2398.43667939075
0.288872700810415,2398.44667939075
0.273994950422854,2398.45667939075
0.263239707550189,2398.46667939075
0.25805368961668,2398.47667939075
0.258314535538596,2398.48667939075
0.266465208754498,2398.49667939075
0.287771801176996,2398.50667939075
0.327033812128774,2398.51667939075
0.386886408682652,2398.52667939075
0.468917782195017,2398.53667939075
0.568060591875108,2398.54667939075
0.675527246219817,2398.55667939075
0.782429365679169,2398.56667939075
0.881855993656793,2398.57667939075
0.969018444114579,2398.58667939075
1.04039230365554,2398.59667939075
1.09473975210524,2398.60667939075
1.13339293344075,2398.61667939075
1.16010892100854,2398.62667939075
1.17689598224811,2398.63667939075
1.1838722929726,2398.64667939075
1.18160292257254,2398.65667939075
1.17279975250438,2398.66667939075
1.16022633516804,2398.67667939075
1.14776331777661,2398.68667939075
1.13834378245849,2398.69667939075
1.1307289036223,2398.70667939075
1.12234612411892,2398.71667939075
1.10997385239586,2398.72667939075
1.09283229336528,2398.73667939075
1.07119693781678,2398.74667939075
1.04607095009525,2398.75667939075
1.02092788189528,2398.76667939075
0.996493864769818,2398.77667939075
0.970794357117221,2398.78667939075
0.944595659672259,2398.79667939075
0.919417456446439,2398.80667939075
0.897549075860021,2398.81667939075
0.881036625513432,2398.82667939075
0.871612134717349,2398.83667939075
0.868416526725459,2398.84667939075
0.868635131000263,2398.85667939075
0.869888263517608,2398.86667939075
0.8709250064079,2398.87667939075
0.871765934565176,2398.88667939075
0.872775817198608,2398.89667939075
0.875375553482757,2398.90667939075
0.879010643788033,2398.91667939075
0.879377562636729,2398.92667939075
0.874299522131624,2398.93667939075
0.865178738789644,2398.94667939075
0.852892641225596,2398.95667939075
0.840021078870117,2398.96667939075
0.830051166453372,2398.97667939075
0.822583953781051,2398.98667939075
0.813365242147771,2398.99667939075
0.801155518871115,2399.00667939075
0.785117694684594,2399.01667939075
0.766660626802638,2399.02667939075
0.748329855044472,2399.03667939075
0.732812594049262,2399.04667939075
0.719683030240206,2399.05667939075
0.705887859025537,2399.06667939075
0.688742013591264,2399.07667939075
0.668488138848964,2399.08667939075
0.647409088231199,2399.09667939075
0.626626016085272,2399.10667939075
0.608716765490892,2399.11667939075
0.59339481601767,2399.12667939075
0.579049168274257,2399.13667939075
0.563484526729111,2399.14667939075
0.546988205845221,2399.15667939075
0.530486679151808,2399.16667939075
0.51452141914877,2399.17667939075
0.501752325390625,2399.18667939075
0.490865376927729,2399.19667939075
0.479321790950403,2399.20667939075
0.465951748428754,2399.21667939075
0.452122021702157,2399.22667939075
0.43787370647115,2399.23667939075
0.424765672506007,2399.24667939075
0.41554093603289,2399.25667939075
0.409634154184862,2399.26667939075
0.403170038005087,2399.27667939075
0.393911513510109,2399.28667939075
0.381344776099373,2399.29667939075
0.367796307339419,2399.30667939075
0.354382739686103,2399.31667939075
0.343978782647908,2399.32667939075
0.336361838344203,2399.33667939075
0.32811076391579,2399.34667939075
0.316937220364621,2399.35667939075
0.303722055867408,2399.36667939075
0.291878762826626,2399.37667939075
0.286265177099566,2399.38667939075
0.29382207124377,2399.39667939075
0.318259346598232,2399.40667939075
0.360654968659957,2399.41667939075
0.421593691872631,2399.42667939075
0.500643719616465,2399.43667939075
0.595348381254379,2399.44667939075
0.701052470285282,2399.45667939075
0.812271350888803,2399.46667939075
0.922080642913341,2399.47667939075
1.0211031170554,2399.48667939075
1.10422488455524,2399.49667939075
1.16846271101578,2399.50667939075
1.21562201394926,2399.51667939075
1.2478566340625,2399.52667939075
1.27098267121365,2399.53667939075
1.28738259485687,2399.54667939075
1.29560885671504,2399.55667939075
1.2960213611448,2399.56667939075
1.29021827038605,2399.57667939075
1.28110419398107,2399.58667939075
1.27053402870869,2399.59667939075
1.26037833507442,2399.60667939075
1.25090755962137,2399.61667939075
1.24418445032997,2399.62667939075
1.2395936000099,2399.63667939075
1.23170255310464,2399.64667939075
1.21761863319886,2399.65667939075
1.19631712164349,2399.66667939075
1.16984155014551,2399.67667939075
1.14195278487588,2399.68667939075
1.11631266101894,2399.69667939075
1.09482605955416,2399.70667939075
1.07494664443357,2399.71667939075
1.05475449343923,2399.72667939075
1.03474686690813,2399.73667939075
1.01708258043679,2399.74667939075
1.00343983022703,2399.75667939075
0.995342900122807,2399.76667939075
0.992466699125137,2399.77667939075
0.99112270155906,2399.78667939075
0.988581839864527,2399.79667939075
0.983805524088791,2399.80667939075
0.977653919370596,2399.81667939075
0.969972401238232,2399.82667939075
0.962839042723185,2399.83667939075
0.955661967043722,2399.84667939075
0.945375101926008,2399.85667939075
0.930596731882436,2399.86667939075
0.912202272118942,2399.87667939075
0.891882523260369,2399.88667939075
0.871634441411218,2399.89667939075
0.853608756468056,2399.90667939075
0.837950806908513,2399.91667939075
0.82143918133381,2399.92667939075
0.80223436758159,2399.93667939075
0.780919855846071,2399.94667939075
0.758473214903142,2399.95667939075
0.736834535625614,2399.96667939075
0.718048962455422,2399.97667939075
0.701703302632645,2399.98667939075
0.684272048768243,2399.99667939075
0.663892838839077,2400.00667939075
0.640864625479006,2400.01667939075
0.616831273029313,2400.02667939075
0.593644805593026,2400.03667939075
0.574783758095992,2400.04667939075
0.560745457046427,2400.05667939075
0.546607818900195,2400.06667939075
0.530064456162135,2400.07667939075
0.511728522991123,2400.08667939075
0.493047191654528,2400.09667939075
0.475949002744565,2400.10667939075
0.462263253681973,2400.11667939075
0.452206332001199,2400.12667939075
0.441854067217023,2400.13667939075
0.42992777546882,2400.14667939075
0.415842101277914,2400.15667939075
0.401342751205566,2400.16667939075
0.387392957721942,2400.17667939075
0.376458951879388,2400.18667939075
0.367773560149312,2400.19667939075
0.358577208837146,2400.20667939075
0.346596951312903,2400.21667939075
0.331600543565995,2400.22667939075
0.315715020244752,2400.23667939075
0.30040700087659,2400.24667939075
0.288832503831905,2400.25667939075
0.280515444445833,2400.26667939075
0.271864608528108,2400.27667939075
0.260911467431736,2400.28667939075
0.247782735147328,2400.29667939075
0.233639800039203,2400.30667939075
0.220122260635202,2400.31667939075
0.210058802460693,2400.32667939075
0.202278434528387,2400.33667939075
0.193942392261052,2400.34667939075
0.183335070488296,2400.35667939075
0.170135999492545,2400.36667939075
0.155007084017477,2400.37667939075
0.140818075271757,2400.38667939075
0.130307419718545,2400.39667939075
0.126703289334708,2400.40667939075
0.130264357194755,2400.41667939075
0.144817373753983,2400.42667939075
0.175254374785343,2400.43667939075
0.226334686220871,2400.44667939075
0.300354541047293,2400.45667939075
0.397447511519365,2400.46667939075
0.513220751944539,2400.47667939075
0.637573611973316,2400.48667939075
0.759550111083544,2400.49667939075
0.8720547252862,2400.50667939075
0.970614972677955,2400.51667939075
1.05173015583864,2400.52667939075
1.11697104190137,2400.53667939075
1.1670032014119,2400.54667939075
1.20046194079426,2400.55667939075
1.21845830418178,2400.56667939075
1.22460359978657,2400.57667939075
1.2240053601913,2400.58667939075
1.21954717009441,2400.59667939075
1.21372379243451,2400.60667939075
1.20770853809692,2400.61667939075
1.20365716407219,2400.62667939075
1.20102291830357,2400.63667939075
1.19697306084963,2400.64667939075
1.19058185069748,2400.65667939075
1.1805819041931,2400.66667939075
1.168273239978,2400.67667939075
1.15407687969409,2400.68667939075
1.13861244898656,2400.69667939075
1.12161976989444,2400.70667939075
1.10065278404759,2400.71667939075
1.07543480666814,2400.72667939075
1.04806738325517,2400.73667939075
1.02103836581871,2400.74667939075
0.997196620215431,2400.75667939075
0.979112148455951,2400.76667939075
0.967609464633916,2400.77667939075
0.95939165831861,2400.78667939075
0.952804088333243,2400.79667939075
0.947066835149479,2400.80667939075
0.941920656315185,2400.81667939075
0.937578649736431,2400.82667939075
0.936338628568032,2400.83667939075
0.937689497149572,2400.84667939075
0.936948353303429,2400.85667939075
0.93170965546433,2400.86667939075
0.922461444536739,2400.87667939075
0.91091288782315,2400.88667939075
0.897850847453482,2400.89667939075
0.887426956360234,2400.90667939075
0.878750113709438,2400.91667939075
0.868255740356569,2400.92667939075
0.853529660587977,2400.93667939075
0.834721527939063,2400.94667939075
0.813996121934136,2400.95667939075
0.792664753373233,2400.96667939075
0.773117638287041,2400.97667939075
0.755330614419304,2400.98667939075
0.736290524429475,2400.99667939075
0.714855465526899,2401.00667939075
0.69131089378048,2401.01667939075
0.666362323663408,2401.02667939075
0.64229390852725,2401.03667939075
0.621057561984444,2401.04667939075
0.601815190228122,2401.05667939075
0.583306827973228,2401.06667939075
0.563552937789253,2401.07667939075
0.543137330000642,2401.08667939075
0.522656331886643,2401.09667939075
0.503393448600889,2401.10667939075
0.488125188602422,2401.11667939075
0.476278364792141,2401.12667939075
0.464730846814303,2401.13667939075
0.451382178494315,2401.14667939075
0.435859618946155,2401.15667939075
0.419590246735034,2401.16667939075
0.403938114379832,2401.17667939075
0.391516043735556,2401.18667939075
0.38150321666772,2401.19667939075
0.371424555771365,2401.20667939075
0.358473921754049,2401.21667939075
0.343911121503476,2401.22667939075
0.328344434791196,2401.23667939075
0.313854072202322,2401.24667939075
0.302928477329319,2401.25667939075
0.29486866853526,2401.26667939075
0.28591333899846,2401.27667939075
0.274368425380842,2401.28667939075
0.260525111096225,2401.29667939075
0.246012866519591,2401.30667939075
0.232549878146562,2401.31667939075
0.223158034491696,2401.32667939075
0.217087415771747,2401.33667939075
0.209558031515379,2401.34667939075
0.199327386094437,2401.35667939075
0.185790138809375,2401.36667939075
0.170436019979494,2401.37667939075
0.154936684314504,2401.38667939075
0.142154685935447,2401.39667939075
0.131870898815206,2401.40667939075
0.120685680878142,2401.41667939075
0.106776417464393,2401.42667939075
0.090571129922443,2401.43667939075
0.0734131245978813,2401.44667939075
0.0566076268130799,2401.45667939075
0.0426563731535404,2401.46667939075
0.0316750424268208,2401.47667939075
0.0210366261930736,2401.48667939075
0.0126980513414531,2401.49667939075
0.0102577094676725,2401.50667939075
0.0193423638680981,2401.51667939075
0.0472041657969193,2401.52667939075
0.0998287689182606,2401.53667939075
0.178246603532489,2401.54667939075
0.278574926157481,2401.55667939075
0.393450654645145,2401.56667939075
0.516006837416037,2401.57667939075
0.639913170609,2401.58667939075
0.757085591184399,2401.59667939075
0.861425887750022,2401.60667939075
0.949375390713421,2401.61667939075
1.02076205186653,2401.62667939075
1.0755749505631,2401.63667939075
1.11302942260422,2401.64667939075
1.13407971619471,2401.65667939075
1.14222343853076,2401.66667939075
1.14249038059275,2401.67667939075
1.13800942795998,2401.68667939075
1.13345281122419,2401.69667939075
1.12924571519247,2401.70667939075
1.12358319773224,2401.71667939075
1.11515663825396,2401.72667939075
1.10429765368591,2401.73667939075
1.09224712392517,2401.74667939075
1.08044629302178,2401.75667939075
1.07048274198961,2401.76667939075
1.06037300587983,2401.77667939075
1.04612312729901,2401.78667939075
1.02613652311895,2401.79667939075
1.00054237291167,2401.80667939075
0.972198193900534,2401.81667939075
0.943871579128978,2401.82667939075
0.920383512735555,2401.83667939075
0.902161482973308,2401.84667939075
0.886702468466599,2401.85667939075
0.873035986110083,2401.86667939075
0.860535882019966,2401.87667939075
0.849414090961165,2401.88667939075
0.841699317582537,2401.89667939075
0.838131591430344,2401.90667939075
0.83801982976991,2401.91667939075
0.837487138631325,2401.92667939075
0.83395383815288,2401.93667939075
0.82681763787921,2401.94667939075
0.816885425215726,2401.95667939075
0.805816640273428,2401.96667939075
0.795129608435387,2401.97667939075
0.784015357366201,2401.98667939075
0.770550456658945,2401.99667939075
0.753576504621257,2402.00667939075
0.733362318536286,2402.01667939075
0.710400558745851,2402.02667939075
0.687278937953411,2402.03667939075
0.665265512389317,2402.04667939075
0.645102573789154,2402.05667939075
0.623826698925446,2402.06667939075
0.599646115363426,2402.07667939075
0.572932884006473,2402.08667939075
0.5449388188,2402.09667939075
0.517656259265563,2402.10667939075
0.493928017382434,2402.11667939075
0.473511753430154,2402.12667939075
0.452561055391353,2402.13667939075
0.428965989825541,2402.14667939075
0.403026762561162,2402.15667939075
0.376507390931826,2402.16667939075
0.351320998094515,2402.17667939075
0.33121029250127,2402.18667939075
0.315265076124607,2402.19667939075
0.299920213714457,2402.20667939075
0.282126017815943,2402.21667939075
0.261845091654005,2402.22667939075
0.240421665231235,2402.23667939075
0.219656100873354,2402.24667939075
0.202241001297814,2402.25667939075
0.188194633584153,2402.26667939075
0.173071010492916,2402.27667939075
0.155813553921794,2402.28667939075
0.136826707676601,2402.29667939075
0.11762698761454,2402.30667939075
0.0997913362772244,2402.31667939075
0.0837196953006676,2402.32667939075
0.069052017084162,2402.33667939075
0.0540854906164265,2402.34667939075
0.0381138813288763,2402.35667939075
0.0205280125647306,2402.36667939075
0.00322635406675203,2402.37667939075
-0.0136804250641869,2402.38667939075
-0.0280550535761518,2402.39667939075
-0.0398069345420218,2402.40667939075
-0.0518191327020031,2402.41667939075
-0.0652513883023912,2402.42667939075
-0.0806581329010804,2402.43667939075
-0.0967606018188949,2402.44667939075
-0.11173630458747,2402.45667939075
-0.122894001356934,2402.46667939075
-0.130267117855524,2402.47667939075
-0.138295791188473,2402.48667939075
-0.150529555382387,2402.49667939075
-0.166510796336472,2402.50667939075
-0.184776783271399,2402.51667939075
-0.203611408478254,2402.52667939075
-0.219204285949146,2402.53667939075
-0.230901285037248,2402.54667939075
-0.241590169545372,2402.55667939075
-0.249672399826269,2402.56667939075
-0.250573466003307,2402.57667939075
-0.238432634491968,2402.58667939075
-0.206412772785742,2402.59667939075
-0.151328396305928,2402.60667939075
-0.072109673884402,2402.61667939075
0.0292502999278916,2402.62667939075
0.144989527368494,2402.63667939075
0.265209488357771,2402.64667939075
0.379945460133031,2402.65667939075
0.482394896091709,2402.66667939075
0.567843407575559,2402.67667939075
0.635959324845639,2402.68667939075
0.688617656235831,2402.69667939075
0.727022041456854,2402.70667939075
0.75104509070579,2402.71667939075
0.762587897058925,2402.72667939075
0.764458793426554,2402.73667939075
0.760577307141237,2402.74667939075
0.75387191173979,2402.75667939075
0.748071964086955,2402.76667939075
0.74308860356851,2402.77667939075
0.736420004956105,2402.78667939075
0.726520631558329,2402.79667939075
0.713085144543349,2402.80667939075
0.696729590211807,2402.81667939075
0.678913100005483,2402.82667939075
0.661583386890456,2402.83667939075
0.644234184603867,2402.84667939075
0.623240232381429,2402.85667939075
0.597698860547888,2402.86667939075
0.56910675061494,2402.87667939075
0.540929642953743,2402.88667939075
0.516662563646837,2402.89667939075
0.499997952477522,2402.90667939075
0.491688542192555,2402.91667939075
0.48774324367376,2402.92667939075
0.485355946303741,2402.93667939075
0.484259403742231,2402.94667939075
0.484669504068318,2402.95667939075
0.487413601607308,2402.96667939075
0.494818372393373,2402.97667939075
0.504544972633389,2402.98667939075
0.511962430446534,2402.99667939075
0.514498683564277,2403.00667939075
0.511573766257829,2403.01667939075
0.504939034977231,2403.02667939075
0.496960346627093,2403.03667939075
0.489509761202788,2403.04667939075
0.482539252018741,2403.05667939075
0.472864767650023,2403.06667939075
0.45984541873336,2403.07667939075
0.442892256432848,2403.08667939075
0.423987606975595,2403.09667939075
0.405361012541686,2403.10667939075
0.388788741565878,2403.11667939075
0.374282280190797,2403.12667939075
0.358020322400236,2403.13667939075
0.338407215557656,2403.14667939075
0.315434770828184,2403.15667939075
0.291174375655861,2403.16667939075
0.267688799230534,2403.17667939075
0.248058705918705,2403.18667939075
0.231271901178167,2403.19667939075
0.214803520704556,2403.20667939075
0.196625467886612,2403.21667939075
0.176295675994233,2403.22667939075
0.155287920351007,2403.23667939075
0.135168869171224,2403.24667939075
0.118128971818496,2403.25667939075
0.104481154869682,2403.26667939075
0.0905513715653195,2403.27667939075
0.0753485134814336,2403.28667939075
0.0584569076838881,2403.29667939075
0.0418100320800977,2403.30667939075
0.0268511382341195,2403.31667939075
0.0163928198234768,2403.32667939075
0.00914130273724478,2403.33667939075
0.000911336195904657,2403.34667939075
-0.0100569735726093,2403.35667939075
-0.0246066832756052,2403.36667939075
-0.0404607783753234,2403.37667939075
-0.0559036947624821,2403.38667939075
-0.067477341533239,2403.39667939075
-0.0757483692879842,2403.40667939075
-0.0846208524204157,2403.41667939075
-0.0965352353978069,2403.42667939075
-0.111830251833086,2403.43667939075
-0.127634570288694,2403.44667939075
-0.140545847211951,2403.45667939075
-0.144658266377002,2403.46667939075
-0.136540379908549,2403.47667939075
-0.113921641595252,2403.48667939075
-0.0752151110966952,2403.49667939075
-0.0177544716993068,2403.50667939075
0.060138943880488,2403.51667939075
0.156224184263402,2403.52667939075
0.268208971099625,2403.53667939075
0.386089081449622,2403.54667939075
0.499016408088041,2403.55667939075
0.59770991838194,2403.56667939075
0.677794832657058,2403.57667939075
0.738997478546277,2403.58667939075
0.782370409618685,2403.59667939075
0.811328040741404,2403.60667939075
0.828619537814275,2403.61667939075
0.838664808109595,2403.62667939075
0.843624130546961,2403.63667939075
0.842514882035547,2403.64667939075
0.835623754765982,2403.65667939075
0.824128850081954,2403.66667939075
0.810451172439061,2403.67667939075
0.796104108173517,2403.68667939075
0.784125147253463,2403.69667939075
0.774506946728291,2403.70667939075
0.763655044003225,2403.71667939075
0.748854249296638,2403.72667939075
0.729245795659782,2403.73667939075
0.706110479913186,2403.74667939075
0.680525155913856,2403.75667939075
0.655513260254349,2403.76667939075
0.632828708634133,2403.77667939075
0.609243116100162,2403.78667939075
0.584430958124606,2403.79667939075
0.560023513170849,2403.80667939075
0.538040750134575,2403.81667939075
0.521395332365126,2403.82667939075
0.512692979701289,2403.83667939075
0.51071799537575,2403.84667939075
0.512133221437617,2403.85667939075
0.513487082318113,2403.86667939075
0.513134522595816,2403.87667939075
0.511509829814759,2403.88667939075
0.509572405040962,2403.89667939075
0.508534378587221,2403.90667939075
0.50790127683725,2403.91667939075
0.505190392090773,2403.92667939075
0.499099568244089,2403.93667939075
0.489375532553057,2403.94667939075
0.47770165526835,2403.95667939075
0.465273535898566,2403.96667939075
0.453246063930078,2403.97667939075
0.442171332199491,2403.98667939075
0.428842075403288,2403.99667939075
0.412672776195007,2404.00667939075
0.393522660061154,2404.01667939075
0.373477469877909,2404.02667939075
0.353664839924715,2404.03667939075
0.336652187179736,2404.04667939075
0.321701767464996,2404.05667939075
0.305746565175486,2404.06667939075
0.287697977902082,2404.07667939075
0.267778378056037,2404.08667939075
0.247085759919328,2404.09667939075
0.22741056490179,2404.10667939075
0.212279907047248,2404.11667939075
0.200878679729385,2404.12667939075
0.18933368242899,2404.13667939075
0.174926834806172,2404.14667939075
0.157768698982282,2404.15667939075
0.139857371046882,2404.16667939075
0.123218009305732,2404.17667939075
0.109802964711451,2404.18667939075
0.0999236342210101,2404.19667939075
0.089910056266052,2404.20667939075
0.0777628934738715,2404.21667939075
0.0633990350354899,2404.22667939075
0.0474957201132617,2404.23667939075
0.03226700272462,2404.24667939075
0.0201349270466684,2404.25667939075
0.0107612943746367,2404.26667939075
0.00122492130683404,2404.27667939075
-0.00973140111074784,2404.28667939075
-0.0221648823197369,2404.29667939075
-0.0354182018076325,2404.30667939075
-0.0475957626231193,2404.31667939075
-0.0567683712321104,2404.32667939075
-0.0630071307156838,2404.33667939075
-0.0699000006265084,2404.34667939075
-0.0798462282206793,2404.35667939075
-0.0925434258215992,2404.36667939075
-0.106619344512865,2404.37667939075
-0.120241470671244,2404.38667939075
-0.130611519727791,2404.39667939075
-0.138105902240231,2404.40667939075
-0.145930281287604,2404.41667939075
-0.15434259314877,2404.42667939075
-0.161141188874625,2404.43667939075
-0.159845175321501,2404.44667939075
-0.142795796438271,2404.45667939075
-0.103070717393604,2404.46667939075
-0.0386007318561944,2404.47667939075
0.0468796411989689,2404.48667939075
0.148332881449085,2404.49667939075
0.260726271205147,2404.50667939075
0.378194205208561,2404.51667939075
0.493468184363928,2404.52667939075
0.602772795597793,2404.53667939075
0.698948019350768,2404.54667939075
0.777048282917726,2404.55667939075
0.83500844417138,2404.56667939075
0.873983936988595,2404.57667939075
0.897859527805684,2404.58667939075
0.910454220588809,2404.59667939075
0.915965347272872,2404.60667939075
0.917724105762816,2404.61667939075
0.917827851587952,2404.62667939075
0.91635065975496,2404.63667939075
0.911944921856312,2404.64667939075
0.903955446147433,2404.65667939075
0.893332995492607,2404.66667939075
0.880906127412189,2404.67667939075
0.868996492181481,2404.68667939075
0.858738566563501,2404.69667939075
0.848574607989028,2404.70667939075
0.834186519403543,2404.71667939075
0.814014166729145,2404.72667939075
0.787694450563741,2404.73667939075
0.757998762331357,2404.74667939075
0.728188498131321,2404.75667939075
0.702671366515781,2404.76667939075
0.682838023550384,2404.77667939075
0.665868369968393,2404.78667939075
0.650535845057174,2404.79667939075
0.636752700615363,2404.80667939075
0.626002003280024,2404.81667939075
0.619094867621596,2404.82667939075
0.617409364384254,2404.83667939075
0.620453393677975,2404.84667939075
0.623477301523238,2404.85667939075
0.624217622302209,2404.86667939075
0.621998901168413,2404.87667939075
0.617356182698067,2404.88667939075
0.611730246151164,2404.89667939075
0.606521806978422,2404.90667939075
0.60176915377078,2404.91667939075
0.593869323620262,2404.92667939075
0.581913872758604,2404.93667939075
0.566138454536772,2404.94667939075
0.547754752478534,2404.95667939075
0.528207640370276,2404.96667939075
0.510046000927586,2404.97667939075
0.492801849216982,2404.98667939075
0.473812220171451,2404.99667939075
0.451783107024659,2405.00667939075
