PPG,time
0.361804566875979,1421.40578764084
0.715444496206228,1421.41578764084
0.631497844230622,1421.42578764084
0.679266345327489,1421.43578764084
0.650803971006442,1421.44578764084
0.66693094774049,1421.45578764084
0.64988345924636,1421.46578764084
0.648024723725699,1421.47578764084
0.632483270606647,1421.48578764084
0.620700655377645,1421.49578764084
0.604923726841828,1421.50578764084
0.588963138923511,1421.51578764084
0.572005868918699,1421.52578764084
0.554714421709775,1421.53578764084
0.535610038660939,1421.54578764084
0.515480845566286,1421.55578764084
0.495687657168824,1421.56578764084
0.476763649766591,1421.57578764084
0.459306439872184,1421.58578764084
0.442322579607777,1421.59578764084
0.425136991474812,1421.60578764084
0.407760445986926,1421.61578764084
0.389585936022859,1421.62578764084
0.37036629567565,1421.63578764084
0.350852317779112,1421.64578764084
0.332223958880702,1421.65578764084
0.313114134239705,1421.66578764084
0.294139615020835,1421.67578764084
0.275152774561352,1421.68578764084
0.255818890410237,1421.69578764084
0.235218600914133,1421.70578764084
0.214702370792548,1421.71578764084
0.194791151431242,1421.72578764084
0.176406479598553,1421.73578764084
0.158635421167225,1421.74578764084
0.141208293919664,1421.75578764084
0.123969293174282,1421.76578764084
0.106763278570287,1421.77578764084
0.0891066370807225,1421.78578764084
0.0711735382116221,1421.79578764084
0.0534449324673269,1421.80578764084
0.0356059722472122,1421.81578764084
0.0187920280669866,1421.82578764084
0.00555982963289892,1421.83578764084
0.000350394392090746,1421.84578764084
0.00878008097091804,1421.85578764084
0.0367728143589678,1421.86578764084
0.0854448043551737,1421.87578764084
0.15218007423124,1421.88578764084
0.231929281439032,1421.89578764084
0.317665306122807,1421.90578764084
0.403855028733861,1421.91578764084
0.484785840609226,1421.92578764084
0.557579783010012,1421.93578764084
0.61964024240167,1421.94578764084
0.670808470051058,1421.95578764084
0.711453495204094,1421.96578764084
0.742447437969118,1421.97578764084
0.767019984505913,1421.98578764084
0.787201747067008,1421.99578764084
0.804760610312599,1422.00578764084
0.820777665529071,1422.01578764084
0.837074090787615,1422.02578764084
0.854025535589095,1422.03578764084
0.872010377317334,1422.04578764084
0.891565386052915,1422.05578764084
0.911880596271209,1422.06578764084
0.931625352085734,1422.07578764084
0.947709535728853,1422.08578764084
0.958935948884212,1422.09578764084
0.962618710197832,1422.10578764084
0.958542964628549,1422.11578764084
0.947160167704796,1422.12578764084
0.929729430905912,1422.13578764084
0.909134124436746,1422.14578764084
0.887682977711275,1422.15578764084
0.86741715617968,1422.16578764084
0.850067733564517,1422.17578764084
0.836712892043995,1422.18578764084
0.827786076160857,1422.19578764084
0.823072762407608,1422.20578764084
0.821470434072022,1422.21578764084
0.821862766488956,1422.22578764084
0.822485362992932,1422.23578764084
0.821625198856914,1422.24578764084
0.817913797875754,1422.25578764084
0.811001378939671,1422.26578764084
0.800888384783148,1422.27578764084
0.787901159358261,1422.28578764084
0.772738369124858,1422.29578764084
0.756049933883356,1422.30578764084
0.738234893574917,1422.31578764084
0.718775522672298,1422.32578764084
0.698366347144329,1422.33578764084
0.67714506820304,1422.34578764084
0.654996394655187,1422.35578764084
0.633394235537826,1422.36578764084
0.61183995964528,1422.37578764084
0.59075994375073,1422.38578764084
0.569152088883957,1422.39578764084
0.547419733970525,1422.40578764084
0.525462629200951,1422.41578764084
0.503423127643857,1422.42578764084
0.481432449313248,1422.43578764084
0.459036436733688,1422.44578764084
0.436574437259457,1422.45578764084
0.41422287575643,1422.46578764084
0.391237820044083,1422.47578764084
0.368794236427784,1422.48578764084
0.346067801694683,1422.49578764084
0.322705797432605,1422.50578764084
0.300396513048869,1422.51578764084
0.279157057821549,1422.52578764084
0.259224094450179,1422.53578764084
0.240421156275138,1422.54578764084
0.220808888303293,1422.55578764084
0.200354189447041,1422.56578764084
0.179599985171218,1422.57578764084
0.157886288819094,1422.58578764084
0.136726926539913,1422.59578764084
0.116059172483703,1422.60578764084
0.0957319635180913,1422.61578764084
0.0753268993119521,1422.62578764084
0.0553986372211582,1422.63578764084
0.0356127213770374,1422.64578764084
0.0162111486098482,1422.65578764084
-0.00178875021662475,1422.66578764084
-0.0153656706937693,1422.67578764084
-0.0208442843230001,1422.68578764084
-0.011973739979863,1422.69578764084
0.0160081843719111,1422.70578764084
0.0650868191783085,1422.71578764084
0.132394203273273,1422.72578764084
0.213819910674111,1422.73578764084
0.302172969550067,1422.74578764084
0.392042411369503,1422.75578764084
0.477861897491382,1422.76578764084
0.555660891245624,1422.77578764084
0.623230133858365,1422.78578764084
0.67874981876274,1422.79578764084
0.723549522205633,1422.80578764084
0.758380312496138,1422.81578764084
0.786358845178689,1422.82578764084
0.809476622510803,1422.83578764084
0.830632525836437,1422.84578764084
0.850358580302544,1422.85578764084
0.869973605175157,1422.86578764084
0.889832774193973,1422.87578764084
0.910370831126233,1422.88578764084
0.931150022352058,1422.89578764084
0.951075184067474,1422.90578764084
0.969624685306081,1422.91578764084
0.985470068509016,1422.92578764084
0.996717549937758,1422.93578764084
1.00187277441193,1422.94578764084
0.998722611161279,1422.95578764084
0.987582243530707,1422.96578764084
0.969670592233967,1422.97578764084
0.94856187157157,1422.98578764084
0.9262256196264,1422.99578764084
0.905517552119664,1423.00578764084
0.888722629630303,1423.01578764084
0.875731195756091,1423.02578764084
0.866369108521513,1423.03578764084
0.859840029750223,1423.04578764084
0.854566516844304,1423.05578764084
0.850586324524945,1423.06578764084
0.846591959581029,1423.07578764084
0.84110225224908,1423.08578764084
0.834400069214393,1423.09578764084
0.824578844785167,1423.10578764084
0.811855917417392,1423.11578764084
0.797221751215329,1423.12578764084
0.780843051810913,1423.13578764084
0.763799518515091,1423.14578764084
0.745145812468651,1423.15578764084
0.726552975313973,1423.16578764084
0.707251479573692,1423.17578764084
0.687330385851542,1423.18578764084
0.666691819015334,1423.19578764084
0.645133284232243,1423.20578764084
0.622477157135264,1423.21578764084
0.599470788000984,1423.22578764084
0.576258979996248,1423.23578764084
0.553076115172824,1423.24578764084
0.529614674978356,1423.25578764084
0.50522133080452,1423.26578764084
0.480476181420546,1423.27578764084
0.456106792434811,1423.28578764084
0.431911514688939,1423.29578764084
0.408766804340115,1423.30578764084
0.386255957545822,1423.31578764084
0.362891313814815,1423.32578764084
0.342064590577937,1423.33578764084
0.320907647596811,1423.34578764084
0.299154196146711,1423.35578764084
0.276033623224466,1423.36578764084
0.252863797408967,1423.37578764084
0.229138487270483,1423.38578764084
0.205974012810521,1423.39578764084
0.184210112573298,1423.40578764084
0.162392734705102,1423.41578764084
0.141179528569123,1423.42578764084
0.12014695968227,1423.43578764084
0.0986610332785408,1423.44578764084
0.0766773336676251,1423.45578764084
0.055110840084095,1423.46578764084
0.0344384717666145,1423.47578764084
0.0140216317919684,1423.48578764084
-0.00557035376735,1423.49578764084
-0.025771990355114,1423.50578764084
-0.0453706772959126,1423.51578764084
-0.0650277699256858,1423.52578764084
-0.0842644625059157,1423.53578764084
-0.103420485685376,1423.54578764084
-0.122723437782577,1423.55578764084
-0.142020083997198,1423.56578764084
-0.161352835230059,1423.57578764084
-0.179342997539109,1423.58578764084
-0.192807127545135,1423.59578764084
-0.196932705964986,1423.60578764084
-0.184131425049639,1423.61578764084
-0.148789029107716,1423.62578764084
-0.0908983003696456,1423.63578764084
-0.0144464233068845,1423.64578764084
0.0730423999015135,1423.65578764084
0.164482282822282,1423.66578764084
0.254145317535744,1423.67578764084
0.337384303039507,1423.68578764084
0.411456235142831,1423.69578764084
0.475061161983544,1423.70578764084
0.528173166539616,1423.71578764084
0.570103727519459,1423.72578764084
0.602385633152124,1423.73578764084
0.62797747054077,1423.74578764084
0.647937052441622,1423.75578764084
0.66483513581972,1423.76578764084
0.680442715396173,1423.77578764084
0.696122976452615,1423.78578764084
0.712164411492286,1423.79578764084
0.728782616072056,1423.80578764084
0.745506095593189,1423.81578764084
0.762249024893465,1423.82578764084
0.777417488801449,1423.83578764084
0.789721883754456,1423.84578764084
0.797420518712076,1423.85578764084
0.798758560308201,1423.86578764084
0.792952569809659,1423.87578764084
0.780349816840149,1423.88578764084
0.762358637279657,1423.89578764084
0.740437963909828,1423.90578764084
0.717571199148455,1423.91578764084
0.696815496512413,1423.92578764084
0.679732840573937,1423.93578764084
0.667055831945037,1423.94578764084
0.658600089250332,1423.95578764084
0.653164370320283,1423.96578764084
0.649772225602824,1423.97578764084
0.646957084667886,1423.98578764084
0.64313611106664,1423.99578764084
0.638169503684804,1424.00578764084
0.63119656849891,1424.01578764084
0.621689886946697,1424.02578764084
0.609801785599073,1424.03578764084
0.595036731792177,1424.04578764084
0.578312125123486,1424.05578764084
0.558811625018228,1424.06578764084
0.538693317629118,1424.07578764084
0.51857859457793,1424.08578764084
0.49877887520759,1424.09578764084
0.479588554762786,1424.10578764084
0.460011534472256,1424.11578764084
0.440006446059804,1424.12578764084
0.418991191246366,1424.13578764084
0.396947104902496,1424.14578764084
0.373609976206527,1424.15578764084
0.349223834386718,1424.16578764084
0.324187637803235,1424.17578764084
0.299145860539539,1424.18578764084
0.27464643130756,1424.19578764084
0.250521520430592,1424.20578764084
0.226035877024282,1424.21578764084
0.202795306210212,1424.22578764084
0.17938383336808,1424.23578764084
0.15675001769553,1424.24578764084
0.134767668146077,1424.25578764084
0.113578897982674,1424.26578764084
0.0929262027457992,1424.27578764084
0.0724782915083362,1424.28578764084
0.0510701348318853,1424.29578764084
0.0293009052925356,1424.30578764084
0.00797106956537253,1424.31578764084
-0.0128381375496748,1424.32578764084
-0.0330595283244542,1424.33578764084
-0.0532002869039068,1424.34578764084
-0.0729633102314351,1424.35578764084
-0.0933415408590833,1424.36578764084
-0.114229917866558,1424.37578764084
-0.135415088309014,1424.38578764084
-0.156494909358116,1424.39578764084
-0.177006693385572,1424.40578764084
-0.196104299700811,1424.41578764084
-0.214030057348211,1424.42578764084
-0.23167145629259,1424.43578764084
-0.248538981902299,1424.44578764084
-0.265686751103006,1424.45578764084
-0.283547833562645,1424.46578764084
-0.301161824763377,1424.47578764084
-0.318759696943858,1424.48578764084
-0.33608342771132,1424.49578764084
-0.353401563794526,1424.50578764084
-0.370488820058776,1424.51578764084
-0.386029041574573,1424.52578764084
-0.394261530042753,1424.53578764084
-0.388141956383772,1424.54578764084
-0.361144567194978,1424.55578764084
-0.311784981767705,1424.56578764084
-0.243276994637748,1424.57578764084
-0.162987185343558,1424.58578764084
-0.0788906793126403,1424.59578764084
0.00214472844493416,1424.60578764084
0.0758464328141389,1424.61578764084
0.13985347191899,1424.62578764084
0.192852314727092,1424.63578764084
0.235551094333639,1424.64578764084
0.269068427475086,1424.65578764084
0.294309384358597,1424.66578764084
0.313462658721465,1424.67578764084
0.32771135427767,1424.68578764084
0.338728987359136,1424.69578764084
0.347819717549768,1424.70578764084
0.356145650220349,1424.71578764084
0.364110372637235,1424.72578764084
0.372189801330093,1424.73578764084
0.379925251619706,1424.74578764084
0.38690870723873,1424.75578764084
0.393350591060627,1424.76578764084
0.396408760134857,1424.77578764084
0.394524179087696,1424.78578764084
0.387350322126745,1424.79578764084
0.374316940700073,1424.80578764084
0.356793848226516,1424.81578764084
0.336869574819742,1424.82578764084
0.317616999306109,1424.83578764084
0.300941212624972,1424.84578764084
0.28874628782851,1424.85578764084
0.281215183350924,1424.86578764084
0.27882753048996,1424.87578764084
0.279697470602504,1424.88578764084
0.282845309162939,1424.89578764084
0.286401946627526,1424.90578764084
0.289191846261588,1424.91578764084
0.290108171219899,1424.92578764084
0.288998243943729,1424.93578764084
0.284822749697447,1424.94578764084
0.277816789733107,1424.95578764084
0.268212945812721,1424.96578764084
0.256571097625355,1424.97578764084
0.243260291536852,1424.98578764084
0.228185949751838,1424.99578764084
0.212201524590047,1425.00578764084
0.195188419812969,1425.01578764084
0.178219899078685,1425.02578764084
0.16122085836294,1425.03578764084
0.144913613051039,1425.04578764084
0.128710955086401,1425.05578764084
0.112219037431563,1425.06578764084
0.0950788075804693,1425.07578764084
0.0772536474790126,1425.08578764084
0.0591464044436646,1425.09578764084
0.0401172604278464,1425.10578764084
0.0214643152237539,1425.11578764084
0.0031429240092582,1425.12578764084
-0.0145428715302921,1425.13578764084
-0.0318764196445065,1425.14578764084
-0.04908716654161,1425.15578764084
-0.0657609450654408,1425.16578764084
-0.0825808442246263,1425.17578764084
-0.0992977952547722,1425.18578764084
-0.116112267338308,1425.19578764084
-0.132683126356715,1425.20578764084
-0.149603494275825,1425.21578764084
-0.166730824155289,1425.22578764084
-0.183667350775451,1425.23578764084
-0.20104725672412,1425.24578764084
-0.218369865385912,1425.25578764084
-0.235789601333841,1425.26578764084
-0.252628530029251,1425.27578764084
-0.269673883753544,1425.28578764084
-0.286456504797905,1425.29578764084
-0.303024086182499,1425.30578764084
-0.320453150286687,1425.31578764084
-0.337564504145465,1425.32578764084
-0.354354620037561,1425.33578764084
-0.370693128704811,1425.34578764084
-0.385352284256966,1425.35578764084
-0.399048834081358,1425.36578764084
-0.409693736468047,1425.37578764084
-0.413869088204183,1425.38578764084
-0.405334622418962,1425.39578764084
-0.378063705178292,1425.40578764084
-0.330313832142788,1425.41578764084
-0.264913265896868,1425.42578764084
-0.187255475352606,1425.43578764084
-0.104871642524043,1425.44578764084
-0.0238106300844508,1425.45578764084
0.050771570301241,1425.46578764084
0.116113598264598,1425.47578764084
0.171342005492153,1425.48578764084
0.216130075759187,1425.49578764084
0.250751969585566,1425.50578764084
0.277058854265712,1425.51578764084
0.296947109110473,1425.52578764084
0.312328997783919,1425.53578764084
0.324688544342847,1425.54578764084
0.335576666568436,1425.55578764084
0.345803622633899,1425.56578764084
0.355466139520289,1425.57578764084
0.365165269829492,1425.58578764084
0.374141890835417,1425.59578764084
0.381975692753861,1425.60578764084
0.38869070015549,1425.61578764084
0.392982588982237,1425.62578764084
0.393653126128742,1425.63578764084
0.388653419254198,1425.64578764084
0.378209040379991,1425.65578764084
0.363014431574997,1425.66578764084
0.344883691843959,1425.67578764084
0.32694753696832,1425.68578764084
0.310512195122215,1425.69578764084
0.298241378896252,1425.70578764084
0.290886671268643,1425.71578764084
0.287521696006277,1425.72578764084
0.288128986672663,1425.73578764084
0.290242482762256,1425.74578764084
0.292988366638899,1425.75578764084
0.294775335990168,1425.76578764084
0.294245513755356,1425.77578764084
0.291610635548814,1425.78578764084
0.285855845610527,1425.79578764084
0.276877483239033,1425.80578764084
0.265322400853202,1425.81578764084
0.252555179612073,1425.82578764084
0.238653752331262,1425.83578764084
0.224445016912294,1425.84578764084
0.209946626223161,1425.85578764084
0.195350447364125,1425.86578764084
0.179302845854029,1425.87578764084
0.163169587114903,1425.88578764084
0.146122948598929,1425.89578764084
0.12888617095889,1425.90578764084
0.111707849814992,1425.91578764084
0.0944448891568454,1425.92578764084
0.0774315426902998,1425.93578764084
0.0601083569741259,1425.94578764084
0.0421568234237158,1425.95578764084
0.0233216782110008,1425.96578764084
0.00497824139298811,1425.97578764084
-0.0128409198604548,1425.98578764084
-0.0302217363218293,1425.99578764084
-0.046537622935784,1426.00578764084
-0.0623194327360511,1426.01578764084
-0.0781384713991351,1426.02578764084
-0.0942064627631583,1426.03578764084
-0.110755119881699,1426.04578764084
-0.127798640296928,1426.05578764084
-0.145257234893837,1426.06578764084
-0.163134868002819,1426.07578764084
-0.18057153036727,1426.08578764084
-0.197899377923438,1426.09578764084
-0.214626987623949,1426.10578764084
-0.230685951795682,1426.11578764084
-0.246081287582144,1426.12578764084
-0.260908006808808,1426.13578764084
-0.275852383671373,1426.14578764084
-0.290902308354309,1426.15578764084
-0.305928183637672,1426.16578764084
-0.320984529961518,1426.17578764084
-0.336136177012616,1426.18578764084
-0.350576042243803,1426.19578764084
-0.363045944973267,1426.20578764084
-0.368838036165991,1426.21578764084
-0.361914013551133,1426.22578764084
-0.33621909921527,1426.23578764084
-0.289522347905718,1426.24578764084
-0.223344496332714,1426.25578764084
-0.143834263071815,1426.26578764084
-0.0573249564576478,1426.27578764084
0.0299286170978417,1426.28578764084
0.112384551749442,1426.29578764084
0.186961490176505,1426.30578764084
0.251446333292499,1426.31578764084
0.304432652413373,1426.32578764084
0.346633928710212,1426.33578764084
0.379368853952132,1426.34578764084
0.404388143226996,1426.35578764084
0.424463200756964,1426.36578764084
0.441395226692385,1426.37578764084
0.456786855022314,1426.38578764084
0.472769669277023,1426.39578764084
0.488676931440781,1426.40578764084
0.50495523828676,1426.41578764084
0.52122878808035,1426.42578764084
0.537187739342578,1426.43578764084
0.552837992627123,1426.44578764084
0.566504200289223,1426.45578764084
0.577346737623797,1426.46578764084
0.582525773754184,1426.47578764084
0.58175693325971,1426.48578764084
0.573739568258812,1426.49578764084
0.559689836985064,1426.50578764084
0.541456335461519,1426.51578764084
0.522105033337847,1426.52578764084
0.503360871810219,1426.53578764084
0.487286709620805,1426.54578764084
0.474736061484772,1426.55578764084
0.466407262947229,1426.56578764084
0.462008882909606,1426.57578764084
0.460241624855479,1426.58578764084
0.460132440064834,1426.59578764084
0.460113142254806,1426.60578764084
0.459261386317223,1426.61578764084
0.456588090910943,1426.62578764084
0.451518485989758,1426.63578764084
0.443637068632282,1426.64578764084
0.433399488547165,1426.65578764084
0.420771067615292,1426.66578764084
0.40620248165015,1426.67578764084
0.390473663876802,1426.68578764084
0.37383422916136,1426.69578764084
0.357599326651033,1426.70578764084
0.340776483746568,1426.71578764084
0.323673258418604,1426.72578764084
0.306035570811857,1426.73578764084
0.288136979258498,1426.74578764084
0.269756398915718,1426.75578764084
0.251302138515626,1426.76578764084
0.232229135370466,1426.77578764084
0.212714827915833,1426.78578764084
0.192854592592343,1426.79578764084
0.173311262281512,1426.80578764084
0.153433387147531,1426.81578764084
0.133769417587524,1426.82578764084
0.114608599957969,1426.83578764084
0.0957622996099536,1426.84578764084
0.0771188215943753,1426.85578764084
0.0582290015206724,1426.86578764084
0.0389881143802622,1426.87578764084
0.0203584268521487,1426.88578764084
0.00203919145134278,1426.89578764084
-0.0159022215959145,1426.90578764084
-0.0334869110859599,1426.91578764084
-0.0502817375628144,1426.92578764084
-0.0668252309374734,1426.93578764084
-0.0838605671578852,1426.94578764084
-0.100726859761863,1426.95578764084
-0.117855471433418,1426.96578764084
-0.135493470151037,1426.97578764084
-0.15348261415766,1426.98578764084
-0.172214424351071,1426.99578764084
-0.190948925414605,1427.00578764084
-0.209833883893247,1427.01578764084
-0.228022027725256,1427.02578764084
-0.245735934545804,1427.03578764084
-0.263360805938949,1427.04578764084
-0.280049010091706,1427.05578764084
-0.296478499167667,1427.06578764084
-0.312386624898627,1427.07578764084
-0.327745798074405,1427.08578764084
-0.34168399177674,1427.09578764084
-0.351987634060685,1427.10578764084
-0.352287081076519,1427.11578764084
-0.33635713882445,1427.12578764084
-0.29891445397233,1427.13578764084
-0.238586952631726,1427.14578764084
-0.160032883621252,1427.15578764084
-0.0704054641858487,1427.16578764084
0.0225719610292304,1427.17578764084
0.112685722295227,1427.18578764084
0.19686163617204,1427.19578764084
0.270755943053453,1427.20578764084
0.333685504641994,1427.21578764084
0.385227923233969,1427.22578764084
0.426403690175176,1427.23578764084
0.458443748477358,1427.24578764084
0.483810601684017,1427.25578764084
0.50412018017719,1427.26578764084
0.521841911849012,1427.27578764084
0.538557266081121,1427.28578764084
0.554872419433893,1427.29578764084
0.571598525468075,1427.30578764084
0.588504709193426,1427.31578764084
0.605762801936785,1427.32578764084
0.623088988237189,1427.33578764084
0.639232301856055,1427.34578764084
0.653162911450549,1427.35578764084
0.66341799723657,1427.36578764084
0.668077072377975,1427.37578764084
0.666340380713409,1427.38578764084
0.657475093144138,1427.39578764084
0.642620202629837,1427.40578764084
0.623087601222294,1427.41578764084
0.6018653162867,1427.42578764084
0.58119521521033,1427.43578764084
0.562924631641046,1427.44578764084
0.547988420995261,1427.45578764084
0.537334712433399,1427.46578764084
0.530659098990541,1427.47578764084
0.526685715703804,1427.48578764084
0.524155882823267,1427.49578764084
0.522313020531546,1427.50578764084
0.519603869703384,1427.51578764084
0.515481346795454,1427.52578764084
0.508996218070204,1427.53578764084
0.499799844503368,1427.54578764084
0.488585396806606,1427.55578764084
0.475133558029595,1427.56578764084
0.460516671223104,1427.57578764084
0.444444630482907,1427.58578764084
0.427335899524808,1427.59578764084
0.409363697436987,1427.60578764084
0.390447249978578,1427.61578764084
0.370921182868881,1427.62578764084
0.351376761934797,1427.63578764084
0.33156453169585,1427.64578764084
0.311558592545387,1427.65578764084
0.291069260813181,1427.66578764084
0.269993290412986,1427.67578764084
0.24887325753651,1427.68578764084
0.226936950748941,1427.69578764084
0.204925898850201,1427.70578764084
0.182632971369837,1427.71578764084
0.160746375926683,1427.72578764084
0.13938152074454,1427.73578764084
0.119195255602722,1427.74578764084
0.09936669092916,1427.75578764084
0.0795990040776078,1427.76578764084
0.0595891218358133,1427.77578764084
0.0393141142176708,1427.78578764084
0.0193310114818359,1427.79578764084
-0.000743065302161521,1427.80578764084
-0.0203253687188031,1427.81578764084
-0.0397261483897713,1427.82578764084
-0.0583655047704151,1427.83578764084
-0.0766266805441121,1427.84578764084
-0.0945626376288557,1427.85578764084
-0.11226688754045,1427.86578764084
-0.129841391597263,1427.87578764084
-0.147828820147933,1427.88578764084
-0.165545466949622,1427.89578764084
-0.183600797815576,1427.90578764084
-0.201963886026509,1427.91578764084
-0.220697462292933,1427.92578764084
-0.239684627689553,1427.93578764084
-0.258731138638834,1427.94578764084
-0.27752345046277,1427.95578764084
-0.295861572865225,1427.96578764084
-0.314284185936872,1427.97578764084
-0.332112187999074,1427.98578764084
-0.349830156620072,1427.99578764084
-0.367185871457617,1428.00578764084
-0.383980751616818,1428.01578764084
-0.400300817452199,1428.02578764084
-0.416609793757409,1428.03578764084
-0.432316579673094,1428.04578764084
-0.446515208940648,1428.05578764084
-0.456521044406908,1428.06578764084
-0.456321830652096,1428.07578764084
-0.438207961385202,1428.08578764084
-0.397024678806592,1428.09578764084
-0.331956285906485,1428.10578764084
-0.249331206574396,1428.11578764084
-0.157175368253156,1428.12578764084
-0.0639966415542253,1428.13578764084
0.0235119641959731,1428.14578764084
0.101254995741625,1428.15578764084
0.168450385308037,1428.16578764084
0.224431112941565,1428.17578764084
0.269378012219065,1428.18578764084
0.30446191313026,1428.19578764084
0.330494155298182,1428.20578764084
0.349579448171079,1428.21578764084
0.363299019942072,1428.22578764084
0.374484967474688,1428.23578764084
0.384209410166919,1428.24578764084
0.394338678117182,1428.25578764084
0.404840671844536,1428.26578764084
0.416340289806803,1428.27578764084
0.428052297716516,1428.28578764084
0.438974978186363,1428.29578764084
0.448443358852558,1428.30578764084
0.455098851052678,1428.31578764084
0.457313146055867,1428.32578764084
0.453683501790319,1428.33578764084
0.444176960626291,1428.34578764084
0.429493191804231,1428.35578764084
0.411347991004294,1428.36578764084
0.392827374138655,1428.37578764084
0.375930164853854,1428.38578764084
0.362568720411077,1428.39578764084
0.353621685371806,1428.40578764084
0.348748412880835,1428.41578764084
0.34793519000802,1428.42578764084
0.34955529027863,1428.43578764084
0.352617968558037,1428.44578764084
0.355179543433557,1428.45578764084
0.356570005769586,1428.46578764084
0.355539522444326,1428.47578764084
0.352293159294845,1428.48578764084
0.346455240393763,1428.49578764084
0.337708409237915,1428.50578764084
0.327306233514741,1428.51578764084
0.314704152317381,1428.52578764084
0.301159172517885,1428.53578764084
0.286795617885747,1428.54578764084
0.27181396398782,1428.55578764084
0.256212346974757,1428.56578764084
0.240099033555838,1428.57578764084
0.223232714827333,1428.58578764084
0.206344878509236,1428.59578764084
0.18915567329265,1428.60578764084
0.171631285794525,1428.61578764084
0.153443521701515,1428.62578764084
0.135030818742429,1428.63578764084
0.11607134955488,1428.64578764084
0.0969976009022122,1428.65578764084
0.0784185380400457,1428.66578764084
0.0600366557484656,1428.67578764084
0.0421271519387259,1428.68578764084
0.0247515143155771,1428.69578764084
0.00737117029457957,1428.70578764084
-0.0101087948660341,1428.71578764084
-0.0276523733191095,1428.72578764084
-0.04491812496728,1428.73578764084
-0.0618442684325149,1428.74578764084
-0.0786971910020099,1428.75578764084
-0.095593485124116,1428.76578764084
-0.112186340884923,1428.77578764084
-0.12920290441013,1428.78578764084
-0.14621557412329,1428.79578764084
-0.163182210097309,1428.80578764084
-0.180360164212566,1428.81578764084
-0.197657622382275,1428.82578764084
-0.215077861822095,1428.83578764084
-0.232890768307026,1428.84578764084
-0.250980212977497,1428.85578764084
-0.268252407618133,1428.86578764084
-0.285223290955353,1428.87578764084
-0.302155291049459,1428.88578764084
-0.318136219694586,1428.89578764084
-0.33362279176397,1428.90578764084
-0.349132903818226,1428.91578764084
-0.36479200146899,1428.92578764084
-0.379752821917636,1428.93578764084
-0.39163156529726,1428.94578764084
-0.395599665902459,1428.95578764084
-0.384046280251961,1428.96578764084
-0.351679300390742,1428.97578764084
-0.296122103064697,1428.98578764084
-0.220505214631059,1428.99578764084
-0.132225194909171,1429.00578764084
-0.0391056013432905,1429.01578764084
0.0521528079477413,1429.02578764084
0.136249935762027,1429.03578764084
0.21191481246511,1429.04578764084
0.276511208654576,1429.05578764084
0.329738793233096,1429.06578764084
0.372213478295771,1429.07578764084
0.405075533244026,1429.08578764084
0.430155203818345,1429.09578764084
0.448836910298783,1429.10578764084
0.463994481359508,1429.11578764084
0.476624748484062,1429.12578764084
0.488011584848669,1429.13578764084
0.498367161339353,1429.14578764084
0.508994771764426,1429.15578764084
0.520226588605045,1429.16578764084
0.530837982180587,1429.17578764084
0.540984922218505,1429.18578764084
0.54889251278369,1429.19578764084
0.553217398158473,1429.20578764084
0.552022535189683,1429.21578764084
0.543728229583941,1429.22578764084
0.529742619085378,1429.23578764084
0.511002714775931,1429.24578764084
0.490162119510537,1429.25578764084
0.470448101495039,1429.26578764084
0.453708321168072,1429.27578764084
0.441731657176763,1429.28578764084
0.435383935841161,1429.29578764084
0.433184039873878,1429.30578764084
0.434231245772878,1429.31578764084
0.436801027671345,1429.32578764084
0.439353980084557,1429.33578764084
0.440357530562682,1429.34578764084
0.438839003467048,1429.35578764084
0.434484161733166,1429.36578764084
0.427253908979681,1429.37578764084
0.417296283786077,1429.38578764084
0.405574260530385,1429.39578764084
0.392381139705444,1429.40578764084
0.377768991081958,1429.41578764084
0.361989650421784,1429.42578764084
0.345968853307287,1429.43578764084
0.329542272664429,1429.44578764084
0.312649626545233,1429.45578764084
0.295301773010334,1429.46578764084
0.278101880319272,1429.47578764084
0.260188055388493,1429.48578764084
0.240873698123748,1429.49578764084
0.220695592824164,1429.50578764084
0.200189166038343,1429.51578764084
0.179133722572079,1429.52578764084
0.158557147106619,1429.53578764084
0.137973769293078,1429.54578764084
0.117882653429071,1429.55578764084
0.0981253933184176,1429.56578764084
0.0788533713283079,1429.57578764084
0.0594125985112617,1429.58578764084
0.040471365632032,1429.59578764084
0.0217670231103746,1429.60578764084
0.00334646399255637,1429.61578764084
-0.0145676581921787,1429.62578764084
-0.0328597961408032,1429.63578764084
-0.0512529225513498,1429.64578764084
-0.0696667518202897,1429.65578764084
-0.087934945892935,1429.66578764084
-0.10600338576108,1429.67578764084
-0.124187790534306,1429.68578764084
-0.142849779530745,1429.69578764084
-0.161632455309047,1429.70578764084
-0.180707849614789,1429.71578764084
-0.199723178202466,1429.72578764084
-0.218563722685198,1429.73578764084
-0.237496888988582,1429.74578764084
-0.25601014086184,1429.75578764084
-0.273900121266455,1429.76578764084
-0.291275276300969,1429.77578764084
-0.307685298913449,1429.78578764084
-0.323835853662056,1429.79578764084
-0.339598521617286,1429.80578764084
-0.35463313012334,1429.81578764084
-0.36813926839153,1429.82578764084
-0.37610764760515,1429.83578764084
-0.371815892213009,1429.84578764084
-0.348267148763674,1429.85578764084
-0.300960342720788,1429.86578764084
-0.230362690787404,1429.87578764084
-0.142405824875357,1429.88578764084
-0.04406061155541,1429.89578764084
0.0562533683639253,1429.90578764084
0.152076895983666,1429.91578764084
0.239543540895554,1429.92578764084
0.316555170054985,1429.93578764084
0.382372423041308,1429.94578764084
0.436898252424909,1429.95578764084
0.481372981114549,1429.96578764084
0.516994235462664,1429.97578764084
0.545035520520659,1429.98578764084
0.567677843538391,1429.99578764084
0.586888642029284,1430.00578764084
0.604018311358955,1430.01578764084
0.621119341974704,1430.02578764084
0.638353794103032,1430.03578764084
0.656942332093516,1430.04578764084
0.67585518920183,1430.05578764084
0.69433502140023,1430.06578764084
0.711820823580205,1430.07578764084
0.726243125070546,1430.08578764084
0.736562408785056,1430.09578764084
0.74097463305575,1430.10578764084
0.738280315372027,1430.11578764084
0.728523212038694,1430.12578764084
0.712906834642624,1430.13578764084
0.692405523932172,1430.14578764084
0.670176331625006,1430.15578764084
0.649151969700229,1430.16578764084
0.63103974396924,1430.17578764084
0.61717726971683,1430.18578764084
0.60756674090121,1430.19578764084
0.601851229690942,1430.20578764084
0.599097781922586,1430.21578764084
0.597778896653979,1430.22578764084
0.596678428357241,1430.23578764084
0.59462041073667,1430.24578764084
0.590611413266462,1430.25578764084
0.584021262542585,1430.26578764084
0.57464098480542,1430.27578764084
0.562778628871973,1430.28578764084
0.548709290054837,1430.29578764084
0.533160928859688,1430.30578764084
0.516341384256323,1430.31578764084
0.497927614340939,1430.32578764084
0.478591934260618,1430.33578764084
0.458750340324412,1430.34578764084
0.438526546803596,1430.35578764084
0.418180878110832,1430.36578764084
0.397405711212142,1430.37578764084
0.376623259658908,1430.38578764084
0.355566597806831,1430.39578764084
0.33422044436289,1430.40578764084
0.312671941999003,1430.41578764084
0.290372736282837,1430.42578764084
0.267766489294161,1430.43578764084
0.24453239207778,1430.44578764084
0.220932605977508,1430.45578764084
0.197818440797286,1430.46578764084
0.174978465157114,1430.47578764084
0.152055072348807,1430.48578764084
0.129609358001843,1430.49578764084
0.108438087330405,1430.50578764084
0.0889724107199501,1430.51578764084
0.0697360380843704,1430.52578764084
0.0504625906352974,1430.53578764084
0.0308312257726189,1430.54578764084
0.0108989363430621,1430.55578764084
-0.00932000974520644,1430.56578764084
-0.029937663508039,1430.57578764084
-0.0502629297305206,1430.58578764084
-0.0709024550451294,1430.59578764084
-0.0917526574950165,1430.60578764084
-0.112700987783365,1430.61578764084
-0.132985442744499,1430.62578764084
-0.153216944215898,1430.63578764084
-0.1730358226091,1430.64578764084
-0.192246417906656,1430.65578764084
-0.210304302588689,1430.66578764084
-0.227561474746049,1430.67578764084
-0.245395100860604,1430.68578764084
-0.263624616373855,1430.69578764084
-0.28205898133434,1430.70578764084
-0.301230924812487,1430.71578764084
-0.320406200746528,1430.72578764084
-0.339763220652741,1430.73578764084
-0.358506604601036,1430.74578764084
-0.377131453235366,1430.75578764084
-0.395619762923936,1430.76578764084
-0.414108755384212,1430.77578764084
-0.432239037703494,1430.78578764084
-0.450384738167414,1430.79578764084
-0.467205412382119,1430.80578764084
-0.481806181739773,1430.81578764084
-0.488952172239604,1430.82578764084
-0.480010611970068,1430.83578764084
-0.446597619383734,1430.84578764084
-0.384998786227627,1430.85578764084
-0.299626128265671,1430.86578764084
-0.198528200846829,1430.87578764084
-0.0916087865907184,1430.88578764084
0.0137959057774426,1430.89578764084
0.112253947332048,1430.90578764084
0.200926123699841,1430.91578764084
0.278959809217578,1430.92578764084
0.34531504682235,1430.93578764084
0.40025616825476,1430.94578764084
0.444836933016834,1430.95578764084
0.479868078911349,1430.96578764084
0.507299858228118,1430.97578764084
0.529578948229601,1430.98578764084
0.548881624547252,1430.99578764084
0.566978407397994,1431.00578764084
0.584879901309881,1431.01578764084
0.602562268062373,1431.02578764084
0.620630487477235,1431.03578764084
0.639013147474249,1431.04578764084
0.65735383469745,1431.05578764084
0.674481319090512,1431.06578764084
0.689406882472058,1431.07578764084
0.700585472567421,1431.08578764084
0.705866077206256,1431.09578764084
0.703825642803835,1431.10578764084
0.694468876429367,1431.11578764084
0.678240882669184,1431.12578764084
0.657414592317698,1431.13578764084
0.635117720005876,1431.14578764084
0.614347923501403,1431.15578764084
0.596661979760899,1431.16578764084
0.583123526150751,1431.17578764084
0.57337643501919,1431.18578764084
0.567028487441867,1431.19578764084
0.562220537638904,1431.20578764084
0.558707263861959,1431.21578764084
0.555310849770238,1431.22578764084
0.551701117258287,1431.23578764084
0.546360639666373,1431.24578764084
0.53899320462076,1431.25578764084
0.529589093138864,1431.26578764084
0.517186478132943,1431.27578764084
0.502043967875326,1431.28578764084
0.485616101998339,1431.29578764084
0.46823426209628,1431.30578764084
0.450224703438114,1431.31578764084
0.431098864592025,1431.32578764084
0.411710216203256,1431.33578764084
0.39189589919429,1431.34578764084
0.371564644562817,1431.35578764084
0.350737061552377,1431.36578764084
0.328819518465539,1431.37578764084
0.306929969007626,1431.38578764084
0.283769051723448,1431.39578764084
0.260120176830328,1431.40578764084
0.235872181139297,1431.41578764084
0.211059863897881,1431.42578764084
0.185554546313779,1431.43578764084
0.160652963747399,1431.44578764084
0.137232259412419,1431.45578764084
0.115209001300752,1431.46578764084
0.0942635148116735,1431.47578764084
0.0742370754958123,1431.48578764084
0.0537392892028125,1431.49578764084
0.0326238765888741,1431.50578764084
0.0116288271440791,1431.51578764084
-0.00919524012939239,1431.52578764084
-0.0300203751585838,1431.53578764084
-0.0511010347290785,1431.54578764084
-0.0722845449753256,1431.55578764084
-0.0938264671462346,1431.56578764084
-0.115403290436006,1431.57578764084
-0.137818929306565,1431.58578764084
-0.159897283971284,1431.59578764084
-0.181933418383111,1431.60578764084
-0.203409714124044,1431.61578764084
-0.223920111233396,1431.62578764084
-0.244375452990012,1431.63578764084
-0.264825404911281,1431.64578764084
-0.285356638947001,1431.65578764084
-0.305731663313439,1431.66578764084
-0.326294763348533,1431.67578764084
-0.347302902627858,1431.68578764084
-0.368909798939745,1431.69578764084
-0.391033669340102,1431.70578764084
-0.412884887309696,1431.71578764084
-0.434139970300102,1431.72578764084
-0.454919035164688,1431.73578764084
-0.475030734889975,1431.74578764084
-0.494517835924102,1431.75578764084
-0.51406258924585,1431.76578764084
-0.532863448824128,1431.77578764084
-0.550599044021855,1431.78578764084
-0.566468445250834,1431.79578764084
-0.576201365476086,1431.80578764084
-0.5729839828268,1431.81578764084
-0.547932518701899,1431.82578764084
-0.495934488977372,1431.83578764084
-0.417171127608774,1431.84578764084
-0.320365964701585,1431.85578764084
-0.215581349340049,1431.86578764084
-0.112133562969209,1431.87578764084
-0.0166101916329583,1431.88578764084
0.0679873033279112,1431.89578764084
0.140529450402412,1431.90578764084
0.202182517509183,1431.91578764084
0.252946800414257,1431.92578764084
0.293304838460459,1431.93578764084
0.324607965864873,1431.94578764084
0.347986461829381,1431.95578764084
0.364946400952114,1431.96578764084
0.377041358562815,1431.97578764084
0.386174801251291,1431.98578764084
0.394299619503339,1431.99578764084
0.402177016104118,1432.00578764084
0.410274216505348,1432.01578764084
0.418899836221521,1432.02578764084
0.427714795895475,1432.03578764084
0.435363033260466,1432.04578764084
0.440080656183386,1432.05578764084
0.440504753411162,1432.06578764084
0.435015507920115,1432.07578764084
0.423219557872505,1432.08578764084
0.406849291716138,1432.09578764084
0.387964235992173,1432.10578764084
0.369346621170566,1432.11578764084
0.352949768763211,1432.12578764084
0.34027259484643,1432.13578764084
0.332888558609072,1432.14578764084
0.329591920427391,1432.15578764084
0.32981333644005,1432.16578764084
0.33263184781154,1432.17578764084
0.336699834651359,1432.18578764084
0.340019871879947,1432.19578764084
0.341972598788584,1432.20578764084
0.341874873837121,1432.21578764084
0.338689189769336,1432.22578764084
0.33256858182997,1432.23578764084
0.323825113431939,1432.24578764084
0.312951265569907,1432.25578764084
0.300182601532663,1432.26578764084
0.286204728133404,1432.27578764084
0.271422419530421,1432.28578764084
0.256204421081822,1432.29578764084
0.239858433015661,1432.30578764084
0.222420549111218,1432.31578764084
0.203819633467134,1432.32578764084
0.184135315069118,1432.33578764084
0.163630555742629,1432.34578764084
0.142082382361073,1432.35578764084
0.120428308158515,1432.36578764084
0.098496782428176,1432.37578764084
0.0767137242984256,1432.38578764084
0.0561403127911266,1432.39578764084
0.0367405244098159,1432.40578764084
0.0187223097690174,1432.41578764084
0.00120021742074935,1432.42578764084
-0.0163811439155403,1432.43578764084
-0.03461680032045,1432.44578764084
-0.0530622470989483,1432.45578764084
-0.0722077223566306,1432.46578764084
-0.0915036054476383,1432.47578764084
-0.110294098390044,1432.48578764084
-0.129088389650465,1432.49578764084
-0.148195528315975,1432.50578764084
-0.167763201945068,1432.51578764084
-0.187530241700422,1432.52578764084
-0.208201281214532,1432.53578764084
-0.22825624333694,1432.54578764084
-0.247414413246867,1432.55578764084
-0.265044906247297,1432.56578764084
-0.281913527250798,1432.57578764084
-0.298289860632639,1432.58578764084
-0.314469290968019,1432.59578764084
-0.331619147192315,1432.60578764084
-0.34903239751901,1432.61578764084
-0.366535295871259,1432.62578764084
-0.382542947609027,1432.63578764084
-0.393521029900386,1432.64578764084
-0.392411525617242,1432.65578764084
-0.372448995342054,1432.66578764084
-0.328210546426673,1432.67578764084
-0.260040834357661,1432.68578764084
-0.173741752668083,1432.69578764084
-0.0768105933742584,1432.70578764084
0.0218047419170702,1432.71578764084
0.116548432599276,1432.72578764084
0.204126378655017,1432.73578764084
0.281762943844213,1432.74578764084
0.348126668081317,1432.75578764084
0.402653192480128,1432.76578764084
0.445417836463599,1432.77578764084
0.478098718743999,1432.78578764084
0.503002534550356,1432.79578764084
0.52250930477511,1432.80578764084
0.538269382248458,1432.81578764084
0.551823006182348,1432.82578764084
0.56347626668399,1432.83578764084
0.573625237024631,1432.84578764084
0.582604411098756,1432.85578764084
0.591421416101796,1432.86578764084
0.599661934182383,1432.87578764084
0.607243397240357,1432.88578764084
0.612288289779432,1432.89578764084
0.612767953566647,1432.90578764084
0.606342432143843,1432.91578764084
0.592884369195944,1432.92578764084
0.573561695834276,1432.93578764084
0.550484642870731,1432.94578764084
0.527179261169794,1432.95578764084
0.506489227669489,1432.96578764084
0.490789664928985,1432.97578764084
0.480385349763928,1432.98578764084
0.47420238666523,1432.99578764084
0.47150453293637,1433.00578764084
0.472154659357729,1433.01578764084
0.474256485737646,1433.02578764084
0.476794213328958,1433.03578764084
0.477740607670134,1433.04578764084
0.476048166180939,1433.05578764084
0.470774934779183,1433.06578764084
0.461083031049503,1433.07578764084
0.44885125876107,1433.08578764084
0.434101365555436,1433.09578764084
0.41741069917749,1433.10578764084
0.399752587097496,1433.11578764084
0.381402289702757,1433.12578764084
0.362669903439499,1433.13578764084
0.34336626778704,1433.14578764084
0.323223644856396,1433.15578764084
0.302383713538073,1433.16578764084
0.280450256244389,1433.17578764084
0.257745748589945,1433.18578764084
0.235161161093662,1433.19578764084
0.213412960835745,1433.20578764084
0.192366591076563,1433.21578764084
0.171812691226553,1433.22578764084
0.150695972219178,1433.23578764084
0.129408775910097,1433.24578764084
0.108642538348642,1433.25578764084
0.0880461663516766,1433.26578764084
0.0672010482545142,1433.27578764084
0.0469682077346373,1433.28578764084
0.0268237389557163,1433.29578764084
0.00597773613630162,1433.30578764084
-0.0145827181336161,1433.31578764084
-0.0362043326383244,1433.32578764084
-0.0577069748254537,1433.33578764084
-0.0784927924834597,1433.34578764084
-0.0980093612874034,1433.35578764084
-0.116939290215462,1433.36578764084
-0.136314418543232,1433.37578764084
-0.155127752717457,1433.38578764084
-0.174296745698799,1433.39578764084
-0.193886066007931,1433.40578764084
-0.213542952818413,1433.41578764084
-0.232668898847401,1433.42578764084
-0.252190292080796,1433.43578764084
-0.270401133428919,1433.44578764084
-0.287183040634405,1433.45578764084
-0.298557250563425,1433.46578764084
-0.297538288956902,1433.47578764084
-0.276913587927498,1433.48578764084
-0.231863087299513,1433.49578764084
-0.162138568219956,1433.50578764084
-0.0731362889064953,1433.51578764084
0.0268967609574261,1433.52578764084
0.130350902101612,1433.53578764084
0.230778033015862,1433.54578764084
0.324111701944849,1433.55578764084
0.408337012726396,1433.56578764084
0.481286899276492,1433.57578764084
0.543127592762352,1433.58578764084
0.592856276087339,1433.59578764084
0.632966389311345,1433.60578764084
0.66471467553237,1433.61578764084
0.690863734346344,1433.62578764084
0.712563624034803,1433.63578764084
0.731977595215107,1433.64578764084
0.751203714898177,1433.65578764084
0.770179527533258,1433.66578764084
0.789571743578177,1433.67578764084
0.808236314245199,1433.68578764084
0.82592751975224,1433.69578764084
0.841641638918197,1433.70578764084
0.853913973441438,1433.71578764084
0.861291798720816,1433.72578764084
0.861856321074388,1433.73578764084
0.854205584219577,1433.74578764084
0.839068796312548,1433.75578764084
0.818222124586243,1433.76578764084
0.793776093867925,1433.77578764084
0.767878118001533,1433.78578764084
0.744234327378418,1433.79578764084
0.724341699051857,1433.80578764084
0.709985316407053,1433.81578764084
0.701462802536226,1433.82578764084
0.696974753987195,1433.83578764084
0.695728413254537,1433.84578764084
0.69550536418119,1433.85578764084
0.695065226271404,1433.86578764084
0.692880008643644,1433.87578764084
0.688415067523219,1433.88578764084
0.681458792858308,1433.89578764084
0.671283970741505,1433.90578764084
0.658772337385181,1433.91578764084
0.644109955555607,1433.92578764084
0.626831711337831,1433.93578764084
0.60713500242145,1433.94578764084
0.585651096483476,1433.95578764084
0.563056089484859,1433.96578764084
0.540334536253871,1433.97578764084
0.518121198328783,1433.98578764084
0.496682539130684,1433.99578764084
0.475987083813735,1434.00578764084
0.454899097389858,1434.01578764084
0.433284184275126,1434.02578764084
0.41074016456407,1434.03578764084
0.386583479722874,1434.04578764084
0.361638178355739,1434.05578764084
0.336184330262107,1434.06578764084
0.310536113472442,1434.07578764084
0.285160307527182,1434.08578764084
0.260011489131408,1434.09578764084
0.235497531728356,1434.10578764084
0.211902590957911,1434.11578764084
0.18818487821419,1434.12578764084
0.165375465155309,1434.13578764084
0.143442997133753,1434.14578764084
0.122923385356545,1434.15578764084
0.103371413218912,1434.16578764084
0.0837442301502766,1434.17578764084
0.0640609662180663,1434.18578764084
0.043425279318444,1434.19578764084
0.0228206857938699,1434.20578764084
0.000637983231256332,1434.21578764084
-0.0221121355331995,1434.22578764084
-0.0454964248663589,1434.23578764084
-0.0691545954727383,1434.24578764084
-0.0928634756660544,1434.25578764084
-0.116318557934624,1434.26578764084
-0.139042685225873,1434.27578764084
-0.160586286291804,1434.28578764084
-0.180780581107128,1434.29578764084
-0.198848464376243,1434.30578764084
-0.215298025689441,1434.31578764084
-0.230948887395738,1434.32578764084
-0.244622068794815,1434.33578764084
-0.251809905823002,1434.34578764084
-0.246193215468662,1434.35578764084
-0.219782465133186,1434.36578764084
-0.169433451786901,1434.37578764084
-0.0966612303808,1434.38578764084
-0.00807870294644678,1434.39578764084
0.0888549195719574,1434.40578764084
0.1877035686942,1434.41578764084
0.283788307202338,1434.42578764084
0.372409973559278,1434.43578764084
0.451811461236202,1434.44578764084
0.5201313883633,1434.45578764084
0.577343307268679,1434.46578764084
0.623625439350912,1434.47578764084
0.659881869848581,1434.48578764084
0.688925688635563,1434.49578764084
0.712841154425583,1434.50578764084
0.733592219081808,1434.51578764084
0.753625138103608,1434.52578764084
0.77320657064229,1434.53578764084
0.793343962523252,1434.54578764084
0.813453160510872,1434.55578764084
0.832526410441085,1434.56578764084
0.850168097859306,1434.57578764084
0.865069028725277,1434.58578764084
0.876254223351457,1434.59578764084
0.883180987406557,1434.60578764084
0.883808006121583,1434.61578764084
0.877673681098615,1434.62578764084
0.864641811379234,1434.63578764084
0.845492322495439,1434.64578764084
0.822487309694802,1434.65578764084
0.79796880977126,1434.66578764084
0.774584475767373,1434.67578764084
0.75399963532825,1434.68578764084
0.737420022340624,1434.69578764084
0.724619573549438,1434.70578764084
0.715246344647349,1434.71578764084
0.707670564497044,1434.72578764084
0.700753862008558,1434.73578764084
0.693948613272476,1434.74578764084
0.68702857591962,1434.75578764084
0.679741277237857,1434.76578764084
0.67120330908604,1434.77578764084
0.660214052916413,1434.78578764084
0.646660504766489,1434.79578764084
0.631770599238672,1434.80578764084
0.614593512817565,1434.81578764084
0.595591950138125,1434.82578764084
0.575245894111546,1434.83578764084
0.553750424014354,1434.84578764084
0.530929359002778,1434.85578764084
0.50728610070855,1434.86578764084
0.483144924931226,1434.87578764084
0.458705131173618,1434.88578764084
0.43345999384274,1434.89578764084
0.408565446596666,1434.90578764084
0.383490562406891,1434.91578764084
0.358635375555065,1434.92578764084
0.334295592530206,1434.93578764084
0.309718724751131,1434.94578764084
0.28561959100073,1434.95578764084
0.261348185453381,1434.96578764084
0.236949747848919,1434.97578764084
0.211803106969711,1434.98578764084
0.186583238130074,1434.99578764084
0.161503899782165,1435.00578764084
0.13619906370137,1435.01578764084
0.11118701386425,1435.02578764084
0.0861139523763634,1435.03578764084
0.0615782331847869,1435.04578764084
0.0374095037181754,1435.05578764084
0.0133283471144402,1435.06578764084
-0.0106606284504906,1435.07578764084
-0.0335353842532698,1435.08578764084
-0.0545683207435598,1435.09578764084
-0.0742618270407004,1435.10578764084
-0.094135575173003,1435.11578764084
-0.11335205582477,1435.12578764084
-0.133270721772644,1435.13578764084
-0.154507516966551,1435.14578764084
-0.176339385873655,1435.15578764084
-0.19872482054712,1435.16578764084
-0.220513462467428,1435.17578764084
-0.242719435440322,1435.18578764084
-0.264950473812036,1435.19578764084
-0.287210982700076,1435.20578764084
-0.308350339741711,1435.21578764084
-0.328222618246612,1435.22578764084
-0.347097175049473,1435.23578764084
-0.364653323102876,1435.24578764084
-0.380943957771868,1435.25578764084
-0.395967235539796,1435.26578764084
-0.407571999299379,1435.27578764084
-0.410058087314651,1435.28578764084
-0.397129870507332,1435.29578764084
-0.362982101752504,1435.30578764084
-0.307381229028103,1435.31578764084
-0.233454916088119,1435.32578764084
-0.148443674949312,1435.33578764084
-0.0601889895363761,1435.34578764084
0.0258950786415164,1435.35578764084
0.105181304551352,1435.36578764084
0.176420609118355,1435.37578764084
0.238474100125412,1435.38578764084
0.290342372662751,1435.39578764084
0.33263579869818,1435.40578764084
0.365952588533405,1435.41578764084
0.391840285074039,1435.42578764084
0.41181324119759,1435.43578764084
0.428639036690186,1435.44578764084
0.44330462716676,1435.45578764084
0.457244204528624,1435.46578764084
0.471406673190619,1435.47578764084
0.485871512243497,1435.48578764084
0.500335232213453,1435.49578764084
0.514011478721715,1435.50578764084
0.526805180579439,1435.51578764084
0.536684719029209,1435.52578764084
0.542284726557183,1435.53578764084
0.542918708463932,1435.54578764084
0.537827860204681,1435.55578764084
0.52690399931291,1435.56578764084
0.510841693241798,1435.57578764084
0.492213109719322,1435.58578764084
0.472419390058186,1435.59578764084
0.453504300134452,1435.60578764084
0.437757394256359,1435.61578764084
0.42523482715583,1435.62578764084
0.416715979414798,1435.63578764084
0.411076842648839,1435.64578764084
0.407398895635245,1435.65578764084
0.404185554008436,1435.66578764084
0.400590905760181,1435.67578764084
0.395723262604194,1435.68578764084
0.389571835888966,1435.69578764084
0.382577489603162,1435.70578764084
0.374850015529733,1435.71578764084
0.365647606224471,1435.72578764084
0.354812502102682,1435.73578764084
0.341675451116498,1435.74578764084
0.326681566936547,1435.75578764084
0.309997745281373,1435.76578764084
0.291807668904665,1435.77578764084
0.272864759361718,1435.78578764084
0.253660249272399,1435.79578764084
0.233167049413325,1435.80578764084
0.212114629220846,1435.81578764084
0.190344404009816,1435.82578764084
0.168082065511793,1435.83578764084
0.14562042423322,1435.84578764084
0.123333680761898,1435.85578764084
0.10195141125751,1435.86578764084
0.0814229635612181,1435.87578764084
0.0612515048320888,1435.88578764084
0.0409875346243295,1435.89578764084
0.0212610681060311,1435.90578764084
0.00154757751179627,1435.91578764084
-0.0178719581068891,1435.92578764084
-0.0369466032418852,1435.93578764084
-0.0557717770303676,1435.94578764084
-0.0737246672942515,1435.95578764084
-0.0914327800708376,1435.96578764084
-0.108812294227075,1435.97578764084
-0.12640776555252,1435.98578764084
-0.144865883625656,1435.99578764084
-0.163193978693043,1436.00578764084
-0.181749514545494,1436.01578764084
-0.19998692136962,1436.02578764084
-0.217633791683754,1436.03578764084
-0.235035277267742,1436.04578764084
-0.251834121419613,1436.05578764084
-0.269044778341194,1436.06578764084
-0.285951350411729,1436.07578764084
-0.303443242859891,1436.08578764084
-0.320918927954676,1436.09578764084
-0.338751721593884,1436.10578764084
-0.356540118326937,1436.11578764084
-0.374193742554676,1436.12578764084
-0.390276773482552,1436.13578764084
-0.40129726278688,1436.14578764084
-0.401549068194691,1436.15578764084
-0.383558645289275,1436.16578764084
-0.34514625997113,1436.17578764084
-0.288106378021028,1436.18578764084
-0.217739123264615,1436.19578764084
-0.140878658259367,1436.20578764084
-0.0635497644487252,1436.21578764084
0.0105048391013303,1436.22578764084
0.0774717260600346,1436.23578764084
0.135479105537489,1436.24578764084
0.184122705407836,1436.25578764084
0.223161895890807,1436.26578764084
0.252475606587967,1436.27578764084
0.273936997268864,1436.28578764084
0.289432014074587,1436.29578764084
0.301202197652373,1436.30578764084
0.310879686676405,1436.31578764084
0.320457737922023,1436.32578764084
0.329714301755635,1436.33578764084
0.339143917522885,1436.34578764084
0.348098373356392,1436.35578764084
0.356659988874748,1436.36578764084
0.362396608497724,1436.37578764084
0.365075871669475,1436.38578764084
0.362748870728845,1436.39578764084
0.354516635510892,1436.40578764084
0.340796061479067,1436.41578764084
0.323242958385148,1436.42578764084
0.304063552628699,1436.43578764084
0.284945320602622,1436.44578764084
0.268650672976718,1436.45578764084
0.255730412474059,1436.46578764084
0.24694771315054,1436.47578764084
0.241708749992612,1436.48578764084
0.239482781474896,1436.49578764084
0.240153032825597,1436.50578764084
0.241721020152095,1436.51578764084
0.243651942976087,1436.52578764084
0.244642492327947,1436.53578764084
0.243402496442449,1436.54578764084
0.239576701086818,1436.55578764084
0.232870885127042,1436.56578764084
0.22338328663451,1436.57578764084
0.212039680973976,1436.58578764084
0.199114998308659,1436.59578764084
0.183811611187198,1436.60578764084
0.168153906683325,1436.61578764084
0.151266812994619,1436.62578764084
0.133640245234954,1436.63578764084
0.11617830520234,1436.64578764084
0.0992043553160019,1436.65578764084
0.0835813289918184,1436.66578764084
0.067693839644331,1436.67578764084
0.0514365655052945,1436.68578764084
0.0348325417798865,1436.69578764084
0.0174098224361695,1436.70578764084
-0.000598165408568637,1436.71578764084
-0.0191205170722134,1436.72578764084
-0.0378341247409581,1436.73578764084
-0.0564928788151611,1436.74578764084
-0.0751944293031899,1436.75578764084
-0.0934006835731659,1436.76578764084
-0.111716311659863,1436.77578764084
-0.129934937918925,1436.78578764084
-0.147641854277172,1436.79578764084
-0.164383289352398,1436.80578764084
-0.180102342360045,1436.81578764084
-0.195240525114348,1436.82578764084
-0.210819329310976,1436.83578764084
-0.227505443255605,1436.84578764084
-0.244900809524473,1436.85578764084
-0.262137319449376,1436.86578764084
-0.279937303749196,1436.87578764084
-0.297323862963572,1436.88578764084
-0.314073874893452,1436.89578764084
-0.330578553791712,1436.90578764084
-0.346490475355412,1436.91578764084
-0.361678989215892,1436.92578764084
-0.377356992231244,1436.93578764084
-0.393516255597177,1436.94578764084
-0.409036812464056,1436.95578764084
-0.423651942491665,1436.96578764084
-0.435519323522722,1436.97578764084
-0.440474365257493,1436.98578764084
-0.433022566083927,1436.99578764084
-0.407484742708137,1437.00578764084
-0.362105776934895,1437.01578764084
-0.29913324650038,1437.02578764084
-0.223266244524536,1437.03578764084
-0.140310296225554,1437.04578764084
-0.0563949929402759,1437.05578764084
0.0237289763670202,1437.06578764084
0.0968746051635361,1437.07578764084
0.161146927594261,1437.08578764084
0.215343299355152,1437.09578764084
0.260461595331768,1437.10578764084
0.297352832653273,1437.11578764084
0.32811186092451,1437.12578764084
0.353655873464717,1437.13578764084
0.375894681281908,1437.14578764084
0.395668358346394,1437.15578764084
0.413371912513572,1437.16578764084
0.430565130322925,1437.17578764084
0.446121764403436,1437.18578764084
0.461330156508105,1437.19578764084
0.475748556854269,1437.20578764084
0.48886472948635,1437.21578764084
0.49994872982151,1437.22578764084
0.507128015600725,1437.23578764084
0.509887922105077,1437.24578764084
0.506399802816341,1437.25578764084
0.497414598611408,1437.26578764084
0.48348690532189,1437.27578764084
0.466112503245063,1437.28578764084
0.447935363342262,1437.29578764084
0.43051648930077,1437.30578764084
0.415451491455067,1437.31578764084
0.403786117969217,1437.32578764084
0.395824889133503,1437.33578764084
0.390220950564599,1437.34578764084
0.387710097538219,1437.35578764084
0.386074301325463,1437.36578764084
0.384532073198793,1437.37578764084
0.382435721658667,1437.38578764084
0.378443435097664,1437.39578764084
0.372182673022324,1437.40578764084
0.363472305256287,1437.41578764084
0.352952785258143,1437.42578764084
0.340144156292504,1437.43578764084
0.326326071457548,1437.44578764084
0.311772035273178,1437.45578764084
0.296436792987639,1437.46578764084
0.280366561902749,1437.47578764084
0.263117197509774,1437.48578764084
0.245403132409785,1437.49578764084
0.227203640182346,1437.50578764084
0.208576411566192,1437.51578764084
0.189537547141601,1437.52578764084
0.170130088200548,1437.53578764084
0.150462059313746,1437.54578764084
0.129173338924375,1437.55578764084
0.108410091228165,1437.56578764084
0.0875858006540928,1437.57578764084
0.0668573108171465,1437.58578764084
0.0476243187260405,1437.59578764084
0.0296289393042199,1437.60578764084
0.0120065039617741,1437.61578764084
-0.00613926070156212,1437.62578764084
-0.0242321742504226,1437.63578764084
-0.0433232813046711,1437.64578764084
-0.0627057477944185,1437.65578764084
-0.0818626430047301,1437.66578764084
-0.10077929880438,1437.67578764084
-0.119652857843762,1437.68578764084
-0.13869840012748,1437.69578764084
-0.157201423356238,1437.70578764084
-0.175824290451019,1437.71578764084
-0.194065901266308,1437.72578764084
-0.211891405870727,1437.73578764084
-0.229124968103281,1437.74578764084
-0.245845908631342,1437.75578764084
-0.2619801075239,1437.76578764084
-0.278507409932638,1437.77578764084
-0.295456949204085,1437.78578764084
-0.312684029203871,1437.79578764084
-0.33046047515254,1437.80578764084
-0.347722047036337,1437.81578764084
-0.364865865263023,1437.82578764084
-0.381317929940924,1437.83578764084
-0.397949403543616,1437.84578764084
-0.413662498942078,1437.85578764084
-0.428646350254189,1437.86578764084
-0.440578489914843,1437.87578764084
-0.446034775536801,1437.88578764084
-0.439789932610812,1437.89578764084
-0.415299917094606,1437.90578764084
-0.370617630010308,1437.91578764084
-0.308138053789289,1437.92578764084
-0.232175887869469,1437.93578764084
-0.149526050292995,1437.94578764084
-0.0654298382661169,1437.95578764084
0.0154912942947116,1437.96578764084
0.089366616215067,1437.97578764084
0.15444497682854,1437.98578764084
0.210026074282234,1437.99578764084
0.25539665645499,1438.00578764084
0.291994879670324,1438.01578764084
0.321624608411846,1438.02578764084
0.346320613624814,1438.03578764084
0.367386866110034,1438.04578764084
0.386713323657541,1438.05578764084
0.405544307498964,1438.06578764084
0.424994558684367,1438.07578764084
0.445463753558399,1438.08578764084
0.465740931493329,1438.09578764084
0.485965622482745,1438.10578764084
0.504368510834661,1438.11578764084
0.519841322741506,1438.12578764084
0.532226415220073,1438.13578764084
0.539667381950444,1438.14578764084
0.541039541458535,1438.15578764084
0.535924999685761,1438.16578764084
0.524772809657935,1438.17578764084
0.508682735489064,1438.18578764084
0.490638871589247,1438.19578764084
0.472780554138772,1438.20578764084
0.457637462742865,1438.21578764084
0.445884919433161,1438.22578764084
0.438009761895888,1438.23578764084
0.433400669933668,1438.24578764084
0.431354413779806,1438.25578764084
0.430407249266234,1438.26578764084
0.430194623269242,1438.27578764084
0.429513365169774,1438.28578764084
0.427894101150417,1438.29578764084
0.424196438173202,1438.30578764084
0.417980529201584,1438.31578764084
0.409535397424255,1438.32578764084
0.398624082455149,1438.33578764084
0.385372623067791,1438.34578764084
0.370571471168857,1438.35578764084
0.354644664955537,1438.36578764084
0.33770167363584,1438.37578764084
0.320683616149136,1438.38578764084
0.303579032858072,1438.39578764084
0.286052936172185,1438.40578764084
0.268457871822269,1438.41578764084
0.250495111860788,1438.42578764084
0.231768799189177,1438.43578764084
0.212940364864106,1438.44578764084
0.193722551110669,1438.45578764084
0.174525228687927,1438.46578764084
0.154849606486538,1438.47578764084
0.135308778332993,1438.48578764084
0.114594029843691,1438.49578764084
0.093456173741019,1438.50578764084
0.0722011388083175,1438.51578764084
0.0512256267663255,1438.52578764084
0.0308262558974264,1438.53578764084
0.0121984210929683,1438.54578764084
-0.00509223046280972,1438.55578764084
-0.0221697969833516,1438.56578764084
-0.0391923873509842,1438.57578764084
-0.0570679629891048,1438.58578764084
-0.0753386203995896,1438.59578764084
-0.0938580844784984,1438.60578764084
-0.112129604354207,1438.61578764084
-0.130336323310513,1438.62578764084
-0.148107109657745,1438.63578764084
-0.165810115812133,1438.64578764084
-0.184248831715076,1438.65578764084
-0.202633090116506,1438.66578764084
-0.22107776999968,1438.67578764084
-0.239726901345196,1438.68578764084
-0.258392259619872,1438.69578764084
-0.276245481239014,1438.70578764084
-0.293639489594264,1438.71578764084
-0.310169324323934,1438.72578764084
-0.326582986368918,1438.73578764084
-0.343116298307285,1438.74578764084
-0.359622262738032,1438.75578764084
-0.376215369827108,1438.76578764084
-0.392517361109377,1438.77578764084
-0.408695888460231,1438.78578764084
-0.424070424193263,1438.79578764084
-0.435607295980028,1438.80578764084
-0.43931568306568,1438.81578764084
-0.428260965737969,1438.82578764084
-0.397648622499066,1438.83578764084
-0.345673222633469,1438.84578764084
-0.275701691950117,1438.85578764084
-0.193379305366821,1438.86578764084
-0.105453249450081,1438.87578764084
-0.0179335520510531,1438.88578764084
0.0648811542603175,1438.89578764084
0.140073733261344,1438.90578764084
0.206226668541412,1438.91578764084
0.262139948983226,1438.92578764084
0.307701036980243,1438.93578764084
0.344537725109041,1438.94578764084
0.373781343099552,1438.95578764084
0.397363720031316,1438.96578764084
0.417804248547021,1438.97578764084
0.437019938659506,1438.98578764084
0.45571892315162,1438.99578764084
0.475339000317904,1439.00578764084
0.495190724146327,1439.01578764084
0.515300344040761,1439.02578764084
0.534871743257356,1439.03578764084
0.553258925704287,1439.04578764084
0.568929711747131,1439.05578764084
0.580767859917982,1439.06578764084
0.587520549706759,1439.07578764084
0.587802532416157,1439.08578764084
0.581270739232613,1439.09578764084
0.569468737947747,1439.10578764084
0.553042058826703,1439.11578764084
0.534592660758784,1439.12578764084
0.515988732069883,1439.13578764084
0.499306655503299,1439.14578764084
0.486423605966213,1439.15578764084
0.476789040622229,1439.16578764084
0.470873662166799,1439.17578764084
0.467272562716032,1439.18578764084
0.465484670418597,1439.19578764084
0.463866709094361,1439.20578764084
0.462623703253723,1439.21578764084
0.45967734315419,1439.22578764084
0.454812925013983,1439.23578764084
0.448499471464432,1439.24578764084
0.439345727247857,1439.25578764084
0.428402436257419,1439.26578764084
0.415376372006117,1439.27578764084
0.400885351524576,1439.28578764084
0.384670714650013,1439.29578764084
0.367307558596282,1439.30578764084
0.349492393556639,1439.31578764084
0.331483412697272,1439.32578764084
0.312887516752031,1439.33578764084
0.293725829206507,1439.34578764084
0.273943768417085,1439.35578764084
0.253267050761832,1439.36578764084
0.231577980943741,1439.37578764084
0.209156729942623,1439.38578764084
0.186712451659142,1439.39578764084
0.164044733712563,1439.40578764084
0.141642828695211,1439.41578764084
0.120039518629124,1439.42578764084
0.099009025673354,1439.43578764084
0.078532878622,1439.44578764084
0.057934481906753,1439.45578764084
0.0377937292603047,1439.46578764084
0.017679967891401,1439.47578764084
-0.00182746919034025,1439.48578764084
-0.0208305673779515,1439.49578764084
-0.0401274767965129,1439.50578764084
-0.0589037214171574,1439.51578764084
-0.0778747304032296,1439.52578764084
-0.0969635151156062,1439.53578764084
-0.115798977979302,1439.54578764084
-0.134573298240026,1439.55578764084
-0.153268757242484,1439.56578764084
-0.171822050234973,1439.57578764084
-0.190401233506487,1439.58578764084
-0.209484385942004,1439.59578764084
-0.22887464062362,1439.60578764084
-0.248361026231524,1439.61578764084
-0.267422018545637,1439.62578764084
-0.286517985737102,1439.63578764084
-0.305454335230963,1439.64578764084
-0.324269541747058,1439.65578764084
-0.342694792866868,1439.66578764084
-0.361106838240066,1439.67578764084
-0.379922345504213,1439.68578764084
-0.39914185216349,1439.69578764084
-0.417985764575126,1439.70578764084
-0.436227363471072,1439.71578764084
-0.451369168682586,1439.72578764084
-0.458970237276975,1439.73578764084
-0.452502400778101,1439.74578764084
-0.425654735896657,1439.75578764084
-0.376362808388066,1439.76578764084
-0.307820956818714,1439.77578764084
-0.226194185612815,1439.78578764084
-0.139098722733977,1439.79578764084
-0.0534398896748501,1439.80578764084
0.0273548321374754,1439.81578764084
0.09879416759716,1439.82578764084
0.159928294959761,1439.83578764084
0.211074385103115,1439.84578764084
0.252349264444667,1439.85578764084
0.284791855363205,1439.86578764084
0.309940139380065,1439.87578764084
0.329747815343474,1439.88578764084
0.345700691575402,1439.89578764084
0.359064966010792,1439.90578764084
0.371369745568214,1439.91578764084
0.382526991794952,1439.92578764084
0.393372706126209,1439.93578764084
0.403285454763811,1439.94578764084
0.412992834124217,1439.95578764084
0.420921804939932,1439.96578764084
0.426157882054834,1439.97578764084
0.427212511573926,1439.98578764084
0.423333945156046,1439.99578764084
0.414751202526882,1440.00578764084
0.402257475781577,1440.01578764084
0.388167116780231,1440.02578764084
0.374722192906412,1440.03578764084
0.364369970231169,1440.04578764084
0.357821241773551,1440.05578764084
0.355543495920449,1440.06578764084
0.356668483696011,1440.07578764084
0.360141420978341,1440.08578764084
0.364677625855401,1440.09578764084
0.368867132593518,1440.10578764084
0.372007529090342,1440.11578764084
0.372979368694617,1440.12578764084
0.371034507143338,1440.13578764084
0.365698252295934,1440.14578764084
0.357119561209847,1440.15578764084
0.345741381288655,1440.16578764084
0.3317944046403,1440.17578764084
0.31661838805898,1440.18578764084
0.300346697312972,1440.19578764084
0.283685459142945,1440.20578764084
0.267323364269806,1440.21578764084
0.250906108945893,1440.22578764084
0.233965147118983,1440.23578764084
0.21646137512023,1440.24578764084
0.198788944230372,1440.25578764084
0.180630677575396,1440.26578764084
0.162170236294595,1440.27578764084
0.144068706073153,1440.28578764084
0.125504181456856,1440.29578764084
0.107213192533385,1440.30578764084
0.0884362119996429,1440.31578764084
0.0693562948613378,1440.32578764084
0.0497745439050971,1440.33578764084
0.0304498314004094,1440.34578764084
0.0108536805114912,1440.35578764084
-0.00816656696795042,1440.36578764084
-0.027168227971735,1440.37578764084
-0.0465669734453269,1440.38578764084
-0.0659221277396927,1440.39578764084
-0.0850977701612377,1440.40578764084
-0.104375341854804,1440.41578764084
-0.122726786956253,1440.42578764084
-0.141387553308417,1440.43578764084
-0.159903788821763,1440.44578764084
-0.17879034854528,1440.45578764084
-0.197734016128468,1440.46578764084
-0.216462615400619,1440.47578764084
-0.235575497087712,1440.48578764084
-0.253686270240337,1440.49578764084
-0.271259477949003,1440.50578764084
-0.28892598238143,1440.51578764084
-0.306335982513423,1440.52578764084
-0.3234206066221,1440.53578764084
-0.34117991201499,1440.54578764084
-0.358044140514101,1440.55578764084
-0.374073030152702,1440.56578764084
-0.385995547354102,1440.57578764084
-0.388658765415623,1440.58578764084
-0.375698878283349,1440.59578764084
-0.341217567303213,1440.60578764084
-0.284402459608016,1440.61578764084
-0.208382578098606,1440.62578764084
-0.120130621808987,1440.63578764084
-0.0253295189366974,1440.64578764084
0.0693011851072382,1440.65578764084
0.158891979088149,1440.66578764084
0.241197151510562,1440.67578764084
0.313564848708354,1440.68578764084
0.375138215975518,1440.69578764084
0.425539892161428,1440.70578764084
0.465712678937866,1440.71578764084
0.497681717945522,1440.72578764084
0.523906673788423,1440.73578764084
0.5464340613975,1440.74578764084
0.566889648616329,1440.75578764084
0.586452790820636,1440.76578764084
0.606548207051189,1440.77578764084
0.626932973526559,1440.78578764084
0.646907802434882,1440.79578764084
0.667256495178684,1440.80578764084
0.686075677790805,1440.81578764084
0.703047737107335,1440.82578764084
0.716314092786048,1440.83578764084
0.723475696536409,1440.84578764084
0.723215189172883,1440.85578764084
0.715613972788988,1440.86578764084
0.701078281815639,1440.87578764084
0.681564162270652,1440.88578764084
0.65997487564418,1440.89578764084
0.639812613180425,1440.90578764084
0.622758252956242,1440.91578764084
0.610335264589188,1440.92578764084
0.602771955993453,1440.93578764084
0.59847439480991,1440.94578764084
0.597131853831597,1440.95578764084
0.597195800088523,1440.96578764084
0.59710518358015,1440.97578764084
0.596501310354433,1440.98578764084
0.593845456949759,1440.99578764084
0.588283945881166,1441.00578764084
0.580267097685314,1441.01578764084
0.568918837679544,1441.02578764084
0.555676315992243,1441.03578764084
0.540747850980428,1441.04578764084
0.524762048742221,1441.05578764084
0.50775191960214,1441.06578764084
0.489382582448668,1441.07578764084
0.470868780075225,1441.08578764084
0.451124251096787,1441.09578764084
0.43127298637559,1441.10578764084
0.411358799896351,1441.11578764084
0.390433459724138,1441.12578764084
0.368289654340122,1441.13578764084
0.345011977199768,1441.14578764084
0.32024003994514,1441.15578764084
0.295206615718338,1441.16578764084
0.270380569633996,1441.17578764084
0.246236529207545,1441.18578764084
0.223328345897062,1441.19578764084
0.20152296106217,1441.20578764084
0.180885455062683,1441.21578764084
0.160807396958139,1441.22578764084
0.140845208292772,1441.23578764084
0.120881761369766,1441.24578764084
0.100703690379359,1441.25578764084
0.080904057406213,1441.26578764084
0.0609787228948412,1441.27578764084
0.0405670133809825,1441.28578764084
0.0199685934698609,1441.29578764084
-0.00040978278495019,1441.30578764084
-0.0209882992665951,1441.31578764084
-0.0413890389817611,1441.32578764084
-0.0613876480522865,1441.33578764084
-0.081072713676127,1441.34578764084
-0.100875562653394,1441.35578764084
-0.120053242467084,1441.36578764084
-0.138749861972681,1441.37578764084
-0.157882712226176,1441.38578764084
-0.176824710537355,1441.39578764084
-0.195399633545632,1441.40578764084
-0.214140648875008,1441.41578764084
-0.232027820415004,1441.42578764084
-0.248649958642894,1441.43578764084
-0.260453869078737,1441.44578764084
-0.261042776622711,1441.45578764084
-0.243418803136445,1441.46578764084
-0.202957004995932,1441.47578764084
-0.140344240579608,1441.48578764084
-0.0599323655438743,1441.49578764084
0.0320475281643676,1441.50578764084
0.128504564549782,1441.51578764084
0.224105791280177,1441.52578764084
0.31472511122248,1441.53578764084
0.396586589440676,1441.54578764084
0.466834901405133,1441.55578764084
0.524832650996017,1441.56578764084
0.570347154065987,1441.57578764084
0.604867692985982,1441.58578764084
0.630935546407232,1441.59578764084
0.650603656956596,1441.60578764084
0.6664401942657,1441.61578764084
0.681037456481299,1441.62578764084
0.694935088256085,1441.63578764084
0.708851059338284,1441.64578764084
0.723596560634637,1441.65578764084
0.73792858854716,1441.66578764084
0.750812394879002,1441.67578764084
0.761446603262345,1441.68578764084
0.767413927654493,1441.69578764084
0.767499877199614,1441.70578764084
0.759927781064487,1441.71578764084
0.744940748761716,1441.72578764084
0.723412708339616,1441.73578764084
0.698561940222621,1441.74578764084
0.673079073551874,1441.75578764084
0.649662347726976,1441.76578764084
0.630272785365655,1441.77578764084
0.616171895843151,1441.78578764084
0.607161442008384,1441.79578764084
0.602288685201272,1441.80578764084
0.600986770734288,1441.81578764084
0.601570821449113,1441.82578764084
0.601909492718783,1441.83578764084
0.60134407131173,1441.84578764084
0.598400563966106,1441.85578764084
0.592774233880008,1441.86578764084
0.583503190303142,1441.87578764084
0.571057957900577,1441.88578764084
0.556333958454366,1441.89578764084
0.539132582530445,1441.90578764084
0.520577476494165,1441.91578764084
0.500507624068097,1441.92578764084
0.480047260849553,1441.93578764084
0.458701524833471,1441.94578764084
0.436800403227185,1441.95578764084
0.414677993983473,1441.96578764084
0.392241161168623,1441.97578764084
0.369263136388432,1441.98578764084
0.345760215340832,1441.99578764084
0.321927387342214,1442.00578764084
0.297665673989655,1442.01578764084
0.273519893541854,1442.02578764084
0.248362684892807,1442.03578764084
0.223010133111016,1442.04578764084
0.197644416325747,1442.05578764084
0.172014751609538,1442.06578764084
0.147088472210185,1442.07578764084
0.122638794271077,1442.08578764084
0.0991968619422216,1442.09578764084
0.0767116087902978,1442.10578764084
0.0549662151323593,1442.11578764084
0.0347945738827677,1442.12578764084
0.0151901638188043,1442.13578764084
-0.00379019560405849,1442.14578764084
-0.0230943558483009,1442.15578764084
-0.0436414440042615,1442.16578764084
-0.0644614311861176,1442.17578764084
-0.0859194029709998,1442.18578764084
-0.107724044916941,1442.19578764084
-0.129227469204569,1442.20578764084
-0.150699228785498,1442.21578764084
-0.172313994236299,1442.22578764084
-0.193382024645182,1442.23578764084
-0.213821792933133,1442.24578764084
-0.234377563975437,1442.25578764084
-0.254903970195591,1442.26578764084
-0.274488160051582,1442.27578764084
-0.293809791360462,1442.28578764084
-0.312112139635683,1442.29578764084
-0.328962646475976,1442.30578764084
-0.34159526270294,1442.31578764084
-0.342981151295365,1442.32578764084
-0.326617651284585,1442.33578764084
-0.286226760535155,1442.34578764084
-0.222120899119968,1442.35578764084
-0.138724515856885,1442.36578764084
-0.0427308390163788,1442.37578764084
0.0591331005219142,1442.38578764084
0.160857734496449,1442.39578764084
0.258156434822733,1442.40578764084
0.347486496743354,1442.41578764084
0.425956747926802,1442.42578764084
0.491575392966758,1442.43578764084
0.543984932129872,1442.44578764084
0.5839771795263,1442.45578764084
0.613624367994546,1442.46578764084
0.635841594456227,1442.47578764084
0.652879045567067,1442.48578764084
0.667322108276392,1442.49578764084
0.681158869788676,1442.50578764084
0.695233009755608,1442.51578764084
0.710034334861105,1442.52578764084
0.725149163732753,1442.53578764084
0.740125172031529,1442.54578764084
0.753812551457174,1442.55578764084
0.764975823995948,1442.56578764084
0.771972869321069,1442.57578764084
0.772080088478334,1442.58578764084
0.763992780018856,1442.59578764084
0.748107337573688,1442.60578764084
0.725637131487659,1442.61578764084
0.699422040302143,1442.62578764084
0.672564865340622,1442.63578764084
0.649034094249098,1442.64578764084
0.630273886418113,1442.65578764084
0.6165860168398,1442.66578764084
0.608300678059552,1442.67578764084
0.603857736850353,1442.68578764084
0.601788811970488,1442.69578764084
0.601189005062268,1442.70578764084
0.600313299127807,1442.71578764084
0.598007798402552,1442.72578764084
0.593899229010334,1442.73578764084
0.58696458186562,1442.74578764084
0.577173020137468,1442.75578764084
0.563976729836355,1442.76578764084
0.547573225501887,1442.77578764084
0.528446456270969,1442.78578764084
0.507476844509545,1442.79578764084
0.485352610168916,1442.80578764084
0.462891428309889,1442.81578764084
0.440046110444687,1442.82578764084
0.417070342604238,1442.83578764084
0.393107715550619,1442.84578764084
0.368445572595619,1442.85578764084
0.34272778273675,1442.86578764084
0.316147209678327,1442.87578764084
0.288952989678689,1442.88578764084
0.261619521999698,1442.89578764084
0.234551891019982,1442.90578764084
0.207550238790473,1442.91578764084
0.181288017599068,1442.92578764084
0.155273593561502,1442.93578764084
0.130151878296413,1442.94578764084
0.10595826342679,1442.95578764084
0.082616072728929,1442.96578764084
0.0604572355918692,1442.97578764084
0.0384420333574003,1442.98578764084
0.0164961349095462,1442.99578764084
-0.00566459398169881,1443.00578764084
-0.0280002050149743,1443.01578764084
-0.0508203710185569,1443.02578764084
-0.0736972878380978,1443.03578764084
-0.0962415563237052,1443.04578764084
-0.118577115442685,1443.05578764084
-0.140410810496538,1443.06578764084
-0.161656428045802,1443.07578764084
-0.182550257022772,1443.08578764084
-0.203168930462915,1443.09578764084
-0.223873854367151,1443.10578764084
-0.24516373112778,1443.11578764084
-0.266683622612546,1443.12578764084
-0.288444093786247,1443.13578764084
-0.310113475813664,1443.14578764084
-0.331694265805102,1443.15578764084
-0.352188567614035,1443.16578764084
-0.369950424168325,1443.17578764084
-0.379971647476619,1443.18578764084
-0.375243847404985,1443.19578764084
-0.348699045514231,1443.20578764084
-0.297076502702495,1443.21578764084
-0.222568902849657,1443.22578764084
-0.132624938782405,1443.23578764084
-0.034320566568073,1443.24578764084
0.0657971705827625,1443.25578764084
0.161867493541113,1443.26578764084
0.251030417233742,1443.27578764084
0.329228791197558,1443.28578764084
0.395261295152609,1443.29578764084
0.448269735145967,1443.30578764084
0.488852476120242,1443.31578764084
0.518054897704664,1443.32578764084
0.538716974458048,1443.33578764084
0.553981239351519,1443.34578764084
0.566151469466761,1443.35578764084
0.57727917802181,1443.36578764084
0.588857574100756,1443.37578764084
0.600918359146701,1443.38578764084
0.613107407454835,1443.39578764084
0.625311182152286,1443.40578764084
0.635676483248924,1443.41578764084
0.643019071201505,1443.42578764084
0.645025472846772,1443.43578764084
0.640085312622698,1443.44578764084
0.626976797775589,1443.45578764084
0.606539052659793,1443.46578764084
0.581953048859722,1443.47578764084
0.556324944652579,1443.48578764084
0.532137547645178,1443.49578764084
0.512882913955698,1443.50578764084
0.499385384104853,1443.51578764084
0.49139799489937,1443.52578764084
0.488456600460353,1443.53578764084
0.489126525701318,1443.54578764084
0.492319270065697,1443.55578764084
0.496560445644558,1443.56578764084
0.500130577355984,1443.57578764084
0.501000421310827,1443.58578764084
0.498520680240136,1443.59578764084
0.491992654086639,1443.60578764084
0.481531606513622,1443.61578764084
0.467363884859842,1443.62578764084
0.450117771210164,1443.63578764084
0.430902239315441,1443.64578764084
0.410578479696081,1443.65578764084
0.38946817388158,1443.66578764084
0.367650676024464,1443.67578764084
0.345426121367222,1443.68578764084
0.323447292623713,1443.69578764084
0.301217652769838,1443.70578764084
0.278018751878767,1443.71578764084
0.254165765388005,1443.72578764084
0.229339192085444,1443.73578764084
0.203669030413133,1443.74578764084
0.177805043347479,1443.75578764084
0.151992180097588,1443.76578764084
0.126733968678986,1443.77578764084
0.102010738681609,1443.78578764084
0.0786155476721542,1443.79578764084
0.0558617958021543,1443.80578764084
0.0337549542560224,1443.81578764084
0.0125484952429214,1443.82578764084
-0.00855346005926596,1443.83578764084
-0.0294340913201703,1443.84578764084
-0.0505269685046404,1443.85578764084
-0.0716636314531145,1443.86578764084
-0.0929848608661214,1443.87578764084
-0.114645707290214,1443.88578764084
-0.136380757118517,1443.89578764084
-0.158083684144085,1443.90578764084
-0.179225677376384,1443.91578764084
-0.20077231956761,1443.92578764084
-0.221594961652482,1443.93578764084
-0.241943504657481,1443.94578764084
-0.261265555808518,1443.95578764084
-0.280627274311108,1443.96578764084
-0.300030052547587,1443.97578764084
-0.319308352735369,1443.98578764084
-0.338725892184472,1443.99578764084
-0.356394858207511,1444.00578764084
-0.367901174215926,1444.01578764084
-0.366187733067574,1444.02578764084
-0.343813849518388,1444.03578764084
-0.297075843868317,1444.04578764084
-0.225488503502786,1444.05578764084
-0.135003525405837,1444.06578764084
-0.0316575047904599,1444.07578764084
0.0769527679913869,1444.08578764084
0.185043417880603,1444.09578764084
0.287541639280503,1444.10578764084
0.380015432939751,1444.11578764084
0.459437358250485,1444.12578764084
0.524411123014862,1444.13578764084
0.574392068532541,1444.14578764084
0.612134740966939,1444.15578764084
0.639966253312384,1444.16578764084
0.6618327491872,1444.17578764084
0.681084318578274,1444.18578764084
0.699057430792271,1444.19578764084
0.717423254587562,1444.20578764084
0.736000513450639,1444.21578764084
0.754826725207631,1444.22578764084
0.772933156398548,1444.23578764084
0.788955609199791,1444.24578764084
0.801970532631342,1444.25578764084
0.810457414090302,1444.26578764084
0.811721635155761,1444.27578764084
0.804378576898644,1444.28578764084
0.787637051239831,1444.29578764084
0.763601509920626,1444.30578764084
0.734562773712818,1444.31578764084
0.704352306927902,1444.32578764084
0.676901550339961,1444.33578764084
0.653062555906042,1444.34578764084
0.634989675202238,1444.35578764084
0.622391265008452,1444.36578764084
0.61487536163494,1444.37578764084
0.611686036936655,1444.38578764084
0.610717568707197,1444.39578764084
0.611245763340036,1444.40578764084
0.611901328793101,1444.41578764084
0.611466600767888,1444.42578764084
0.609204066717813,1444.43578764084
0.60469457150078,1444.44578764084
0.597120683121025,1444.45578764084
0.586654401073735,1444.46578764084
0.57369062188084,1444.47578764084
0.558680937520466,1444.48578764084
0.541723336654827,1444.49578764084
0.523431843499499,1444.50578764084
0.504141095924724,1444.51578764084
0.483436781725314,1444.52578764084
0.462198836871682,1444.53578764084
0.439976693366076,1444.54578764084
0.417015482242308,1444.55578764084
0.392595232729807,1444.56578764084
0.366340406123076,1444.57578764084
0.338616824749602,1444.58578764084
0.310209859230663,1444.59578764084
0.281563256557603,1444.60578764084
0.252741813489509,1444.61578764084
0.224497140136318,1444.62578764084
0.1974409003654,1444.63578764084
0.172565637501306,1444.64578764084
0.149476030778307,1444.65578764084
0.127961525900109,1444.66578764084
0.107798381264386,1444.67578764084
0.0885915015115104,1444.68578764084
0.0699278075698163,1444.69578764084
0.0508197598551403,1444.70578764084
0.0316987924818949,1444.71578764084
0.0113324153025287,1444.72578764084
-0.00986860211479872,1444.73578764084
-0.0321867485325692,1444.74578764084
-0.0558161244107898,1444.75578764084
-0.0804680787111271,1444.76578764084
-0.106238989681238,1444.77578764084
-0.131525191669139,1444.78578764084
-0.156603976807061,1444.79578764084
-0.180845852721596,1444.80578764084
-0.204776033689134,1444.81578764084
-0.228384139630228,1444.82578764084
-0.251422426881664,1444.83578764084
-0.27272224147894,1444.84578764084
-0.289388425470453,1444.85578764084
-0.295505159661729,1444.86578764084
-0.282569761704793,1444.87578764084
-0.245992822064596,1444.88578764084
-0.184279300050211,1444.89578764084
-0.101374094922718,1444.90578764084
-0.00310273581394655,1444.91578764084
0.102738185254504,1444.92578764084
0.209818516496514,1444.93578764084
0.313177164576157,1444.94578764084
0.407481011027638,1444.95578764084
0.489527137122316,1444.96578764084
0.556581810547037,1444.97578764084
0.608679232643623,1444.98578764084
0.646960467784004,1444.99578764084
0.674073576308199,1445.00578764084
0.693691630932972,1445.01578764084
0.708861790362051,1445.02578764084
0.722396273930651,1445.03578764084
0.736711639466124,1445.04578764084
0.752274820992391,1445.05578764084
0.770199693828868,1445.06578764084
0.788291595260437,1445.07578764084
0.805964906906604,1445.08578764084
0.822746205031966,1445.09578764084
0.836579048058803,1445.10578764084
0.845863530997307,1445.11578764084
0.847934401282403,1445.12578764084
0.842042194947559,1445.13578764084
0.827932331169988,1445.14578764084
0.80623745659768,1445.15578764084
0.780119549558377,1445.16578764084
0.751517842136383,1445.17578764084
0.724148107256488,1445.18578764084
0.699457331324966,1445.19578764084
0.678570448393534,1445.20578764084
0.661947201555644,1445.21578764084
0.649422295911197,1445.22578764084
0.640218838034544,1445.23578764084
0.632576431425012,1445.24578764084
0.626470061902076,1445.25578764084
0.6206099000155,1445.26578764084
0.614547944796297,1445.27578764084
0.606396633343444,1445.28578764084
0.595292585165182,1445.29578764084
0.580972298518061,1445.30578764084
0.56300004694067,1445.31578764084
0.542184164027467,1445.32578764084
0.51808386272057,1445.33578764084
0.492834630692184,1445.34578764084
0.466468847995938,1445.35578764084
0.439829595533132,1445.36578764084
0.412879976846816,1445.37578764084
0.385345256426266,1445.38578764084
0.357667535756526,1445.39578764084
0.329685149693477,1445.40578764084
0.3020888620163,1445.41578764084
0.274166440833937,1445.42578764084
0.246659413893984,1445.43578764084
0.219569489351741,1445.44578764084
0.192256040900764,1445.45578764084
0.164836314767883,1445.46578764084
0.137647563232973,1445.47578764084
0.110769240100561,1445.48578764084
0.0838950418979516,1445.49578764084
0.0582331813470535,1445.50578764084
0.0331500169374011,1445.51578764084
0.00864722696555681,1445.52578764084
-0.0152941145830518,1445.53578764084
-0.0396812012812875,1445.54578764084
-0.0636960811124114,1445.55578764084
-0.0876390796334509,1445.56578764084
-0.111454396409779,1445.57578764084
-0.135339060368175,1445.58578764084
-0.159239540469299,1445.59578764084
-0.182939615004168,1445.60578764084
-0.205574711627578,1445.61578764084
-0.227413265176015,1445.62578764084
-0.24829085581006,1445.63578764084
-0.269222806567287,1445.64578764084
-0.28926565263082,1445.65578764084
-0.309337239097325,1445.66578764084
-0.329373806266333,1445.67578764084
-0.349343752496323,1445.68578764084
-0.368658603133367,1445.69578764084
-0.383132446839082,1445.70578764084
-0.388401214878938,1445.71578764084
-0.376898774040718,1445.72578764084
-0.342760130358146,1445.73578764084
-0.284970402359307,1445.74578764084
-0.206658911192621,1445.75578764084
-0.114710931344832,1445.76578764084
-0.01470343425123,1445.77578764084
0.0856744890472045,1445.78578764084
0.18191087531914,1445.79578764084
0.268681335936473,1445.80578764084
0.342942385792093,1445.81578764084
0.403056832277185,1445.82578764084
0.449411521192071,1445.83578764084
0.483953071757064,1445.84578764084
0.509046470139893,1445.85578764084
0.528378584798916,1445.86578764084
0.545183058963031,1445.87578764084
0.561220073520036,1445.88578764084
0.578483321339819,1445.89578764084
0.597146898375803,1445.90578764084
0.616710005978025,1445.91578764084
0.63556793752671,1445.92578764084
0.652325128788065,1445.93578764084
0.666544302415855,1445.94578764084
0.676803498239347,1445.95578764084
0.681477840808832,1445.96578764084
0.679285891250645,1445.97578764084
0.668985954127568,1445.98578764084
0.65125256569121,1445.99578764084
0.627223526607843,1446.00578764084
0.599875907060801,1446.01578764084
0.571725000996905,1446.02578764084
0.545893592401694,1446.03578764084
0.523726773483802,1446.04578764084
0.506165593514345,1446.05578764084
0.493169771723345,1446.06578764084
0.483135153862826,1446.07578764084
0.475645990118271,1446.08578764084
0.468678864100589,1446.09578764084
0.461850641433959,1446.10578764084
0.453905741842586,1446.11578764084
0.4437157787555,1446.12578764084
0.431984776349002,1446.13578764084
0.417227923410314,1446.14578764084
0.400314042152241,1446.15578764084
0.380463276450955,1446.16578764084
0.357554426332584,1446.17578764084
0.332598804759855,1446.18578764084
0.306904162225768,1446.19578764084
0.281763716480294,1446.20578764084
0.257632491825096,1446.21578764084
0.234239901787525,1446.22578764084
0.211300736229404,1446.23578764084
0.188284274158628,1446.24578764084
0.164147722905546,1446.25578764084
0.139226330620133,1446.26578764084
0.113502720225402,1446.27578764084
0.087040932795506,1446.28578764084
0.0599252736615914,1446.29578764084
0.0318495941366095,1446.30578764084
0.00331529519965717,1446.31578764084
-0.0260957012718552,1446.32578764084
-0.0562479343121909,1446.33578764084
-0.0854260139565542,1446.34578764084
-0.113269525718451,1446.35578764084
-0.139196527085941,1446.36578764084
-0.1627966732165,1446.37578764084
-0.185275683091629,1446.38578764084
-0.207624253771742,1446.39578764084
-0.230257013214896,1446.40578764084
-0.253660237876005,1446.41578764084
-0.277198397352297,1446.42578764084
-0.301063724310442,1446.43578764084
-0.325132533698458,1446.44578764084
-0.34967544936115,1446.45578764084
-0.37456699043205,1446.46578764084
-0.399476556123961,1446.47578764084
-0.424234651745465,1446.48578764084
-0.448617481734191,1446.49578764084
-0.472642128378169,1446.50578764084
-0.495504200419275,1446.51578764084
-0.517953238623063,1446.52578764084
-0.539217439063492,1446.53578764084
-0.559928943089071,1446.54578764084
-0.57954891209996,1446.55578764084
-0.598616255634612,1446.56578764084
-0.617651276136778,1446.57578764084
-0.636379767821416,1446.58578764084
-0.653259420195873,1446.59578764084
-0.664443317265802,1446.60578764084
-0.664457448268278,1446.61578764084
-0.647200019303882,1446.62578764084
-0.610274912737945,1446.63578764084
-0.554713129765471,1446.64578764084
-0.486089316244459,1446.65578764084
-0.411096252152621,1446.66578764084
-0.335099471260041,1446.67578764084
-0.262967751708474,1446.68578764084
-0.198045844235464,1446.69578764084
-0.142972265677052,1446.70578764084
-0.0984459115761964,1446.71578764084
-0.0634949090142851,1446.72578764084
-0.0368677510135233,1446.73578764084
-0.0166193024450057,1446.74578764084
-0.00155832378019404,1446.75578764084
0.0107617944380618,1446.76578764084
0.0220660551774991,1446.77578764084
0.0322785304467721,1446.78578764084
0.042547845642015,1446.79578764084
0.0528701994009763,1446.80578764084
0.0626293844876884,1446.81578764084
0.0722479487144554,1446.82578764084
0.0816378544443875,1446.83578764084
0.0900272472382468,1446.84578764084
0.0957858355664435,1446.85578764084
0.0969786993816873,1446.86578764084
0.091824655035712,1446.87578764084
0.07992144437978,1446.88578764084
0.0623161376721371,1446.89578764084
0.0409190784994163,1446.90578764084
0.0184434302773658,1446.91578764084
-0.00204174047545311,1446.92578764084
-0.0194990686196288,1446.93578764084
-0.0332234074567121,1446.94578764084
-0.0432754509372279,1446.95578764084
-0.0505162559268175,1446.96578764084
-0.0554191401125998,1446.97578764084
-0.0592174885153082,1446.98578764084
-0.0631397456190699,1446.99578764084
-0.0672202291624055,1447.00578764084
-0.0731779519501902,1447.01578764084
-0.0811180069880718,1447.02578764084
-0.0915941909830271,1447.03578764084
-0.104024742364552,1447.04578764084
-0.117863504671873,1447.05578764084
-0.133220231593242,1447.06578764084
-0.1496423688544,1447.07578764084
-0.167294676633375,1447.08578764084
-0.185810232832305,1447.09578764084
-0.205280031390795,1447.10578764084
-0.224852769505552,1447.11578764084
-0.245417130000445,1447.12578764084
-0.265999396270907,1447.13578764084
-0.286242846634554,1447.14578764084
-0.306639855123816,1447.15578764084
-0.326463884384384,1447.16578764084
-0.347056979105305,1447.17578764084
-0.367572660732577,1447.18578764084
-0.38842748272353,1447.19578764084
-0.409119370332422,1447.20578764084
-0.42995859440988,1447.21578764084
-0.45056100629988,1447.22578764084
-0.470316116310796,1447.23578764084
-0.490745481870198,1447.24578764084
-0.510878484083653,1447.25578764084
-0.530558818056609,1447.26578764084
-0.550807546846222,1447.27578764084
-0.570414869469507,1447.28578764084
-0.590001591269809,1447.29578764084
-0.60869475157922,1447.30578764084
-0.626845793954892,1447.31578764084
-0.644074142825055,1447.32578764084
-0.660762596037881,1447.33578764084
-0.677481736203688,1447.34578764084
-0.694144525515376,1447.35578764084
-0.710791644784677,1447.36578764084
-0.727551695701062,1447.37578764084
-0.744499044316169,1447.38578764084
-0.762456755643237,1447.39578764084
-0.780173896598304,1447.40578764084
-0.798430499318003,1447.41578764084
-0.817014541562824,1447.42578764084
-0.835885537785134,1447.43578764084
-0.854073631501611,1447.44578764084
-0.868642340857818,1447.45578764084
-0.874505682574836,1447.46578764084
-0.86771839214273,1447.47578764084
-0.84453311724886,1447.48578764084
-0.80618576607711,1447.49578764084
-0.757034340727281,1447.50578764084
-0.70157001603212,1447.51578764084
-0.646462391765869,1447.52578764084
-0.595467389038001,1447.53578764084
-0.551753777346438,1447.54578764084
-0.517023548114155,1447.55578764084
-0.49120303541,1447.56578764084
-0.47405927966166,1447.57578764084
-0.463455511655298,1447.58578764084
-0.457720935464121,1447.59578764084
-0.454655528894031,1447.60578764084
-0.452075639694076,1447.61578764084
-0.449276563075585,1447.62578764084
-0.445353296473306,1447.63578764084
-0.440322649368726,1447.64578764084
-0.434660710108068,1447.65578764084
-0.428597293244799,1447.66578764084
-0.423744628954755,1447.67578764084
-0.420878691476713,1447.68578764084
-0.420692074073462,1447.69578764084
-0.42464332661526,1447.70578764084
-0.433443504366823,1447.71578764084
-0.446209367217371,1447.72578764084
-0.461839843012605,1447.73578764084
-0.478934081185102,1447.74578764084
-0.4939204656476,1447.75578764084
-0.506126289629895,1447.76578764084
-0.51458489272643,1447.77578764084
-0.518622468619278,1447.78578764084
-0.519081908743781,1447.79578764084
-0.517100710353719,1447.80578764084
-0.514809690405835,1447.81578764084
-0.512948526940569,1447.82578764084
-0.512570301136189,1447.83578764084
-0.514538942197587,1447.84578764084
-0.519144646610897,1447.85578764084
-0.526193207597715,1447.86578764084
-0.535510198205415,1447.87578764084
-0.547401055993952,1447.88578764084
-0.56167967941187,1447.89578764084
-0.576972221308592,1447.90578764084
-0.592191987721284,1447.91578764084
-0.606815768550401,1447.92578764084
-0.619433900209317,1447.93578764084
-0.62983504797014,1447.94578764084
-0.6391909197594,1447.95578764084
-0.649260109773845,1447.96578764084
-0.660254458227604,1447.97578764084
-0.672090606006315,1447.98578764084
-0.684808509930342,1447.99578764084
-0.698514019679212,1448.00578764084
-0.711908903941591,1448.01578764084
-0.725227319245586,1448.02578764084
-0.739133609432117,1448.03578764084
-0.753394694516518,1448.04578764084
-0.767541189728165,1448.05578764084
-0.781576389567727,1448.06578764084
-0.795130834396101,1448.07578764084
-0.807825164205146,1448.08578764084
-0.819745084242862,1448.09578764084
-0.831381627175782,1448.10578764084
-0.842619304574788,1448.11578764084
-0.854490536567547,1448.12578764084
-0.867320849319056,1448.13578764084
-0.880033540673185,1448.14578764084
-0.892803678138087,1448.15578764084
-0.905852187867271,1448.16578764084
-0.919050368445973,1448.17578764084
-0.931895284335353,1448.18578764084
-0.944332714971787,1448.19578764084
-0.956352128707531,1448.20578764084
-0.968931806956664,1448.21578764084
-0.981735126996687,1448.22578764084
-0.995473585074917,1448.23578764084
-1.00814951410355,1448.24578764084
-1.0194448635806,1448.25578764084
-1.0272238481148,1448.26578764084
-1.02872118012485,1448.27578764084
-1.01968611881389,1448.28578764084
-0.997268575745017,1448.29578764084
-0.961250770038521,1448.30578764084
-0.914284678264085,1448.31578764084
-0.862034765367912,1448.32578764084
-0.808978049569917,1448.33578764084
-0.760651856366516,1448.34578764084
-0.718644603895942,1448.35578764084
-0.684329311670442,1448.36578764084
-0.659278122901876,1448.37578764084
-0.641679853360319,1448.38578764084
-0.628558538914408,1448.39578764084
-0.618118087628032,1448.40578764084
-0.608729166112517,1448.41578764084
-0.599575710488133,1448.42578764084
-0.590618716237697,1448.43578764084
-0.581828256042168,1448.44578764084
-0.572153649282044,1448.45578764084
-0.562559303780129,1448.46578764084
-0.5522239590811,1448.47578764084
-0.541754758509284,1448.48578764084
-0.531253973377361,1448.49578764084
-0.521507887930518,1448.50578764084
-0.513556588036974,1448.51578764084
-0.508413062142158,1448.52578764084
-0.508320770126827,1448.53578764084
-0.512798543777481,1448.54578764084
-0.520670627879704,1448.55578764084
-0.530894210760522,1448.56578764084
-0.540888263767441,1448.57578764084
-0.549374408098818,1448.58578764084
-0.555721092524205,1448.59578764084
-0.55945501497085,1448.60578764084
-0.560729723195673,1448.61578764084
-0.560114251521744,1448.62578764084
-0.558427663295793,1448.63578764084
-0.556267458082765,1448.64578764084
-0.555101233564712,1448.65578764084
-0.555167739107466,1448.66578764084
-0.556960934513818,1448.67578764084
-0.561157442159974,1448.68578764084
-0.567434531096409,1448.69578764084
-0.575633108885615,1448.70578764084
-0.585010523432605,1448.71578764084
-0.594928515633263,1448.72578764084
-0.604969275953958,1448.73578764084
-0.614308545636071,1448.74578764084
-0.62249727458904,1448.75578764084
-0.629899219528147,1448.76578764084
-0.637690572042286,1448.77578764084
-0.646298015234522,1448.78578764084
-0.656032200124802,1448.79578764084
-0.666692049408385,1448.80578764084
-0.677478312641949,1448.81578764084
-0.688052619818052,1448.82578764084
-0.699333652518968,1448.83578764084
-0.711393801618617,1448.84578764084
-0.7232286068306,1448.85578764084
-0.735056707727499,1448.86578764084
-0.746432159173447,1448.87578764084
-0.75682288087856,1448.88578764084
-0.76666218878572,1448.89578764084
-0.77595040306758,1448.90578764084
-0.785187826539285,1448.91578764084
-0.795122401361577,1448.92578764084
-0.80581972005004,1448.93578764084
-0.817304109831916,1448.94578764084
-0.828973212667611,1448.95578764084
-0.840810998459523,1448.96578764084
-0.852686559100934,1448.97578764084
-0.864909960280538,1448.98578764084
-0.877380503919651,1448.99578764084
-0.889688429632468,1449.00578764084
-0.902237217806747,1449.01578764084
-0.913896055165478,1449.02578764084
-0.924888724528571,1449.03578764084
-0.93362651332571,1449.04578764084
-0.941750719659133,1449.05578764084
-0.949472118087786,1449.06578764084
-0.957416461326978,1449.07578764084
-0.966246044420961,1449.08578764084
-0.97569432549467,1449.09578764084
-0.98534293221965,1449.10578764084
-0.992146268669247,1449.11578764084
-0.991709478859471,1449.12578764084
-0.980712486310138,1449.13578764084
-0.955854472723212,1449.14578764084
-0.917368094977215,1449.15578764084
-0.868675648887851,1449.16578764084
-0.815424996146277,1449.17578764084
-0.762203404234686,1449.18578764084
-0.713654355089022,1449.19578764084
-0.671549397769253,1449.20578764084
-0.637897952404436,1449.21578764084
-0.612119121189202,1449.22578764084
-0.593118873771249,1449.23578764084
-0.579597432038548,1449.24578764084
-0.568952573505596,1449.25578764084
-0.559806822517602,1449.26578764084
-0.550549114838499,1449.27578764084
-0.53991680123312,1449.28578764084
-0.527938046629547,1449.29578764084
-0.514578619594429,1449.30578764084
-0.500653459371921,1449.31578764084
-0.487116679025131,1449.32578764084
-0.474374539708582,1449.33578764084
-0.461848593221961,1449.34578764084
-0.450103775737684,1449.35578764084
-0.439229289622117,1449.36578764084
-0.430561702023083,1449.37578764084
-0.425391834283244,1449.38578764084
-0.425083124570262,1449.39578764084
-0.429124106943764,1449.40578764084
-0.436559988818558,1449.41578764084
-0.445333352681469,1449.42578764084
-0.453781051723946,1449.43578764084
-0.461213091351443,1449.44578764084
-0.466187365513857,1449.45578764084
-0.468893481286636,1449.46578764084
-0.470116025759491,1449.47578764084
-0.470525328486805,1449.48578764084
-0.469694058257056,1449.49578764084
-0.468386301832971,1449.50578764084
-0.466202255676067,1449.51578764084
-0.465149936445089,1449.52578764084
-0.465296898525871,1449.53578764084
-0.467102206312359,1449.54578764084
-0.471385643874781,1449.55578764084
-0.477535120230744,1449.56578764084
-0.485130362151799,1449.57578764084
-0.493842159797647,1449.58578764084
-0.502936495362977,1449.59578764084
-0.512769608260354,1449.60578764084
-0.523123613770693,1449.61578764084
-0.533848670284147,1449.62578764084
-0.545502686979312,1449.63578764084
-0.557093407644982,1449.64578764084
-0.568417923682451,1449.65578764084
-0.579195223098214,1449.66578764084
-0.589524973157528,1449.67578764084
-0.599760975473928,1449.68578764084
-0.609591229291216,1449.69578764084
-0.619781771245094,1449.70578764084
-0.63014805708532,1449.71578764084
-0.641035575121527,1449.72578764084
-0.65180972173672,1449.73578764084
-0.663116652183863,1449.74578764084
-0.673782745793749,1449.75578764084
-0.684711276949926,1449.76578764084
-0.695284424200507,1449.77578764084
-0.706785432256247,1449.78578764084
-0.719002192368002,1449.79578764084
-0.730700342477026,1449.80578764084
-0.742091488679187,1449.81578764084
-0.752113824566969,1449.82578764084
-0.761412320805508,1449.83578764084
-0.770745357748066,1449.84578764084
-0.78007708411949,1449.85578764084
-0.790302114334928,1449.86578764084
-0.801064269682867,1449.87578764084
-0.811775728186849,1449.88578764084
-0.822442890749649,1449.89578764084
-0.833065024649651,1449.90578764084
-0.843325297973452,1449.91578764084
-0.853606780130219,1449.92578764084
-0.864154055816258,1449.93578764084
-0.875801306580893,1449.94578764084
-0.887644202546936,1449.95578764084
-0.898915765354771,1449.96578764084
-0.909448307431256,1449.97578764084
-0.919193807952898,1449.98578764084
-0.927997011485522,1449.99578764084
-0.935979053309596,1450.00578764084
-0.942981477599705,1450.01578764084
-0.947563210471641,1450.02578764084
-0.945516779317997,1450.03578764084
-0.932800402701162,1450.04578764084
-0.90684225632523,1450.05578764084
-0.867929050097283,1450.06578764084
-0.820190016008928,1450.07578764084
-0.769190528915073,1450.08578764084
-0.719949614210649,1450.09578764084
-0.676240560287789,1450.10578764084
-0.640513210762385,1450.11578764084
-0.613502453818448,1450.12578764084
-0.593980930927354,1450.13578764084
-0.58066852613347,1450.14578764084
-0.571744901201038,1450.15578764084
-0.565145460690368,1450.16578764084
-0.559548639190234,1450.17578764084
-0.553996013604696,1450.18578764084
-0.547058807791355,1450.19578764084
-0.539225942735146,1450.20578764084
-0.530377984104242,1450.21578764084
-0.520410401008615,1450.22578764084
-0.509881986666437,1450.23578764084
-0.498877829370045,1450.24578764084
-0.487982948032953,1450.25578764084
-0.478611693785383,1450.26578764084
-0.47224280449342,1450.27578764084
-0.469245970070607,1450.28578764084
-0.469302241568658,1450.29578764084
-0.472839343804536,1450.30578764084
-0.478390806553194,1450.31578764084
-0.484778519662642,1450.32578764084
-0.490953058023605,1450.33578764084
-0.495521081181728,1450.34578764084
-0.497546953547145,1450.35578764084
-0.497083642378376,1450.36578764084
-0.49426482300768,1450.37578764084
-0.489761133412218,1450.38578764084
-0.484850737432121,1450.39578764084
-0.480267193708485,1450.40578764084
-0.476755752611757,1450.41578764084
-0.475245310809146,1450.42578764084
-0.475499076410084,1450.43578764084
-0.477132018028191,1450.44578764084
-0.480396871089509,1450.45578764084
-0.484517337240117,1450.46578764084
-0.489463955768634,1450.47578764084
-0.49552561071036,1450.48578764084
-0.501639126479044,1450.49578764084
-0.508953413340657,1450.50578764084
-0.516654224147206,1450.51578764084
-0.524521975869221,1450.52578764084
-0.532237392157138,1450.53578764084
-0.540120185557493,1450.54578764084
-0.548598241108178,1450.55578764084
-0.557123085226261,1450.56578764084
-0.565952287615762,1450.57578764084
-0.576141300941969,1450.58578764084
-0.587016909441287,1450.59578764084
-0.596891681999957,1450.60578764084
-0.605826209563509,1450.61578764084
-0.614259855900674,1450.62578764084
-0.622131240384181,1450.63578764084
-0.630766206876822,1450.64578764084
-0.639468074729926,1450.65578764084
-0.648838711712032,1450.66578764084
-0.658352285368387,1450.67578764084
-0.667707058906005,1450.68578764084
-0.676494932349245,1450.69578764084
-0.684921214646554,1450.70578764084
-0.691867990328884,1450.71578764084
-0.699419951394319,1450.72578764084
-0.707509667653388,1450.73578764084
-0.715484964587754,1450.74578764084
-0.723853823477634,1450.75578764084
-0.732331526374175,1450.76578764084
-0.740939465611107,1450.77578764084
-0.750063925671966,1450.78578764084
-0.758838821466646,1450.79578764084
-0.767488608818788,1450.80578764084
-0.776060198970482,1450.81578764084
-0.784180450890175,1450.82578764084
-0.792616872932639,1450.83578764084
-0.800438695491945,1450.84578764084
-0.807430488067368,1450.85578764084
-0.811197317463527,1450.86578764084
-0.808804142691325,1450.87578764084
-0.796142872997838,1450.88578764084
-0.770627774948582,1450.89578764084
-0.73290541320779,1450.90578764084
-0.686095010026168,1450.91578764084
-0.635197035700404,1450.92578764084
-0.585668970687423,1450.93578764084
-0.540724697979575,1450.94578764084
-0.503363194912048,1450.95578764084
-0.473781791131382,1450.96578764084
-0.451864304250131,1450.97578764084
-0.436388017116503,1450.98578764084
-0.425116756322891,1450.99578764084
-0.416865747775843,1451.00578764084
-0.409352423626846,1451.01578764084
-0.401296483894647,1451.02578764084
-0.392823098285204,1451.03578764084
-0.383304642619092,1451.04578764084
-0.372992221577693,1451.05578764084
-0.362121404621348,1451.06578764084
-0.350272396313201,1451.07578764084
-0.337771821684743,1451.08578764084
-0.32544318706336,1451.09578764084
-0.314644161284938,1451.10578764084
-0.306694014392255,1451.11578764084
-0.303038832997957,1451.12578764084
-0.30397508776288,1451.13578764084
-0.308798199413294,1451.14578764084
-0.315353526302503,1451.15578764084
-0.322521313525002,1451.16578764084
-0.328188265750748,1451.17578764084
-0.331738753445344,1451.18578764084
-0.332860773089649,1451.19578764084
-0.331238842484922,1451.20578764084
-0.327394305493242,1451.21578764084
-0.322804767737424,1451.22578764084
-0.318000383714377,1451.23578764084
-0.313231796092847,1451.24578764084
-0.30949141440931,1451.25578764084
-0.306895774085165,1451.26578764084
-0.306654097555435,1451.27578764084
-0.307957281773231,1451.28578764084
-0.311404638048596,1451.29578764084
-0.316589272259108,1451.30578764084
-0.322978994337705,1451.31578764084
-0.329849912129265,1451.32578764084
-0.336884507657326,1451.33578764084
-0.344261445332121,1451.34578764084
-0.351363132155054,1451.35578764084
-0.358619845741028,1451.36578764084
-0.366385366439272,1451.37578764084
-0.374551669052821,1451.38578764084
-0.382627104093548,1451.39578764084
-0.390772193054231,1451.40578764084
-0.399326361793413,1451.41578764084
-0.407458713208474,1451.42578764084
-0.416128139350077,1451.43578764084
-0.425403319068881,1451.44578764084
-0.435040778652163,1451.45578764084
-0.444655705272468,1451.46578764084
-0.454344845609793,1451.47578764084
-0.463463604521555,1451.48578764084
-0.47214495245769,1451.49578764084
-0.480741238062712,1451.50578764084
-0.490138164989636,1451.51578764084
-0.500183917845062,1451.52578764084
-0.511073711735367,1451.53578764084
-0.521050211621638,1451.54578764084
-0.529993476142933,1451.55578764084
-0.538411987723471,1451.56578764084
-0.546598687686542,1451.57578764084
-0.555204561658359,1451.58578764084
-0.565298707205683,1451.59578764084
-0.575632512919512,1451.60578764084
-0.586432061474516,1451.61578764084
-0.596726911204211,1451.62578764084
-0.60624745657133,1451.63578764084
-0.61592005719057,1451.64578764084
-0.625382715665577,1451.65578764084
-0.634792867901884,1451.66578764084
-0.644634570429915,1451.67578764084
-0.653864084139291,1451.68578764084
-0.662136669472824,1451.69578764084
-0.667653190176193,1451.70578764084
-0.666693409149229,1451.71578764084
-0.656460708794909,1451.72578764084
-0.63456623736722,1451.73578764084
-0.600473325279316,1451.74578764084
-0.55611655468135,1451.75578764084
-0.505482381433723,1451.76578764084
-0.453033250679687,1451.77578764084
-0.40217931809058,1451.78578764084
-0.355973445651493,1451.79578764084
-0.316561535934802,1451.80578764084
-0.284608247465603,1451.81578764084
-0.259645454073035,1451.82578764084
-0.240231196505923,1451.83578764084
-0.223850034125909,1451.84578764084
-0.209302055724911,1451.85578764084
-0.194861627620695,1451.86578764084
-0.179431201124741,1451.87578764084
-0.162563825316291,1451.88578764084
-0.144783774614169,1451.89578764084
-0.126804234032341,1451.90578764084
-0.10883610591218,1451.91578764084
-0.0910931510968788,1451.92578764084
-0.0736498714517894,1451.93578764084
-0.0577241003309168,1451.94578764084
-0.0432110923197151,1451.95578764084
-0.0315519160876062,1451.96578764084
-0.023596552371701,1451.97578764084
-0.0205999262027946,1451.98578764084
-0.022655749242614,1451.99578764084
-0.0278451807275978,1452.00578764084
-0.0347484669754342,1452.01578764084
-0.0407981677017687,1452.02578764084
-0.0449997816709713,1452.03578764084
-0.0467308697014102,1452.04578764084
-0.0459179189790358,1452.05578764084
-0.0433134362292656,1452.06578764084
-0.039740202428866,1452.07578764084
-0.0362131075765495,1452.08578764084
-0.0325598021528685,1452.09578764084
-0.0295567603164256,1452.10578764084
-0.0277869586144665,1452.11578764084
-0.0268295588884042,1452.12578764084
-0.0274543812996208,1452.13578764084
-0.0307183852323119,1452.14578764084
-0.0354879917277277,1452.15578764084
-0.0412172592123481,1452.16578764084
-0.047970417662348,1452.17578764084
-0.0553102992323821,1452.18578764084
-0.064069382504369,1452.19578764084
-0.073627697509857,1452.20578764084
-0.0844862442894271,1452.21578764084
-0.096177880931043,1452.22578764084
-0.108190219040158,1452.23578764084
-0.120551780263339,1452.24578764084
-0.132993474438324,1452.25578764084
-0.145706097427513,1452.26578764084
-0.15809188934595,1452.27578764084
-0.170952201220627,1452.28578764084
-0.183616920411968,1452.29578764084
-0.196774583513948,1452.30578764084
-0.209492769749474,1452.31578764084
-0.222068708581502,1452.32578764084
-0.234797367870443,1452.33578764084
-0.246381842351649,1452.34578764084
-0.257805189451914,1452.35578764084
-0.268459274385872,1452.36578764084
-0.278864134635613,1452.37578764084
-0.288847500392691,1452.38578764084
-0.297947584902265,1452.39578764084
-0.307170500761507,1452.40578764084
-0.316301381653947,1452.41578764084
-0.325996838646274,1452.42578764084
-0.336397757630387,1452.43578764084
-0.347811263043667,1452.44578764084
-0.359753263274257,1452.45578764084
-0.371941992611616,1452.46578764084
-0.384835055522032,1452.47578764084
-0.397840028364332,1452.48578764084
-0.410789409762561,1452.49578764084
-0.423213884307138,1452.50578764084
-0.435457824639006,1452.51578764084
-0.447944264686545,1452.52578764084
-0.460028923467416,1452.53578764084
-0.471640482690736,1452.54578764084
-0.482896359821819,1452.55578764084
-0.493367014037107,1452.56578764084
-0.504141488341758,1452.57578764084
-0.513730054306589,1452.58578764084
-0.520498526923547,1452.59578764084
-0.52015540489285,1452.60578764084
-0.508396534793215,1452.61578764084
-0.482946075464445,1452.62578764084
-0.444637070416842,1452.63578764084
-0.39510530924645,1452.64578764084
-0.338820947934119,1452.65578764084
-0.280566039469671,1452.66578764084
-0.223321729432311,1452.67578764084
-0.170390071519208,1452.68578764084
-0.123958641987213,1452.69578764084
-0.083845506206811,1452.70578764084
-0.0501289332754799,1452.71578764084
-0.0220314616162246,1452.72578764084
0.00221298875618677,1452.73578764084
0.0238131286863221,1452.74578764084
0.0443369893431563,1452.75578764084
0.0652748036402005,1452.76578764084
0.0863300857192748,1452.77578764084
0.107684414952806,1452.78578764084
0.129635096198224,1452.79578764084
0.151692893078043,1452.80578764084
0.173390816867301,1452.81578764084
0.194388366983985,1452.82578764084
0.213971936856827,1452.83578764084
0.231485111876969,1452.84578764084
0.245613232672463,1452.85578764084
0.255533208806598,1452.86578764084
0.26001600172511,1452.87578764084
0.259934379024157,1452.88578764084
0.255799276590112,1452.89578764084
0.249676029134395,1452.90578764084
0.242523121862148,1452.91578764084
0.236657876490498,1452.92578764084
0.232466639625493,1452.93578764084
0.23077498898282,1452.94578764084
0.231217740183651,1452.95578764084
0.232729097274794,1452.96578764084
0.235013105693336,1452.97578764084
0.236931505135287,1452.98578764084
0.238858786752622,1452.99578764084
0.239636934754903,1453.00578764084
0.238867769426979,1453.01578764084
0.236050697577965,1453.02578764084
0.231253339884218,1453.03578764084
0.225062225650292,1453.04578764084
0.217656028581575,1453.05578764084
0.208742586728084,1453.06578764084
0.199213731003763,1453.07578764084
0.188924963175046,1453.08578764084
0.177427356376851,1453.09578764084
0.166195774730939,1453.10578764084
0.154948518165704,1453.11578764084
0.143856375021919,1453.12578764084
0.132063114525741,1453.13578764084
0.119868874910421,1453.14578764084
0.107023771813851,1453.15578764084
0.0933910933764736,1453.16578764084
0.0802318701943514,1453.17578764084
0.0664106151991057,1453.18578764084
0.052054762326198,1453.19578764084
0.0376365118238553,1453.20578764084
0.0233342885077287,1453.21578764084
0.0086919839538405,1453.22578764084
-0.00553730997870505,1453.23578764084
-0.0203174064858032,1453.24578764084
-0.034430499098537,1453.25578764084
-0.0480553998418893,1453.26578764084
-0.0611685179043373,1453.27578764084
-0.0741392241890777,1453.28578764084
-0.0866372821460308,1453.29578764084
-0.0992419805403584,1453.30578764084
-0.111515457113247,1453.31578764084
-0.123982162601482,1453.32578764084
-0.137240121210332,1453.33578764084
-0.150742423832475,1453.34578764084
-0.164905842067467,1453.35578764084
-0.179355084509705,1453.36578764084
-0.193300462031099,1453.37578764084
-0.207040583112814,1453.38578764084
-0.22025900165959,1453.39578764084
-0.23333974828855,1453.40578764084
-0.246131260797796,1453.41578764084
-0.259157110655157,1453.42578764084
-0.272426129456164,1453.43578764084
-0.285805282808551,1453.44578764084
-0.298941114422925,1453.45578764084
-0.311730306788195,1453.46578764084
-0.323632375854181,1453.47578764084
-0.333478312719202,1453.48578764084
-0.338306243625564,1453.49578764084
-0.334008480272206,1453.50578764084
-0.316477164485015,1453.51578764084
-0.283851704219348,1453.52578764084
-0.23782630714462,1453.53578764084
-0.181084698553868,1453.54578764084
-0.11846781684477,1453.55578764084
-0.0538781967715945,1453.56578764084
0.0088231400943897,1453.57578764084
0.0660407947786345,1453.58578764084
0.116881930106741,1453.59578764084
0.161196628103937,1453.60578764084
0.198838959119656,1453.61578764084
0.230448856926527,1453.62578764084
0.257115713921544,1453.63578764084
0.279605314602438,1453.64578764084
0.300496945724221,1453.65578764084
0.320175296222223,1453.66578764084
0.339190856375517,1453.67578764084
0.358292245192287,1453.68578764084
0.377652753129151,1453.69578764084
0.397204985657009,1453.70578764084
0.416424177499616,1453.71578764084
0.434828886167897,1453.72578764084
0.45116898856394,1453.73578764084
0.464605481361018,1453.74578764084
0.47368813113199,1453.75578764084
0.477263954154235,1453.76578764084
0.475472474611468,1453.77578764084
0.468916179661778,1453.78578764084
0.459594742790003,1453.79578764084
0.449144166192183,1453.80578764084
0.44005370054166,1453.81578764084
0.432535538767462,1453.82578764084
0.427143474334521,1453.83578764084
0.423469276822507,1453.84578764084
0.421290784725602,1453.85578764084
0.420580136797528,1453.86578764084
0.420616238481232,1453.87578764084
0.420545959275613,1453.88578764084
0.420299987859591,1453.89578764084
0.418817365229092,1453.90578764084
0.415802605105634,1453.91578764084
0.411416180614093,1453.92578764084
0.404654875761332,1453.93578764084
0.396493341048546,1453.94578764084
0.386171025973034,1453.95578764084
0.374913953008359,1453.96578764084
0.362445037865967,1453.97578764084
0.349652120632609,1453.98578764084
0.335931208498321,1453.99578764084
0.321533024475417,1454.00578764084
0.306252690721453,1454.01578764084
0.290980804222071,1454.02578764084
0.27474374646097,1454.03578764084
0.25862500944652,1454.04578764084
0.242067315226512,1454.05578764084
0.224984270265965,1454.06578764084
0.208245966628633,1454.07578764084
0.191450147308019,1454.08578764084
0.174061646222981,1454.09578764084
0.156305909595601,1454.10578764084
0.138813956691153,1454.11578764084
0.1217028017246,1454.12578764084
0.104109120255401,1454.13578764084
0.087210921906319,1454.14578764084
0.0706125798058385,1454.15578764084
0.0544643669782617,1454.16578764084
0.0385269027847586,1454.17578764084
0.0227055356963385,1454.18578764084
0.00702768123642534,1454.19578764084
-0.00877477037688394,1454.20578764084
-0.024683533206654,1454.21578764084
-0.0404417644603218,1454.22578764084
-0.0561219887902739,1454.23578764084
-0.0721766608647142,1454.24578764084
-0.0877192028917811,1454.25578764084
-0.103075575433993,1454.26578764084
-0.118635959130193,1454.27578764084
-0.133884005355523,1454.28578764084
-0.14878950760512,1454.29578764084
-0.163776488977879,1454.30578764084
-0.177938240156424,1454.31578764084
-0.192477691700078,1454.32578764084
-0.20702196579278,1454.33578764084
-0.221952169037852,1454.34578764084
-0.236704056007859,1454.35578764084
-0.251215599623058,1454.36578764084
-0.265264485863038,1454.37578764084
-0.278613862173319,1454.38578764084
-0.289472576163841,1454.39578764084
-0.294010573050096,1454.40578764084
-0.287256524707439,1454.41578764084
-0.265381872784945,1454.42578764084
-0.227263034301319,1454.43578764084
-0.175438544282736,1454.44578764084
-0.113936882044428,1454.45578764084
-0.0467007955024529,1454.46578764084
0.0220163629020599,1454.47578764084
0.0887860899310296,1454.48578764084
0.15042609007976,1454.49578764084
0.205013781414041,1454.50578764084
0.251372556844268,1454.51578764084
0.289427976898744,1454.52578764084
0.320767579011145,1454.53578764084
0.346665685284678,1454.54578764084
0.368286632404248,1454.55578764084
0.387763714263149,1454.56578764084
0.406118224606209,1454.57578764084
0.423749336688913,1454.58578764084
0.441584058954634,1454.59578764084
0.459665029229403,1454.60578764084
0.477287055575636,1454.61578764084
0.494424827297157,1454.62578764084
0.51031665063286,1454.63578764084
0.523481467694476,1454.64578764084
0.533053575829425,1454.65578764084
0.53840145432037,1454.66578764084
0.538038509666207,1454.67578764084
0.53240414389411,1454.68578764084
0.522748457382477,1454.69578764084
0.511270291360675,1454.70578764084
0.499076439038964,1454.71578764084
0.48849972114597,1454.72578764084
0.480325770713845,1454.73578764084
0.47527007692095,1454.74578764084
0.472703005396815,1454.75578764084
0.472279211350781,1454.76578764084
0.473408294042505,1454.77578764084
0.475005848545201,1454.78578764084
0.47645689722171,1454.79578764084
0.476532069415529,1454.80578764084
0.474828416316731,1454.81578764084
0.471537964755647,1454.82578764084
0.465465752303845,1454.83578764084
0.457882460234984,1454.84578764084
0.44867788127527,1454.85578764084
0.437890790930843,1454.86578764084
0.426122877194792,1454.87578764084
0.412768220985761,1454.88578764084
0.398477576217195,1454.89578764084
0.383729444628518,1454.90578764084
0.368145678700458,1454.91578764084
0.352166322385005,1454.92578764084
0.335568100911697,1454.93578764084
0.318861566364478,1454.94578764084
0.30101787770888,1454.95578764084
0.28306441388618,1454.96578764084
0.265210085353575,1454.97578764084
0.247899915822903,1454.98578764084
0.231631530499111,1454.99578764084
0.216046682022274,1455.00578764084
0.201237415557392,1455.01578764084
0.18723658711952,1455.02578764084
0.17335808936233,1455.03578764084
0.16015185814554,1455.04578764084
0.146943625991738,1455.05578764084
0.1335440150942,1455.06578764084
0.119810926365412,1455.07578764084
0.10555026258306,1455.08578764084
0.0904794015556295,1455.09578764084
0.0745357228027459,1455.10578764084
0.0576454818728561,1455.11578764084
0.0405212148911274,1455.12578764084
0.0225987570863297,1455.13578764084
0.00484768824539687,1455.14578764084
-0.0127901392845554,1455.15578764084
-0.0303623578871633,1455.16578764084
-0.0474728885394918,1455.17578764084
-0.0645740264271434,1455.18578764084
-0.081603903673203,1455.19578764084
-0.0984601119746913,1455.20578764084
-0.114702273042168,1455.21578764084
-0.130467959761466,1455.22578764084
-0.145693740028735,1455.23578764084
