PPG,time
0.00274010060060328,1623.29712133376
-0.00289475372485065,1623.30712133376
-0.0148537761716117,1623.31712133376
-0.0258671326321475,1623.32712133376
-0.0386273560658579,1623.33712133376
-0.0512484232512592,1623.34712133376
-0.0646409869745014,1623.35712133376
-0.0773753711674633,1623.36712133376
-0.0894466194867125,1623.37712133376
-0.101296980847132,1623.38712133376
-0.113168940074306,1623.39712133376
-0.124650502045173,1623.40712133376
-0.136107554659284,1623.41712133376
-0.147995832145621,1623.42712133376
-0.159105871694591,1623.43712133376
-0.170170977209588,1623.44712133376
-0.180943244693826,1623.45712133376
-0.191837620097781,1623.46712133376
-0.202579284973017,1623.47712133376
-0.213355449791126,1623.48712133376
-0.223974265515405,1623.49712133376
-0.234859423216687,1623.50712133376
-0.245576971566174,1623.51712133376
-0.256084084452023,1623.52712133376
-0.266752141501652,1623.53712133376
-0.277795750197496,1623.54712133376
-0.289002850680587,1623.55712133376
-0.300106416004586,1623.56712133376
-0.31168455289113,1623.57712133376
-0.322554129028477,1623.58712133376
-0.333724696127735,1623.59712133376
-0.344615480211212,1623.60712133376
-0.35554691034937,1623.61712133376
-0.365570720097064,1623.62712133376
-0.372997140597366,1623.63712133376
-0.374990529519252,1623.64712133376
-0.365897127139566,1623.65712133376
-0.342809643889142,1623.66712133376
-0.30529019466688,1623.67712133376
-0.255862102954248,1623.68712133376
-0.197810155400793,1623.69712133376
-0.136742549801758,1623.70712133376
-0.0743186147275826,1623.71712133376
-0.0129664762833206,1623.72712133376
0.0455066692056171,1623.73712133376
0.0998917244439851,1623.74712133376
0.147406521484309,1623.75712133376
0.187733030490145,1623.76712133376
0.218855879381634,1623.77712133376
0.240740223245674,1623.78712133376
0.253246152966085,1623.79712133376
0.257974262523279,1623.80712133376
0.256637200343616,1623.81712133376
0.250861797234253,1623.82712133376
0.241998664224787,1623.83712133376
0.230842392223241,1623.84712133376
0.218119861116978,1623.85712133376
0.204669757532637,1623.86712133376
0.190593049942298,1623.87712133376
0.176236349896962,1623.88712133376
0.161632102835389,1623.89712133376
0.146151413043944,1623.90712133376
0.129881403795155,1623.91712133376
0.112370775306436,1623.92712133376
0.0944775138002402,1623.93712133376
0.0769134265280088,1623.94712133376
0.0612960358520505,1623.95712133376
0.0487593302721243,1623.96712133376
0.0394341054633403,1623.97712133376
0.0333371903759561,1623.98712133376
0.0298982047220838,1623.99712133376
0.0291301384189858,1624.00712133376
0.0306066362864633,1624.01712133376
0.0330639006415038,1624.02712133376
0.0368535022965839,1624.03712133376
0.0398873536556607,1624.04712133376
0.0426116070765178,1624.05712133376
0.0439153593212159,1624.06712133376
0.0436378048414674,1624.07712133376
0.0413333173048339,1624.08712133376
0.0369594192435446,1624.09712133376
0.0307877739514688,1624.10712133376
0.0231988348556813,1624.11712133376
0.0147501568534527,1624.12712133376
0.00524283837209097,1624.13712133376
-0.00441564719388496,1624.14712133376
-0.0147465159603529,1624.15712133376
-0.0251515900883219,1624.16712133376
-0.0360551877847166,1624.17712133376
-0.0474175337466647,1624.18712133376
-0.0591726990479804,1624.19712133376
-0.0711934009110565,1624.20712133376
-0.0828357379705548,1624.21712133376
-0.0945559838826957,1624.22712133376
-0.106157631935799,1624.23712133376
-0.118039298524143,1624.24712133376
-0.129349574552206,1624.25712133376
-0.141018189585643,1624.26712133376
-0.152529601209211,1624.27712133376
-0.163595358643507,1624.28712133376
-0.175235018481631,1624.29712133376
-0.186456767267055,1624.30712133376
-0.197718611942861,1624.31712133376
-0.208753085133644,1624.32712133376
-0.219162167873291,1624.33712133376
-0.230295332612568,1624.34712133376
-0.240898336057177,1624.35712133376
-0.251621960525081,1624.36712133376
-0.262024963705777,1624.37712133376
-0.272030723412783,1624.38712133376
-0.281928724941387,1624.39712133376
-0.292736148108859,1624.40712133376
-0.304544274780086,1624.41712133376
-0.316683242751455,1624.42712133376
-0.32706659220566,1624.43712133376
-0.332787850745866,1624.44712133376
-0.329805858166536,1624.45712133376
-0.31390385020627,1624.46712133376
-0.284112634332413,1624.47712133376
-0.240344380898403,1624.48712133376
-0.186453156771096,1624.49712133376
-0.125480670990618,1624.50712133376
-0.0600180866232821,1624.51712133376
0.00701363642669626,1624.52712133376
0.0732092795698155,1624.53712133376
0.136141614117998,1624.54712133376
0.192921611892388,1624.55712133376
0.24194001977499,1624.56712133376
0.282051196763731,1624.57712133376
0.312440226660489,1624.58712133376
0.333405613516101,1624.59712133376
0.345444910714289,1624.60712133376
0.349876970144544,1624.61712133376
0.348622796016396,1624.62712133376
0.342987268435273,1624.63712133376
0.334524607919495,1624.64712133376
0.323974683154867,1624.65712133376
0.312507446784735,1624.66712133376
0.300298680577974,1624.67712133376
0.287712539476903,1624.68712133376
0.274455944765113,1624.69712133376
0.260660765319836,1624.70712133376
0.245957553296068,1624.71712133376
0.229700567791155,1624.72712133376
0.212576099464737,1624.73712133376
0.194800798586426,1624.74712133376
0.178056705645995,1624.75712133376
0.162428818487346,1624.76712133376
0.148554090818374,1624.77712133376
0.137324643173945,1624.78712133376
0.12851711123695,1624.79712133376
0.121872185955604,1624.80712133376
0.118407937993563,1624.81712133376
0.117398537845835,1624.82712133376
0.118310864920707,1624.83712133376
0.120260506200128,1624.84712133376
0.123418698253241,1624.85712133376
0.126289481410642,1624.86712133376
0.128549028011895,1624.87712133376
0.129760195577583,1624.88712133376
0.129162614425356,1624.89712133376
0.12683609840759,1624.90712133376
0.122239530431235,1624.91712133376
0.116263171541761,1624.92712133376
0.108679985158378,1624.93712133376
0.0994282922832807,1624.94712133376
0.0892032940421004,1624.95712133376
0.078861799671918,1624.96712133376
0.06774783620128,1624.97712133376
0.0562970761738067,1624.98712133376
0.0446613732990701,1624.99712133376
0.0326830399066849,1625.00712133376
0.0202151173339258,1625.01712133376
0.00774581704182444,1625.02712133376
-0.00510166343083369,1625.03712133376
-0.0177210668059142,1625.04712133376
-0.0302228199206687,1625.05712133376
-0.0415199432004432,1625.06712133376
-0.0522131367966122,1625.07712133376
-0.0629668770716424,1625.08712133376
-0.074175519188151,1625.09712133376
-0.085518030326903,1625.10712133376
-0.0977852373627401,1625.11712133376
-0.110164174387415,1625.12712133376
-0.122418350354496,1625.13712133376
-0.134796640602059,1625.14712133376
-0.146049481010543,1625.15712133376
-0.157186399607532,1625.16712133376
-0.168224426447632,1625.17712133376
-0.179258525905784,1625.18712133376
-0.190579054028878,1625.19712133376
-0.202164051460855,1625.20712133376
-0.213622524952983,1625.21712133376
-0.224929674838552,1625.22712133376
-0.235496030997329,1625.23712133376
-0.245986064713351,1625.24712133376
-0.25629581674127,1625.25712133376
-0.267407042714939,1625.26712133376
-0.278923518154791,1625.27712133376
-0.289586618753575,1625.28712133376
-0.297725417542453,1625.29712133376
-0.298936852288545,1625.30712133376
-0.288376522671362,1625.31712133376
-0.263976771112751,1625.32712133376
-0.224126939121656,1625.33712133376
-0.171684553985855,1625.34712133376
-0.110140584416053,1625.35712133376
-0.0420480548739924,1625.36712133376
0.0290189113853585,1625.37712133376
0.100422406798261,1625.38712133376
0.169325614214576,1625.39712133376
0.233865281963163,1625.40712133376
0.290437986758461,1625.41712133376
0.337724955708743,1625.42712133376
0.37487503709623,1625.43712133376
0.401928783366826,1625.44712133376
0.419063909816671,1625.45712133376
0.428254961822319,1625.46712133376
0.430898717542137,1625.47712133376
0.428273029661874,1625.48712133376
0.421930884731419,1625.49712133376
0.413154050918992,1625.50712133376
0.402815934275442,1625.51712133376
0.391409721553148,1625.52712133376
0.379273175296603,1625.53712133376
0.367025090423807,1625.54712133376
0.35418198797413,1625.55712133376
0.341085983361899,1625.56712133376
0.326289576467217,1625.57712133376
0.310232470593565,1625.58712133376
0.292997016878298,1625.59712133376
0.27469112607483,1625.60712133376
0.256605271273598,1625.61712133376
0.239398654233415,1625.62712133376
0.223908872456951,1625.63712133376
0.211240492440958,1625.64712133376
0.201127241264721,1625.65712133376
0.194130050825184,1625.66712133376
0.189642760639896,1625.67712133376
0.187148106387715,1625.68712133376
0.185744630943815,1625.69712133376
0.185695971729278,1625.70712133376
0.186431081297295,1625.71712133376
0.187257736102817,1625.72712133376
0.187465016411007,1625.73712133376
0.185684631515463,1625.74712133376
0.182850707777377,1625.75712133376
0.177879538247528,1625.76712133376
0.171583048633986,1625.77712133376
0.16378535501754,1625.78712133376
0.154604321713048,1625.79712133376
0.144388617308562,1625.80712133376
0.133840257915144,1625.81712133376
0.122239804294564,1625.82712133376
0.11040152842402,1625.83712133376
0.0980638306532828,1625.84712133376
0.0846930729097326,1625.85712133376
0.0713237502625487,1625.86712133376
0.0578595841880011,1625.87712133376
0.0442091533525749,1625.88712133376
0.0307440060108013,1625.89712133376
0.0173756341416401,1625.90712133376
0.00448619056494393,1625.91712133376
-0.00871441348566976,1625.92712133376
-0.0215817868774157,1625.93712133376
-0.034347031656891,1625.94712133376
-0.0478888344079014,1625.95712133376
-0.0613589538463193,1625.96712133376
-0.0747516366086813,1625.97712133376
-0.088190660853349,1625.98712133376
-0.101175029970822,1625.99712133376
-0.114348756691849,1626.00712133376
-0.128227988646975,1626.01712133376
-0.142009833131543,1626.02712133376
-0.156168819093166,1626.03712133376
-0.169826270326776,1626.04712133376
-0.182727186281286,1626.05712133376
-0.195432310876969,1626.06712133376
-0.207254633027897,1626.07712133376
-0.218804630007793,1626.08712133376
-0.230640925744086,1626.09712133376
-0.24196259538247,1626.10712133376
-0.253298845043111,1626.11712133376
-0.264490746543192,1626.12712133376
-0.276062390528694,1626.13712133376
-0.287830173712314,1626.14712133376
-0.300056822774611,1626.15712133376
-0.311663534816876,1626.16712133376
-0.320034883240583,1626.17712133376
-0.321479667108968,1626.18712133376
-0.310996469051783,1626.19712133376
-0.285638414445834,1626.20712133376
-0.245094491426873,1626.21712133376
-0.192089902957992,1626.22712133376
-0.130132574902612,1626.23712133376
-0.0625827371052663,1626.24712133376
0.00745788921294145,1626.25712133376
0.0765930518895803,1626.26712133376
0.142683371779591,1626.27712133376
0.203703233418006,1626.28712133376
0.257428641949489,1626.29712133376
0.301468184057558,1626.30712133376
0.334864060164653,1626.31712133376
0.358233608162988,1626.32712133376
0.371340601258704,1626.33712133376
0.377178735979317,1626.34712133376
0.376344010205217,1626.35712133376
0.371181529439679,1626.36712133376
0.363016499158037,1626.37712133376
0.352011193497829,1626.38712133376
0.339600152125161,1626.39712133376
0.327155933231631,1626.40712133376
0.314336430467799,1626.41712133376
0.301324477863099,1626.42712133376
0.287956658353144,1626.43712133376
0.27300897319886,1626.44712133376
0.25721724656017,1626.45712133376
0.24015944321442,1626.46712133376
0.22215297747969,1626.47712133376
0.203965884394759,1626.48712133376
0.186675558807169,1626.49712133376
0.171062396898664,1626.50712133376
0.157626882854914,1626.51712133376
0.146545615207956,1626.52712133376
0.138332664481155,1626.53712133376
0.13259585745317,1626.54712133376
0.129997079328124,1626.55712133376
0.129498913520912,1626.56712133376
0.130984584863539,1626.57712133376
0.133455620253979,1626.58712133376
0.135415904859415,1626.59712133376
0.137194682338871,1626.60712133376
0.137375261884061,1626.61712133376
0.135665890837013,1626.62712133376
0.132560029833963,1626.63712133376
0.128292927849578,1626.64712133376
0.121985009465716,1626.65712133376
0.11428126062387,1626.66712133376
0.105494470750894,1626.67712133376
0.0959410783933032,1626.68712133376
0.0856457738102843,1626.69712133376
0.0745338880391687,1626.70712133376
0.0622961292631143,1626.71712133376
0.0486146743634367,1626.72712133376
0.0345858379323913,1626.73712133376
0.0204243068018508,1626.74712133376
0.00649540081118475,1626.75712133376
-0.0066400373313507,1626.76712133376
-0.0190193788899844,1626.77712133376
-0.030670540594867,1626.78712133376
-0.0427285218115314,1626.79712133376
-0.055270446987758,1626.80712133376
-0.067964373613534,1626.81712133376
-0.0816372159182714,1626.82712133376
-0.094858974738985,1626.83712133376
-0.107370472567591,1626.84712133376
-0.119188451146486,1626.85712133376
-0.130854904421839,1626.86712133376
-0.143091873702258,1626.87712133376
-0.155503185333177,1626.88712133376
-0.16802609449648,1626.89712133376
-0.180589512675892,1626.90712133376
-0.193263035324562,1626.91712133376
-0.205412232613517,1626.92712133376
-0.217759938669868,1626.93712133376
-0.229087064759197,1626.94712133376
-0.240037431980221,1626.95712133376
-0.250914181305957,1626.96712133376
-0.2615965054857,1626.97712133376
-0.272918419269594,1626.98712133376
-0.284742999151702,1626.99712133376
-0.296206538086065,1627.00712133376
-0.306020972948292,1627.01712133376
-0.311366531512314,1627.02712133376
-0.307766919263047,1627.03712133376
-0.290371068108084,1627.04712133376
-0.258299757244545,1627.05712133376
-0.211757142471206,1627.06712133376
-0.155454501276679,1627.07712133376
-0.0930102298419416,1627.08712133376
-0.0278320158387195,1627.09712133376
0.0373480537672763,1627.10712133376
0.1002498367361,1627.11712133376
0.159104269930069,1627.12712133376
0.212863970807111,1627.13712133376
0.258590304466874,1627.14712133376
0.295546981232513,1627.15712133376
0.322263058707901,1627.16712133376
0.339370568796786,1627.17712133376
0.347887062521371,1627.18712133376
0.349440750488753,1627.19712133376
0.345796453091149,1627.20712133376
0.337773480885034,1627.21712133376
0.32742558624936,1627.22712133376
0.315458213691568,1627.23712133376
0.303545628381773,1627.24712133376
0.29166275786376,1627.25712133376
0.279676257300632,1627.26712133376
0.2676154108166,1627.27712133376
0.25439095704164,1627.28712133376
0.239404822854082,1627.29712133376
0.223139805221993,1627.30712133376
0.20611406513155,1627.31712133376
0.189569208321115,1627.32712133376
0.174811583214403,1627.33712133376
0.161360275683109,1627.34712133376
0.150462745450253,1627.35712133376
0.141897862524641,1627.36712133376
0.135854332263309,1627.37712133376
0.132287677706304,1627.38712133376
0.130592878691907,1627.39712133376
0.13025874967283,1627.40712133376
0.130421844454094,1627.41712133376
0.131460468136408,1627.42712133376
0.132321254544674,1627.43712133376
0.132609261410299,1627.44712133376
0.13139220879416,1627.45712133376
0.128868792718705,1627.46712133376
0.124118508050299,1627.47712133376
0.118364973255147,1627.48712133376
0.111254602565181,1627.49712133376
0.102929885989496,1627.50712133376
0.0931087827847452,1627.51712133376
0.0821432200147005,1627.52712133376
0.0702266971284165,1627.53712133376
0.0576642762160966,1627.54712133376
0.0442202828651006,1627.55712133376
0.030646463006718,1627.56712133376
0.0163601284487126,1627.57712133376
0.00234265167498821,1627.58712133376
-0.0115713774035928,1627.59712133376
-0.02499553252537,1627.60712133376
-0.0382727828531295,1627.61712133376
-0.0511958622569466,1627.62712133376
-0.0642916020947819,1627.63712133376
-0.0767811629652482,1627.64712133376
-0.0893588614647099,1627.65712133376
-0.101766898656085,1627.66712133376
-0.114255451027146,1627.67712133376
-0.126509457752357,1627.68712133376
-0.138818828407449,1627.69712133376
-0.151038348668573,1627.70712133376
-0.163663899143249,1627.71712133376
-0.176508389753565,1627.72712133376
-0.189151904231167,1627.73712133376
-0.201845933895004,1627.74712133376
-0.213871371205026,1627.75712133376
-0.226629182251106,1627.76712133376
-0.238884573144163,1627.77712133376
-0.250751435631105,1627.78712133376
-0.261823545089908,1627.79712133376
-0.272523301329609,1627.80712133376
-0.283237599832713,1627.81712133376
-0.293904049364654,1627.82712133376
-0.305166144117142,1627.83712133376
-0.315967522146676,1627.84712133376
-0.324276190436879,1627.85712133376
-0.32762101697653,1627.86712133376
-0.321736249393823,1627.87712133376
-0.302616121656491,1627.88712133376
-0.268553924339025,1627.89712133376
-0.220865688817111,1627.90712133376
-0.162255227049808,1627.91712133376
-0.0962212667335686,1627.92712133376
-0.0256946866650696,1627.93712133376
0.0459289233284935,1627.94712133376
0.116171842401591,1627.95712133376
0.182185272455463,1627.96712133376
0.241685046064634,1627.97712133376
0.291862399107372,1627.98712133376
0.331322283283177,1627.99712133376
0.36035822536117,1628.00712133376
0.379103060300461,1628.01712133376
0.389711270846569,1628.02712133376
0.392864002307356,1628.03712133376
0.391535902919478,1628.04712133376
0.386322785159919,1628.05712133376
0.378917163873569,1628.06712133376
0.369938299540643,1628.07712133376
0.359953912576317,1628.08712133376
0.349728183886927,1628.09712133376
0.339065679373666,1628.10712133376
0.3273428233567,1628.11712133376
0.314184113689443,1628.12712133376
0.298762053622232,1628.13712133376
0.281545367346961,1628.14712133376
0.263158217271803,1628.15712133376
0.243853167459369,1628.16712133376
0.224838941797828,1628.17712133376
0.207018144586881,1628.18712133376
0.191377521623634,1628.19712133376
0.178282517133671,1628.20712133376
0.168491809693665,1628.21712133376
0.161052728319393,1628.22712133376
0.156800254859679,1628.23712133376
0.154688999364054,1628.24712133376
0.154561445761908,1628.25712133376
0.155559834953797,1628.26712133376
0.156350346040974,1628.27712133376
0.156965528516428,1628.28712133376
0.156112349932251,1628.29712133376
0.153808841816696,1628.30712133376
0.150903068870743,1628.31712133376
0.146838331598656,1628.32712133376
0.141747937997156,1628.33712133376
0.134911917791581,1628.34712133376
0.126758176282069,1628.35712133376
0.117247211417233,1628.36712133376
0.10693393467052,1628.37712133376
0.0953681598897375,1628.38712133376
0.0836312827182779,1628.39712133376
0.0711306856334082,1628.40712133376
0.057820281923329,1628.41712133376
0.0442138139122448,1628.42712133376
0.0302788981420971,1628.43712133376
0.0166722829364599,1628.44712133376
0.00353114217099139,1628.45712133376
-0.00948953932385731,1628.46712133376
-0.0220632915400629,1628.47712133376
-0.0343146337264349,1628.48712133376
-0.0462069120636885,1628.49712133376
-0.0580519983153289,1628.50712133376
-0.070051770596529,1628.51712133376
-0.0820625132862281,1628.52712133376
-0.0947364646560268,1628.53712133376
-0.106942692128603,1628.54712133376
-0.119374213667894,1628.55712133376
-0.131430558144532,1628.56712133376
-0.143756160797102,1628.57712133376
-0.156502041143337,1628.58712133376
-0.169296453224191,1628.59712133376
-0.182228169286917,1628.60712133376
-0.194838040140929,1628.61712133376
-0.206971717131092,1628.62712133376
-0.218598030095218,1628.63712133376
-0.229980472839269,1628.64712133376
-0.241423353237062,1628.65712133376
-0.252926882907879,1628.66712133376
-0.264350644197332,1628.67712133376
-0.275169952735027,1628.68712133376
-0.286060786538293,1628.69712133376
-0.297098332234216,1628.70712133376
-0.307433966622496,1628.71712133376
-0.317385891541351,1628.72712133376
-0.327304979048187,1628.73712133376
-0.337530122395719,1628.74712133376
-0.347931102911789,1628.75712133376
-0.358437926804695,1628.76712133376
-0.368537159503263,1628.77712133376
-0.375663742580239,1628.78712133376
-0.375462454433891,1628.79712133376
-0.363719699115359,1628.80712133376
-0.336741657867091,1628.81712133376
-0.294132910057657,1628.82712133376
-0.238208054881125,1628.83712133376
-0.172239066380102,1628.84712133376
-0.0998090940864808,1628.85712133376
-0.0248662108593019,1628.86712133376
0.0502319122313334,1628.87712133376
0.122189515273145,1628.88712133376
0.18851119808984,1628.89712133376
0.247337320539112,1628.90712133376
0.296679677202735,1628.91712133376
0.335530015182819,1628.92712133376
0.363333830430245,1628.93712133376
0.381458157490655,1628.94712133376
0.390569690977316,1628.95712133376
0.392664497998119,1628.96712133376
0.388777508439915,1628.97712133376
0.381680312544999,1628.98712133376
0.372805478059627,1628.99712133376
0.363022973784297,1629.00712133376
0.353048300672041,1629.01712133376
0.3429160657908,1629.02712133376
0.33253923315253,1629.03712133376
0.321043514980117,1629.04712133376
0.308974189345582,1629.05712133376
0.295494951646051,1629.06712133376
0.280663683202643,1629.07712133376
0.265056506933827,1629.08712133376
0.248858990928663,1629.09712133376
0.231998309936888,1629.10712133376
0.215629075667864,1629.11712133376
0.199905118695888,1629.12712133376
0.186056104430232,1629.13712133376
0.175259871457928,1629.14712133376
0.167085220574887,1629.15712133376
0.162213522779132,1629.16712133376
0.159335702118863,1629.17712133376
0.157955010706593,1629.18712133376
0.157622324151733,1629.19712133376
0.157584360029859,1629.20712133376
0.157497525461108,1629.21712133376
0.156955335876452,1629.22712133376
0.155584919272438,1629.23712133376
0.153284461781591,1629.24712133376
0.149126967217143,1629.25712133376
0.14387915651428,1629.26712133376
0.136988502216049,1629.27712133376
0.128531106028797,1629.28712133376
0.11909569941421,1629.29712133376
0.108093145980791,1629.30712133376
0.0963404998240978,1629.31712133376
0.0839176822984063,1629.32712133376
0.0714435513779735,1629.33712133376
0.058056250720137,1629.34712133376
0.0449552914921474,1629.35712133376
0.0317068856149302,1629.36712133376
0.0184761737234782,1629.37712133376
0.00545180532114815,1629.38712133376
-0.00771295244196901,1629.39712133376
-0.0208233477222417,1629.40712133376
-0.0339200409267339,1629.41712133376
-0.0468358254093794,1629.42712133376
-0.0593660773150703,1629.43712133376
-0.0715340127157083,1629.44712133376
-0.0837151274864348,1629.45712133376
-0.0964919507491186,1629.46712133376
-0.10924803464026,1629.47712133376
-0.122671735820583,1629.48712133376
-0.136197665030702,1629.49712133376
-0.149859793084484,1629.50712133376
-0.163282500205652,1629.51712133376
-0.177266012531192,1629.52712133376
-0.191254486507049,1629.53712133376
-0.20459427901348,1629.54712133376
-0.217182864279262,1629.55712133376
-0.229543613301795,1629.56712133376
-0.241415210433483,1629.57712133376
-0.253473259525248,1629.58712133376
-0.265476556330988,1629.59712133376
-0.277876796752689,1629.60712133376
-0.290024008448623,1629.61712133376
-0.30216467327999,1629.62712133376
-0.314166579690791,1629.63712133376
-0.326198948918084,1629.64712133376
-0.337875162949117,1629.65712133376
-0.349078406058594,1629.66712133376
-0.360310769670785,1629.67712133376
-0.372128861163949,1629.68712133376
-0.384269072524943,1629.69712133376
-0.396890927081786,1629.70712133376
-0.408362671840214,1629.71712133376
-0.416213064443854,1629.72712133376
-0.416004687267101,1629.73712133376
-0.404017808889343,1629.74712133376
-0.376965721937687,1629.75712133376
-0.334626236171932,1629.76712133376
-0.279513193405531,1629.77712133376
-0.216150914270976,1629.78712133376
-0.1485537432483,1629.79712133376
-0.0800681252883974,1629.80712133376
-0.0125017607066775,1629.81712133376
0.0513714495954806,1629.82712133376
0.109867303585037,1629.83712133376
0.161619799686316,1629.84712133376
0.205313073739484,1629.85712133376
0.240222570421366,1629.86712133376
0.265592198074376,1629.87712133376
0.28167069840018,1629.88712133376
0.289340335730867,1629.89712133376
0.290301425049493,1629.90712133376
0.285707328933747,1629.91712133376
0.277443720844482,1629.92712133376
0.266420373762581,1629.93712133376
0.254077565578732,1629.94712133376
0.24083551839817,1629.95712133376
0.227748264518345,1629.96712133376
0.214794754802656,1629.97712133376
0.201065879394666,1629.98712133376
0.186979621607179,1629.99712133376
0.171309253552071,1630.00712133376
0.153967355983243,1630.01712133376
0.135223411355842,1630.02712133376
0.11675361934908,1630.03712133376
0.0993831062628617,1630.04712133376
0.0832028893200617,1630.05712133376
0.0699182343516785,1630.06712133376
0.0594022612579535,1630.07712133376
0.0515808082991181,1630.08712133376
0.0467380730816111,1630.09712133376
0.0440698124850312,1630.10712133376
0.0433204768415201,1630.11712133376
0.0447160879257086,1630.12712133376
0.0462953938987265,1630.13712133376
0.0485899248658457,1630.14712133376
0.050474236471995,1630.15712133376
0.0512199051006575,1630.16712133376
0.0508304271059164,1630.17712133376
0.0491553416075138,1630.18712133376
0.0464161499529508,1630.19712133376
0.0417356672253878,1630.20712133376
0.0355546186185159,1630.21712133376
0.0277672222436536,1630.22712133376
0.0181598119638082,1630.23712133376
0.00774757810273998,1630.24712133376
-0.00395604887649422,1630.25712133376
-0.0161407355649465,1630.26712133376
-0.0287539623734388,1630.27712133376
-0.0409108521427717,1630.28712133376
-0.0535928992906872,1630.29712133376
-0.0663864486937448,1630.30712133376
-0.0788287074817963,1630.31712133376
-0.0922913593603293,1630.32712133376
-0.105093240872404,1630.33712133376
-0.117735416794447,1630.34712133376
-0.129910895763253,1630.35712133376
-0.141629692675693,1630.36712133376
-0.15336954052721,1630.37712133376
-0.16490974415275,1630.38712133376
-0.176476392691503,1630.39712133376
-0.188735189962696,1630.40712133376
-0.20101915988713,1630.41712133376
-0.213729211220159,1630.42712133376
-0.226256226733766,1630.43712133376
-0.239445211977634,1630.44712133376
-0.252148303789309,1630.45712133376
-0.264385834384252,1630.46712133376
-0.276044283319487,1630.47712133376
-0.287312302407868,1630.48712133376
-0.29789118831431,1630.49712133376
-0.308677367954184,1630.50712133376
-0.31857212974168,1630.51712133376
-0.328485951242139,1630.52712133376
-0.339128237141109,1630.53712133376
-0.349338715137299,1630.54712133376
-0.359722111283346,1630.55712133376
-0.370221299657635,1630.56712133376
-0.380933054463097,1630.57712133376
-0.391862578112818,1630.58712133376
-0.400793043083073,1630.59712133376
-0.404782068257603,1630.60712133376
-0.399599965396851,1630.61712133376
-0.380365695935867,1630.62712133376
-0.346163702675778,1630.63712133376
-0.298076674211782,1630.64712133376
-0.23984316092226,1630.65712133376
-0.176059629034494,1630.66712133376
-0.110219975677447,1630.67712133376
-0.0446822581084865,1630.68712133376
0.0173887191615741,1630.69712133376
0.0751603721887603,1630.70712133376
0.126467205333715,1630.71712133376
0.17072983100366,1630.72712133376
0.207083013114337,1630.73712133376
0.235098955962479,1630.74712133376
0.254145648686846,1630.75712133376
0.264462468014763,1630.76712133376
0.266954701140136,1630.77712133376
0.263930683808364,1630.78712133376
0.256236125747729,1630.79712133376
0.245608547161727,1630.80712133376
0.233308880478974,1630.81712133376
0.219599485869794,1630.82712133376
0.205913271295794,1630.83712133376
0.191935606037822,1630.84712133376
0.176919888177803,1630.85712133376
0.160399264450816,1630.86712133376
0.142953063872122,1630.87712133376
0.124572466278981,1630.88712133376
0.10649458956128,1630.89712133376
0.0885369950842353,1630.90712133376
0.0719623185051881,1630.91712133376
0.056658395193782,1630.92712133376
0.0441132017073108,1630.93712133376
0.0343655646990015,1630.94712133376
0.0276858099132233,1630.95712133376
0.0231973361006478,1630.96712133376
0.0213460836488753,1630.97712133376
0.0218926006134346,1630.98712133376
0.0232829991112769,1630.99712133376
0.0251385972915939,1631.00712133376
0.0268380469955532,1631.01712133376
0.027981235045396,1631.02712133376
0.0286021847138663,1631.03712133376
0.0275762569634418,1631.04712133376
0.0244010417757727,1631.05712133376
0.0190487429779415,1631.06712133376
0.0112805469361114,1631.07712133376
0.00255857312654451,1631.08712133376
-0.00744099494166136,1631.09712133376
-0.0181988760516276,1631.10712133376
-0.0294829798755696,1631.11712133376
-0.041514052123105,1631.12712133376
-0.0536365636403176,1631.13712133376
-0.0659554181776445,1631.14712133376
-0.0783754006305143,1631.15712133376
-0.0911309919180553,1631.16712133376
-0.103427560406509,1631.17712133376
-0.116259860714968,1631.18712133376
-0.128923666040142,1631.19712133376
-0.141129786072293,1631.20712133376
-0.15340567541084,1631.21712133376
-0.165065304863233,1631.22712133376
-0.176923411576797,1631.23712133376
-0.18913955100682,1631.24712133376
-0.201089507637307,1631.25712133376
-0.212835287927244,1631.26712133376
-0.224127919945912,1631.27712133376
-0.235172446515601,1631.28712133376
-0.246108257234189,1631.29712133376
-0.257282366055956,1631.30712133376
-0.268423415909218,1631.31712133376
-0.279501570011711,1631.32712133376
-0.290862322189641,1631.33712133376
-0.301342491669062,1631.34712133376
-0.311557729506233,1631.35712133376
-0.321356269293264,1631.36712133376
-0.330826330161627,1631.37712133376
-0.340057159127987,1631.38712133376
-0.349613556523919,1631.39712133376
-0.358868140013112,1631.40712133376
-0.368524150486077,1631.41712133376
-0.378277621528041,1631.42712133376
-0.387895071542452,1631.43712133376
-0.397728295036093,1631.44712133376
-0.404946828368869,1631.45712133376
-0.406455641278107,1631.46712133376
-0.397804019821648,1631.47712133376
-0.374754644866237,1631.48712133376
-0.33779216689598,1631.49712133376
-0.287928906076528,1631.50712133376
-0.228375650157854,1631.51712133376
-0.163618725237588,1631.52712133376
-0.0958685519915823,1631.53712133376
-0.0273583748528592,1631.54712133376
0.0392308940983075,1631.55712133376
0.10175849855248,1631.56712133376
0.158501107900687,1631.57712133376
0.207855500433014,1631.58712133376
0.248247293667113,1631.59712133376
0.27920438316177,1631.60712133376
0.300077685593876,1631.61712133376
0.31236017590566,1631.62712133376
0.317802250769009,1631.63712133376
0.316863223555209,1631.64712133376
0.311699461684226,1631.65712133376
0.303917365607971,1631.66712133376
0.294431531667468,1631.67712133376
0.284586512099045,1631.68712133376
0.274220505198852,1631.69712133376
0.263922607049374,1631.70712133376
0.253179574132127,1631.71712133376
0.241237189540104,1631.72712133376
0.22729740120988,1631.73712133376
0.211914870085908,1631.74712133376
0.194600703509486,1631.75712133376
0.176942525176847,1631.76712133376
0.159541038686515,1631.77712133376
0.143084866499509,1631.78712133376
0.128912651247717,1631.79712133376
0.117041397130264,1631.80712133376
0.108109807275408,1631.81712133376
0.101117333329764,1631.82712133376
0.0960226846050303,1631.83712133376
0.0929596102564155,1631.84712133376
0.0916913033663835,1631.85712133376
0.0918240356710533,1631.86712133376
0.093027306315022,1631.87712133376
0.0951586347069227,1631.88712133376
0.0976434276377286,1631.89712133376
0.0990809518739398,1631.90712133376
0.0985410842557442,1631.91712133376
0.0966543507857052,1631.92712133376
0.0926070317117346,1631.93712133376
0.0870774769622109,1631.94712133376
0.0802974288894054,1631.95712133376
0.0722605545118609,1631.96712133376
0.0627212419169478,1631.97712133376
0.0520387535257226,1631.98712133376
0.0407865988135806,1631.99712133376
0.029090664281325,1632.00712133376
0.0171789813123313,1632.01712133376
0.00474900211440703,1632.02712133376
-0.00758439526682866,1632.03712133376
-0.0207679208836123,1632.04712133376
-0.0334684017338766,1632.05712133376
-0.0460823727906735,1632.06712133376
-0.0581637676020036,1632.07712133376
-0.0693550814733873,1632.08712133376
-0.0803749195207013,1632.09712133376
-0.0909609358245235,1632.10712133376
-0.10116984119424,1632.11712133376
-0.111654943342866,1632.12712133376
-0.122860492448092,1632.13712133376
-0.134095082582357,1632.14712133376
-0.145823080624886,1632.15712133376
-0.157162170297513,1632.16712133376
-0.168849228317041,1632.17712133376
-0.180136988593681,1632.18712133376
-0.191230470166604,1632.19712133376
-0.202071128770054,1632.20712133376
-0.212839208587749,1632.21712133376
-0.223683033878957,1632.22712133376
-0.234457060020682,1632.23712133376
-0.245410143740887,1632.24712133376
-0.256765679469306,1632.25712133376
-0.268147419827655,1632.26712133376
-0.279999009691149,1632.27712133376
-0.29137589971655,1632.28712133376
-0.302347748571125,1632.29712133376
-0.312774386718803,1632.30712133376
-0.322376151921356,1632.31712133376
-0.332256049738037,1632.32712133376
-0.342049823248395,1632.33712133376
-0.352297447278706,1632.34712133376
-0.362477246250565,1632.35712133376
-0.372837941154498,1632.36712133376
-0.382354440382377,1632.37712133376
-0.389915555534988,1632.38712133376
-0.392145247544236,1632.39712133376
-0.383687251988798,1632.40712133376
-0.361856360556873,1632.41712133376
-0.324438329917997,1632.42712133376
-0.272427241466329,1632.43712133376
-0.210278343861249,1632.44712133376
-0.141262282597193,1632.45712133376
-0.0682389934639287,1632.46712133376
0.00453603172444071,1632.47712133376
0.0748328081188627,1632.48712133376
0.140464272384107,1632.49712133376
0.200208115939254,1632.50712133376
0.251254902850153,1632.51712133376
0.292389745777246,1632.52712133376
0.323708695046011,1632.53712133376
0.344863574429934,1632.54712133376
0.357195663567987,1632.55712133376
0.361987800569797,1632.56712133376
0.360909937375423,1632.57712133376
0.355402429608765,1632.58712133376
0.347275659148164,1632.59712133376
0.337055049231915,1632.60712133376
0.326196389701076,1632.61712133376
0.314768778776234,1632.62712133376
0.303467613081848,1632.63712133376
0.291591710287747,1632.64712133376
0.278848914266329,1632.65712133376
0.265380818785865,1632.66712133376
0.250655964284467,1632.67712133376
0.23434367235387,1632.68712133376
0.216535272318791,1632.69712133376
0.197817823971502,1632.70712133376
0.179523335019109,1632.71712133376
0.16222452297858,1632.72712133376
0.146810712603139,1632.73712133376
0.134634578167155,1632.74712133376
0.125636229783992,1632.75712133376
0.119302176761817,1632.76712133376
0.114841715330637,1632.77712133376
0.112261319596967,1632.78712133376
0.110830427489735,1632.79712133376
0.1098685864375,1632.80712133376
0.109902458294051,1632.81712133376
0.109927956023819,1632.82712133376
0.109391453360367,1632.83712133376
0.108272604017651,1632.84712133376
0.105711241089249,1632.85712133376
0.102112897667034,1632.86712133376
0.0965760865203306,1632.87712133376
0.0895669195786061,1632.88712133376
0.0807951596108647,1632.89712133376
0.0708144013581766,1632.90712133376
0.0598752378234848,1632.91712133376
0.0485524833438007,1632.92712133376
0.0368156778445776,1632.93712133376
0.0254676704783535,1632.94712133376
0.0140520457635532,1632.95712133376
0.00227191460037536,1632.96712133376
-0.00972819225429544,1632.97712133376
-0.0216983961866097,1632.98712133376
-0.034412850042265,1632.99712133376
-0.0473229735398021,1633.00712133376
-0.0601483271821874,1633.01712133376
-0.0723993033000461,1633.02712133376
-0.0846536032388284,1633.03712133376
-0.0971676685307043,1633.04712133376
-0.109149552192315,1633.05712133376
-0.120783482142874,1633.06712133376
-0.132696391132363,1633.07712133376
-0.144438242549717,1633.08712133376
-0.15638957496504,1633.09712133376
-0.16821426723565,1633.10712133376
-0.179802849490616,1633.11712133376
-0.191637496279299,1633.12712133376
-0.203679562210501,1633.13712133376
-0.215618248851681,1633.14712133376
-0.22758748234566,1633.15712133376
-0.239317547948401,1633.16712133376
-0.250584732066536,1633.17712133376
-0.261821187338069,1633.18712133376
-0.273249271516508,1633.19712133376
-0.28491345609077,1633.20712133376
-0.296567160071758,1633.21712133376
-0.307467142098592,1633.22712133376
-0.318009035893343,1633.23712133376
-0.328242341646912,1633.24712133376
-0.338291676572715,1633.25712133376
-0.348614783099812,1633.26712133376
-0.358536504282366,1633.27712133376
-0.368563346052381,1633.28712133376
-0.377112738304392,1633.29712133376
-0.380291122237912,1633.30712133376
-0.373745614734776,1633.31712133376
-0.353161701813578,1633.32712133376
-0.317349251054688,1633.33712133376
-0.266819682424246,1633.34712133376
-0.206394067311446,1633.35712133376
-0.139968923644202,1633.36712133376
-0.0718431755486095,1633.37712133376
-0.00490384393929119,1633.38712133376
0.0591970225523232,1633.39712133376
0.118715919867795,1633.40712133376
0.172636933327791,1633.41712133376
0.219082309098467,1633.42712133376
0.25715055119249,1633.43712133376
0.285869310306179,1633.44712133376
0.305327066593824,1633.45712133376
0.316077240107082,1633.46712133376
0.318553792132188,1633.47712133376
0.314868432271622,1633.48712133376
0.306314283350116,1633.49712133376
0.294911564878038,1633.50712133376
0.282215436457792,1633.51712133376
0.268889954867879,1633.52712133376
0.255610093521902,1633.53712133376
0.241395018745066,1633.54712133376
0.226284517171671,1633.55712133376
0.210388899310292,1633.56712133376
0.193545063967753,1633.57712133376
0.175580640492283,1633.58712133376
0.156508884799994,1633.59712133376
0.137303525972264,1633.60712133376
0.118610173283042,1633.61712133376
0.102138167151058,1633.62712133376
0.0887208145429409,1633.63712133376
0.0790071285281805,1633.64712133376
0.0730432663011822,1633.65712133376
0.0698445068968051,1633.66712133376
0.0689597324397604,1633.67712133376
0.0701313123140281,1633.68712133376
0.0722002154733418,1633.69712133376
0.0756514741493298,1633.70712133376
0.079707774314787,1633.71712133376
0.0829433955758997,1633.72712133376
0.0847744794017943,1633.73712133376
0.0850840546486838,1633.74712133376
0.0836033298482366,1633.75712133376
0.0799691791108788,1633.76712133376
0.0742472670280767,1633.77712133376
0.0670003784417082,1633.78712133376
0.0586639061722342,1633.79712133376
0.0491062071932823,1633.80712133376
0.0386358648476047,1633.81712133376
0.0275380094330174,1633.82712133376
0.0152620253402443,1633.83712133376
0.00265911985009153,1633.84712133376
-0.00995497989350712,1633.85712133376
-0.0222934371437138,1633.86712133376
-0.0347677582824941,1633.87712133376
-0.0467191736679825,1633.88712133376
-0.0582517173219307,1633.89712133376
-0.069799216763326,1633.90712133376
-0.0806441946157869,1633.91712133376
-0.0919771485516883,1633.92712133376
-0.102647372552423,1633.93712133376
-0.113405950454552,1633.94712133376
-0.124153169785263,1633.95712133376
-0.134610107329825,1633.96712133376
-0.144580448314381,1633.97712133376
-0.154417644647151,1633.98712133376
-0.164395259211382,1633.99712133376
-0.174753147218942,1634.00712133376
-0.184809576952545,1634.01712133376
-0.194863671802814,1634.02712133376
-0.204937563394635,1634.03712133376
-0.214421721055624,1634.04712133376
-0.223683920739232,1634.05712133376
-0.232689309063084,1634.06712133376
-0.241903317725171,1634.07712133376
-0.250855864025015,1634.08712133376
-0.258469887711577,1634.09712133376
-0.261887900629675,1634.10712133376
-0.257068363602933,1634.11712133376
-0.239555120138689,1634.12712133376
-0.206730701336573,1634.13712133376
-0.159836781444493,1634.14712133376
-0.101975432121413,1634.15712133376
-0.037287009525917,1634.16712133376
0.0298012658022712,1634.17712133376
0.0974037684807471,1634.18712133376
0.162622140624505,1634.19712133376
0.22421141506808,1634.20712133376
0.279178010586826,1634.21712133376
0.326221199420913,1634.22712133376
0.363887406403695,1634.23712133376
0.391967627217886,1634.24712133376
0.410036903325185,1634.25712133376
0.419733348778984,1634.26712133376
0.421390589822327,1634.27712133376
0.416890693525786,1634.28712133376
0.40761495769832,1634.29712133376
0.395394379129289,1634.30712133376
0.381001729361509,1634.31712133376
0.365912663319004,1634.32712133376
0.351010229410684,1634.33712133376
0.336241622154792,1634.34712133376
0.320715286896531,1634.35712133376
0.304265282405892,1634.36712133376
0.286390566620603,1634.37712133376
0.267359370150947,1634.38712133376
0.247875441406758,1634.39712133376
0.228039262978486,1634.40712133376
0.2099037845622,1634.41712133376
0.193975577131859,1634.42712133376
0.180433051553746,1634.43712133376
0.169530770127987,1634.44712133376
0.161655092229454,1634.45712133376
0.156761949811602,1634.46712133376
0.154427638412081,1634.47712133376
0.154089646983536,1634.48712133376
0.155882442765704,1634.49712133376
0.158364025511521,1634.50712133376
0.160538105140286,1634.51712133376
0.162231788336195,1634.52712133376
0.162481948281087,1634.53712133376
0.161460193179047,1634.54712133376
0.158160940088609,1634.55712133376
0.153093967602511,1634.56712133376
0.146669931798071,1634.57712133376
0.138342202663738,1634.58712133376
0.129041888612949,1634.59712133376
0.118581218455003,1634.60712133376
0.107390320059723,1634.61712133376
0.0953716039654736,1634.62712133376
0.0831633402446771,1634.63712133376
0.0715563502023511,1634.64712133376
0.0591595330455778,1634.65712133376
0.0465920471183565,1634.66712133376
0.0333800163183033,1634.67712133376
0.0205023355944533,1634.68712133376
0.00761586099883297,1634.69712133376
-0.00448879838830488,1634.70712133376
-0.0162378634833623,1634.71712133376
-0.0274870743464371,1634.72712133376
-0.039082714563014,1634.73712133376
-0.0504763649078054,1634.74712133376
-0.0620293197396622,1634.75712133376
-0.0743201576872911,1634.76712133376
-0.0868808340231682,1634.77712133376
-0.0999102817684652,1634.78712133376
-0.111920121867204,1634.79712133376
-0.123359496890251,1634.80712133376
-0.133960252611922,1634.81712133376
-0.143582453857214,1634.82712133376
-0.152784823344353,1634.83712133376
-0.162225797369279,1634.84712133376
-0.172322340904985,1634.85712133376
-0.182924967921971,1634.86712133376
-0.193738478892076,1634.87712133376
-0.204977474755724,1634.88712133376
-0.216087654085717,1634.89712133376
-0.227389096289053,1634.90712133376
-0.238413491287059,1634.91712133376
-0.246803566707766,1634.92712133376
-0.248666932701389,1634.93712133376
-0.239069013612115,1634.94712133376
-0.214198316137563,1634.95712133376
-0.172977627029665,1634.96712133376
-0.117085948913587,1634.97712133376
-0.050267218065188,1634.98712133376
0.0237185701311277,1634.99712133376
0.100757348529532,1635.00712133376
0.178448772261101,1635.01712133376
0.253486558608547,1635.02712133376
0.323446212923329,1635.03712133376
0.38590169290015,1635.04712133376
0.437793980379995,1635.05712133376
0.478993756145125,1635.06712133376
0.508921197098345,1635.07712133376
0.529090562874826,1635.08712133376
0.540137956263926,1635.09712133376
0.544343488029513,1635.10712133376
0.54320486849862,1635.11712133376
0.537982277923454,1635.12712133376
0.529654812571523,1635.13712133376
0.519574483001516,1635.14712133376
0.508173830957662,1635.15712133376
0.496801216751174,1635.16712133376
0.485116730437752,1635.17712133376
0.473603101975381,1635.18712133376
0.461352151548749,1635.19712133376
0.447129562837979,1635.20712133376
0.430706569933476,1635.21712133376
0.412021330692655,1635.22712133376
0.392388953145904,1635.23712133376
0.372729434290119,1635.24712133376
0.354443872682806,1635.25712133376
0.338379445862779,1635.26712133376
0.325068524086133,1635.27712133376
0.314647293546996,1635.28712133376
0.307033349117342,1635.29712133376
0.302150938794098,1635.30712133376
0.299739741776965,1635.31712133376
0.299597584658053,1635.32712133376
0.300454439045817,1635.33712133376
0.302977653930253,1635.34712133376
0.304835294202695,1635.35712133376
0.306766682264531,1635.36712133376
0.307594807613977,1635.37712133376
0.306267482276544,1635.38712133376
0.303573840066694,1635.39712133376
0.298854474834246,1635.40712133376
0.292545454522294,1635.41712133376
0.284432071406941,1635.42712133376
0.274616983953202,1635.43712133376
0.263474035212938,1635.44712133376
0.251582223770479,1635.45712133376
0.238749432081997,1635.46712133376
0.22506718394061,1635.47712133376
0.211003211267649,1635.48712133376
0.19686405591602,1635.49712133376
0.182415263197186,1635.50712133376
0.167899742835764,1635.51712133376
0.153451577125883,1635.52712133376
0.138817845645541,1635.53712133376
0.124607408514337,1635.54712133376
0.110452343584014,1635.55712133376
0.0967753935404838,1635.56712133376
0.0836203936182549,1635.57712133376
0.0703668896887981,1635.58712133376
0.0574529330700822,1635.59712133376
0.0442786924374987,1635.60712133376
0.0312622374237204,1635.61712133376
0.0178462095587051,1635.62712133376
0.00406679522513147,1635.63712133376
-0.00908451515392902,1635.64712133376
-0.0225535917887556,1635.65712133376
-0.0355823173725912,1635.66712133376
-0.0488080537148105,1635.67712133376
-0.0624645924290756,1635.68712133376
-0.0757758454120807,1635.69712133376
-0.0890825456772657,1635.70712133376
-0.101907700160489,1635.71712133376
-0.114229783519631,1635.72712133376
-0.126467564719415,1635.73712133376
-0.138434698111581,1635.74712133376
-0.149575234364062,1635.75712133376
-0.16017355610782,1635.76712133376
-0.170350205557334,1635.77712133376
-0.181132013283869,1635.78712133376
-0.192709198591951,1635.79712133376
-0.204592703994678,1635.80712133376
-0.216103727356627,1635.81712133376
-0.225539799473467,1635.82712133376
-0.229900314263272,1635.83712133376
-0.22465884340844,1635.84712133376
-0.205431396331125,1635.85712133376
-0.170622540519413,1635.86712133376
-0.12112106823361,1635.87712133376
-0.0598481322824531,1635.88712133376
0.00887960707092366,1635.89712133376
0.0823007519572172,1635.90712133376
0.157390064112524,1635.91712133376
0.231449268209427,1635.92712133376
0.301206545911461,1635.93712133376
0.363991711973232,1635.94712133376
0.417352610942658,1635.95712133376
0.459980058354906,1635.96712133376
0.491666079500647,1635.97712133376
0.512745808945431,1635.98712133376
0.524843941773609,1635.99712133376
0.52936599214744,1636.00712133376
0.527825944282126,1636.01712133376
0.522351013737742,1636.02712133376
0.513968416305291,1636.03712133376
0.50415688481132,1636.04712133376
0.493124874676185,1636.05712133376
0.481763649371837,1636.06712133376
0.470316971375126,1636.07712133376
0.459048892250402,1636.08712133376
0.446944282759045,1636.09712133376
0.434043469505741,1636.10712133376
0.41926829622591,1636.11712133376
0.402758341005382,1636.12712133376
0.384379599393456,1636.13712133376
0.365016615918336,1636.14712133376
0.346335763953331,1636.15712133376
0.329132683715822,1636.16712133376
0.314046547328075,1636.17712133376
0.301545192272312,1636.18712133376
0.292213288379777,1636.19712133376
0.285345086988638,1636.20712133376
0.280942068731178,1636.21712133376
0.278441672517353,1636.22712133376
0.276935324240389,1636.23712133376
0.276300312211103,1636.24712133376
0.275581218547494,1636.25712133376
0.274774774875084,1636.26712133376
0.272997210946826,1636.27712133376
0.270072653850475,1636.28712133376
0.265760573551411,1636.29712133376
0.259016021391411,1636.30712133376
0.250139859569345,1636.31712133376
0.239693093430355,1636.32712133376
0.227997986450322,1636.33712133376
0.215519169485829,1636.34712133376
0.202684038195957,1636.35712133376
0.189396521556611,1636.36712133376
0.175698099654096,1636.37712133376
0.161234535936777,1636.38712133376
0.145967756894527,1636.39712133376
0.129994002271745,1636.40712133376
0.114035878878224,1636.41712133376
0.098887763776804,1636.42712133376
0.0842112785998458,1636.43712133376
0.0697083919814023,1636.44712133376
0.0552120894522117,1636.45712133376
0.0408522952852712,1636.46712133376
0.0264079205773855,1636.47712133376
0.0120468987873637,1636.48712133376
-0.00271380441501557,1636.49712133376
-0.01743333586188,1636.50712133376
-0.0314949716188692,1636.51712133376
-0.0455254813299855,1636.52712133376
-0.0586905074949315,1636.53712133376
-0.0720777326598811,1636.54712133376
-0.0857284402839109,1636.55712133376
-0.09945949338747,1636.56712133376
-0.113271147488319,1636.57712133376
-0.127513511393088,1636.58712133376
-0.141411575990074,1636.59712133376
-0.154859796816884,1636.60712133376
-0.16841361079503,1636.61712133376
-0.181471427313971,1636.62712133376
-0.194084896383555,1636.63712133376
-0.206675306819798,1636.64712133376
-0.219106645723565,1636.65712133376
-0.231217168296494,1636.66712133376
-0.24300567227195,1636.67712133376
-0.25426100587888,1636.68712133376
-0.265017218557518,1636.69712133376
-0.275593162691402,1636.70712133376
-0.286298760633747,1636.71712133376
-0.297557107289249,1636.72712133376
-0.308786862037991,1636.73712133376
-0.319398981403165,1636.74712133376
-0.327849340835132,1636.75712133376
-0.330185828329703,1636.76712133376
-0.321823307823614,1636.77712133376
-0.299850206912797,1636.78712133376
-0.264659878349967,1636.79712133376
-0.21833959907016,1636.80712133376
-0.165465179891238,1636.81712133376
-0.109433648519721,1636.82712133376
-0.0529786037583595,1636.83712133376
0.00167301814226846,1636.84712133376
0.0523366609558195,1636.85712133376
0.0984260884988288,1636.86712133376
0.138384247810996,1636.87712133376
0.170583591299974,1636.88712133376
0.195053970064331,1636.89712133376
0.211198552926126,1636.90712133376
0.219471844933259,1636.91712133376
0.221305327095581,1636.92712133376
0.216791883299007,1636.93712133376
0.208297036825853,1636.94712133376
0.197089180957001,1636.95712133376
0.184346612114742,1636.96712133376
0.171687953573326,1636.97712133376
0.159465287173628,1636.98712133376
0.147988816083866,1636.99712133376
0.136863995343803,1637.00712133376
0.126176429437291,1637.01712133376
0.11498946167683,1637.02712133376
0.102728933525146,1637.03712133376
0.0886183925294485,1637.04712133376
0.0731492514130107,1637.05712133376
0.056490695881942,1637.06712133376
0.0407515974929749,1637.07712133376
0.0261812862979643,1637.08712133376
0.0136982037907388,1637.09712133376
0.00362582677178573,1637.10712133376
-0.00404485620040723,1637.11712133376
-0.0096201703761087,1637.12712133376
-0.0132701582034375,1637.13712133376
-0.0148540182605532,1637.14712133376
-0.0154393455957846,1637.15712133376
-0.0154169548282199,1637.16712133376
-0.0152635469293051,1637.17712133376
-0.0163033661846875,1637.18712133376
-0.0181756685187758,1637.19712133376
-0.0215891421115756,1637.20712133376
-0.0262873353718135,1637.21712133376
-0.0322243407515664,1637.22712133376
-0.0397165386530834,1637.23712133376
-0.0478211841237693,1637.24712133376
-0.05701841959793,1637.25712133376
-0.065798656019476,1637.26712133376
-0.0744614790535769,1637.27712133376
-0.0829460567757353,1637.28712133376
-0.0916124659091926,1637.29712133376
-0.100967566693118,1637.30712133376
-0.111418488754196,1637.31712133376
-0.122620993684439,1637.32712133376
-0.13457085684939,1637.33712133376
-0.14677151245436,1637.34712133376
-0.158697956789917,1637.35712133376
-0.170671389441667,1637.36712133376
-0.182609716063232,1637.37712133376
-0.193654469936102,1637.38712133376
-0.203858384644986,1637.39712133376
-0.213483411861147,1637.40712133376
-0.222537667276619,1637.41712133376
-0.231389475322677,1637.42712133376
-0.240576446726662,1637.43712133376
-0.249947524685761,1637.44712133376
-0.259125072321909,1637.45712133376
-0.268623302599697,1637.46712133376
-0.277846688940068,1637.47712133376
-0.286882077515047,1637.48712133376
-0.296400227193262,1637.49712133376
-0.305842143697753,1637.50712133376
-0.31574844984684,1637.51712133376
-0.325076561820016,1637.52712133376
-0.334059205372739,1637.53712133376
-0.343210409765941,1637.54712133376
-0.352107902011547,1637.55712133376
-0.360656972685303,1637.56712133376
-0.369342317264595,1637.57712133376
-0.377446627558829,1637.58712133376
-0.385509555951674,1637.59712133376
-0.391882099884892,1637.60712133376
-0.393648876474068,1637.61712133376
-0.387828883729128,1637.62712133376
-0.371792154853241,1637.63712133376
-0.344957839244232,1637.64712133376
-0.308473928347552,1637.65712133376
-0.264920241020231,1637.66712133376
-0.216395270858367,1637.67712133376
-0.166673804526427,1637.68712133376
-0.118007275632585,1637.69712133376
-0.0716281569755025,1637.70712133376
-0.0296714495763488,1637.71712133376
0.00637210599353633,1637.72712133376
0.035771377618731,1637.73712133376
0.0582898063244538,1637.74712133376
0.0727669106052709,1637.75712133376
0.0801165728942162,1637.76712133376
0.0817805700835065,1637.77712133376
0.0788494132355441,1637.78712133376
0.0726885618325216,1637.79712133376
0.0646540800161351,1637.80712133376
0.0556665801050925,1637.81712133376
0.0465113181953072,1637.82712133376
0.0376047802860805,1637.83712133376
0.0290900206068167,1637.84712133376
0.0204333836445991,1637.85712133376
0.0116252387203933,1637.86712133376
0.00240936171666442,1637.87712133376
-0.00757780194849004,1637.88712133376
-0.0184184430209482,1637.89712133376
-0.0296681268404577,1637.90712133376
-0.0412425936695501,1637.91712133376
-0.0524178379852691,1637.92712133376
-0.0617490349756828,1637.93712133376
-0.0686328522838636,1637.94712133376
-0.0730030777092919,1637.95712133376
-0.0750994891400928,1637.96712133376
-0.0753036942475802,1637.97712133376
-0.0734131858353923,1637.98712133376
-0.0703776922471934,1637.99712133376
-0.066281561200339,1638.00712133376
-0.0623112978748855,1638.01712133376
-0.0589384960195967,1638.02712133376
-0.0566186722913736,1638.03712133376
-0.0558936733580947,1638.04712133376
-0.0559296433559241,1638.05712133376
-0.0577237249383285,1638.06712133376
-0.0614824203807884,1638.07712133376
-0.066114514982501,1638.08712133376
-0.0715593376435327,1638.09712133376
-0.0775995043018068,1638.10712133376
-0.0844637836305819,1638.11712133376
-0.0916233549991142,1638.12712133376
-0.0993948668437992,1638.13712133376
-0.107801241613257,1638.14712133376
-0.116497335830343,1638.15712133376
-0.125624476359421,1638.16712133376
-0.134775518149566,1638.17712133376
-0.144190218401753,1638.18712133376
-0.15329185736904,1638.19712133376
-0.162015002039402,1638.20712133376
-0.170406965942687,1638.21712133376
-0.177718719222953,1638.22712133376
-0.184760568521338,1638.23712133376
-0.191391872115949,1638.24712133376
-0.197441716183315,1638.25712133376
-0.203197715986274,1638.26712133376
-0.209550470889848,1638.27712133376
-0.216618087295986,1638.28712133376
-0.22425644652138,1638.29712133376
-0.231979486923698,1638.30712133376
-0.240422940149439,1638.31712133376
-0.248410829634812,1638.32712133376
-0.256912888127769,1638.33712133376
-0.265389313093438,1638.34712133376
-0.273203933421826,1638.35712133376
-0.280883577455723,1638.36712133376
-0.287662098295894,1638.37712133376
-0.294885263718661,1638.38712133376
-0.302112245504018,1638.39712133376
-0.308969094378807,1638.40712133376
-0.315763920272789,1638.41712133376
-0.32243620969608,1638.42712133376
-0.328858847916097,1638.43712133376
-0.33559152224006,1638.44712133376
-0.342186594152288,1638.45712133376
-0.348242949540922,1638.46712133376
-0.351990560280761,1638.47712133376
-0.350358931894832,1638.48712133376
-0.340440316719352,1638.49712133376
-0.320310608096007,1638.50712133376
-0.290209866939183,1638.51712133376
-0.25148146608264,1638.52712133376
-0.206576764291546,1638.53712133376
-0.15781431816313,1638.54712133376
-0.108098623763049,1638.55712133376
-0.0593488305524088,1638.56712133376
-0.0135365705291362,1638.57712133376
0.0274585955974364,1638.58712133376
0.062513861900307,1638.59712133376
0.0907734354275828,1638.60712133376
0.11198871013325,1638.61712133376
0.126674918436948,1638.62712133376
0.134524449875275,1638.63712133376
0.13719296664977,1638.64712133376
0.135956320832477,1638.65712133376
0.132491183381891,1638.66712133376
0.12754511728926,1638.67712133376
0.122515301670703,1638.68712133376
0.117375387505769,1638.69712133376
0.112470797386182,1638.70712133376
0.10800890201904,1638.71712133376
0.103122909441272,1638.72712133376
0.0982086182497042,1638.73712133376
0.0925538663429093,1638.74712133376
0.0852771147057591,1638.75712133376
0.0770362051331502,1638.76712133376
0.0676786097155287,1638.77712133376
0.0576078059647443,1638.78712133376
0.0476422939634813,1638.79712133376
0.0387308349267856,1638.80712133376
0.0313994743723591,1638.81712133376
0.0258133028830126,1638.82712133376
0.0225494845292539,1638.83712133376
0.0204819838679254,1638.84712133376
0.0196554966606995,1638.85712133376
0.0199802156441722,1638.86712133376
0.0221864577649744,1638.87712133376
0.0250896810655816,1638.88712133376
0.0281537910401213,1638.89712133376
0.0304487833947499,1638.90712133376
0.0317766091009863,1638.91712133376
0.0316609662332386,1638.92712133376
0.0303001210588759,1638.93712133376
0.0279135280801815,1638.94712133376
0.0244490909978293,1638.95712133376
0.0200231158353774,1638.96712133376
0.0142124188786084,1638.97712133376
0.00776421603332554,1638.98712133376
0.00024213768278048,1638.99712133376
-0.00737595240417981,1639.00712133376
-0.0157897223073933,1639.01712133376
-0.0244652452698795,1639.02712133376
-0.0336758425585867,1639.03712133376
-0.0436383390981036,1639.04712133376
-0.0536945948435405,1639.05712133376
-0.0633331846420222,1639.06712133376
-0.0727333784816971,1639.07712133376
-0.0821167707007289,1639.08712133376
-0.0906308185608603,1639.09712133376
-0.098693084989366,1639.10712133376
-0.106490674083287,1639.11712133376
-0.11408371137409,1639.12712133376
-0.121572620818671,1639.13712133376
-0.129115476634212,1639.14712133376
-0.136362817101661,1639.15712133376
-0.14340621326806,1639.16712133376
-0.149983852381371,1639.17712133376
-0.156780052014162,1639.18712133376
-0.163494920047244,1639.19712133376
-0.170517403876826,1639.20712133376
-0.177810834850347,1639.21712133376
-0.184996900213797,1639.22712133376
-0.192619861131827,1639.23712133376
-0.200566643275987,1639.24712133376
-0.209060873359456,1639.25712133376
-0.217162543108734,1639.26712133376
-0.225502860040541,1639.27712133376
-0.233643930533894,1639.28712133376
-0.24085342521357,1639.29712133376
-0.247831820424643,1639.30712133376
-0.254853936601087,1639.31712133376
-0.261357598354144,1639.32712133376
-0.26818502360144,1639.33712133376
-0.275594536530007,1639.34712133376
-0.282933929155409,1639.35712133376
-0.29027839446511,1639.36712133376
-0.297662640470365,1639.37712133376
-0.304943115067508,1639.38712133376
-0.311428729937624,1639.39712133376
-0.316398154034037,1639.40712133376
-0.318445998799359,1639.41712133376
-0.314407812486024,1639.42712133376
-0.301360611906467,1639.43712133376
-0.278039820293621,1639.44712133376
-0.244463918252222,1639.45712133376
-0.203766470274363,1639.46712133376
-0.157389736581047,1639.47712133376
-0.108037007857255,1639.48712133376
-0.0579277290944708,1639.49712133376
-0.00961078718334075,1639.50712133376
0.0345009518964405,1639.51712133376
0.0729415246085237,1639.52712133376
0.104247447860001,1639.53712133376
0.128531090699347,1639.54712133376
0.145280118977144,1639.55712133376
0.155329544938625,1639.56712133376
0.160258883381613,1639.57712133376
0.161430703897834,1639.58712133376
0.15921095017084,1639.59712133376
0.155258211023241,1639.60712133376
0.149752897863473,1639.61712133376
0.143719032242856,1639.62712133376
0.137493369797027,1639.63712133376
0.132123720223284,1639.64712133376
0.127603483558536,1639.65712133376
0.123626538857082,1639.66712133376
0.119444462806801,1639.67712133376
0.114052524070915,1639.68712133376
0.107512620579248,1639.69712133376
0.099688228065029,1639.70712133376
0.0903210473505179,1639.71712133376
0.0809540612356059,1639.72712133376
0.0717369208120498,1639.73712133376
0.0636205057372208,1639.74712133376
0.056953642688569,1639.75712133376
0.052129436760407,1639.76712133376
0.0487321725740318,1639.77712133376
0.0469608377341673,1639.78712133376
0.0462587513862723,1639.79712133376
0.0466810749384855,1639.80712133376
0.0483138291347787,1639.81712133376
0.0505862966736076,1639.82712133376
0.0526634540126507,1639.83712133376
0.0535166679229988,1639.84712133376
0.0539969138977888,1639.85712133376
0.0526659221730309,1639.86712133376
0.0501483188765996,1639.87712133376
0.0465331923795433,1639.88712133376
0.0416228431203923,1639.89712133376
0.0362907945812993,1639.90712133376
0.0305095011428817,1639.91712133376
0.0239082093053006,1639.92712133376
0.0162458232001348,1639.93712133376
0.00801650834360234,1639.94712133376
-0.00164662053512004,1639.95712133376
-0.0118470176904332,1639.96712133376
-0.0224912339783103,1639.97712133376
-0.032441381332696,1639.98712133376
-0.0424976886244401,1639.99712133376
-0.0516072076926226,1640.00712133376
-0.0604722102681454,1640.01712133376
-0.0690439419507179,1640.02712133376
-0.0774012683189406,1640.03712133376
-0.0860709306046109,1640.04712133376
-0.0944933459407339,1640.05712133376
-0.103129461087357,1640.06712133376
-0.111744940356219,1640.07712133376
-0.120595840030287,1640.08712133376
-0.129124931415033,1640.09712133376
-0.137450421453085,1640.10712133376
-0.146292218156214,1640.11712133376
-0.155076825758574,1640.12712133376
-0.163471508138477,1640.13712133376
-0.171720023625651,1640.14712133376
-0.179417635693238,1640.15712133376
-0.187388813363593,1640.16712133376
-0.195300319396542,1640.17712133376
-0.203470634730569,1640.18712133376
-0.21179038595102,1640.19712133376
-0.219792181792526,1640.20712133376
-0.227746261380952,1640.21712133376
-0.236173035384594,1640.22712133376
-0.244843354542182,1640.23712133376
-0.253415904211545,1640.24712133376
-0.261772393191051,1640.25712133376
-0.270279560822575,1640.26712133376
-0.278709276512251,1640.27712133376
-0.287487614575829,1640.28712133376
-0.295742712170043,1640.29712133376
-0.30346873172259,1640.30712133376
-0.308874715078645,1640.31712133376
-0.310400270307595,1640.32712133376
-0.303893334525257,1640.33712133376
-0.287482538513727,1640.34712133376
-0.261476310601471,1640.35712133376
-0.226410241557441,1640.36712133376
-0.185476928768189,1640.37712133376
-0.141208545626592,1640.38712133376
-0.0949751838471501,1640.39712133376
-0.049654183598263,1640.40712133376
-0.00653914934262447,1640.41712133376
0.032772880395555,1640.42712133376
0.0669826476316073,1640.43712133376
0.0946640341336599,1640.44712133376
0.116103080260344,1640.45712133376
0.129942842078147,1640.46712133376
0.137341821379126,1640.47712133376
0.139095376650801,1640.48712133376
0.136382250171632,1640.49712133376
0.13122079293341,1640.50712133376
0.124138572715468,1640.51712133376
0.11646795163641,1640.52712133376
0.109137910217889,1640.53712133376
0.101913446529931,1640.54712133376
0.094637544466854,1640.55712133376
0.0873045814116739,1640.56712133376
0.0790348129174973,1640.57712133376
0.0704581424555177,1640.58712133376
0.0612161637769888,1640.59712133376
0.0514237388696886,1640.60712133376
0.0410731046852299,1640.61712133376
0.0310125535155381,1640.62712133376
0.0215797666025656,1640.63712133376
0.0131007681747521,1640.64712133376
0.00640428537699092,1640.65712133376
0.00154806004485559,1640.66712133376
-0.000839999076342635,1640.67712133376
-0.00143647235973226,1640.68712133376
-0.000204615143565167,1640.69712133376
0.0026148816384028,1640.70712133376
0.0059986201988393,1640.71712133376
0.00989851177312635,1640.72712133376
0.0134343414786826,1640.73712133376
0.0157013669515078,1640.74712133376
0.0168266931359984,1640.75712133376
0.0169212344899435,1640.76712133376
0.0155312819992342,1640.77712133376
0.0130635606496439,1640.78712133376
0.00916840063580985,1640.79712133376
0.00384190530901262,1640.80712133376
-0.00239793230272074,1640.81712133376
-0.00988251467028463,1640.82712133376
-0.0179574023582027,1640.83712133376
-0.0266782451910589,1640.84712133376
-0.0358592599344131,1640.85712133376
-0.0452651260668569,1640.86712133376
-0.0546689170139099,1640.87712133376
-0.0638187615792763,1640.88712133376
-0.0727670604621695,1640.89712133376
-0.0821064953500521,1640.90712133376
-0.0905453251439873,1640.91712133376
-0.0980803391662122,1640.92712133376
-0.105319080808497,1640.93712133376
-0.111814960217527,1640.94712133376
-0.118553113292672,1640.95712133376
-0.125978287913958,1640.96712133376
-0.13362652135087,1640.97712133376
-0.141425325725962,1640.98712133376
-0.148950838570414,1640.99712133376
-0.156403869214049,1641.00712133376
-0.163129472817146,1641.01712133376
-0.170121566896482,1641.02712133376
-0.176554070773065,1641.03712133376
-0.182548339575942,1641.04712133376
-0.188798730475234,1641.05712133376
-0.194504246254192,1641.06712133376
-0.200785867420096,1641.07712133376
-0.206946612977266,1641.08712133376
-0.213013687708655,1641.09712133376
-0.219774521511021,1641.10712133376
-0.226396396994359,1641.11712133376
-0.232996173624679,1641.12712133376
-0.239305658823933,1641.13712133376
-0.242913872304195,1641.14712133376
-0.241764909620234,1641.15712133376
-0.232266669285418,1641.16712133376
-0.212675120045696,1641.17712133376
-0.183121134706599,1641.18712133376
-0.145492029879041,1641.19712133376
-0.101752398163498,1641.20712133376
-0.0545411628765288,1641.21712133376
-0.005762397964907,1641.22712133376
0.0432574668636063,1641.23712133376
0.0899259029357256,1641.24712133376
0.132620227753793,1641.25712133376
0.169770087606429,1641.26712133376
0.200122285876939,1641.27712133376
0.22293928164073,1641.28712133376
0.238915832915142,1641.29712133376
0.248067128817157,1641.30712133376
0.252066431062484,1641.31712133376
0.25256773839522,1641.32712133376
0.250271016016259,1641.33712133376
0.246260351790607,1641.34712133376
0.241308902670338,1641.35712133376
0.236015939183491,1641.36712133376
0.230784171706944,1641.37712133376
0.225195159012342,1641.38712133376
0.219504713996465,1641.39712133376
0.212640689087172,1641.40712133376
0.204628254473898,1641.41712133376
0.195667583466881,1641.42712133376
0.185875348981424,1641.43712133376
0.175832467692381,1641.44712133376
0.165589389680315,1641.45712133376
0.156616420691509,1641.46712133376
0.149009788688437,1641.47712133376
0.144219428815661,1641.48712133376
0.141842079203297,1641.49712133376
0.141528811310001,1641.50712133376
0.142900344571574,1641.51712133376
0.145456282703709,1641.52712133376
0.149194312337646,1641.53712133376
0.153741445605472,1641.54712133376
0.158828640878735,1641.55712133376
0.163276593735766,1641.56712133376
0.167169328860057,1641.57712133376
0.169933696688511,1641.58712133376
0.171005102928421,1641.59712133376
0.169971917796012,1641.60712133376
0.16751497448055,1641.61712133376
0.163226020306863,1641.62712133376
0.158030818840106,1641.63712133376
0.151960510771125,1641.64712133376
0.145219741393622,1641.65712133376
0.138051489046964,1641.66712133376
0.130041477532217,1641.67712133376
0.12139585964812,1641.68712133376
0.112858720099443,1641.69712133376
0.104033043996782,1641.70712133376
0.0954209717110815,1641.71712133376
0.0869446457950088,1641.72712133376
0.0782793664931503,1641.73712133376
0.0695609639584053,1641.74712133376
0.0607107109215511,1641.75712133376
0.0521548034161058,1641.76712133376
0.0435413437161532,1641.77712133376
0.0345940078810654,1641.78712133376
0.0258663606412006,1641.79712133376
0.0170540086362874,1641.80712133376
0.00896399820648658,1641.81712133376
0.00140953767932335,1641.82712133376
-0.00556495893680056,1641.83712133376
-0.0130403775224075,1641.84712133376
-0.0208969307493031,1641.85712133376
-0.028826128805296,1641.86712133376
-0.0372364003987631,1641.87712133376
-0.0458838488423904,1641.88712133376
-0.0542530366142388,1641.89712133376
-0.061934300907864,1641.90712133376
-0.0693655641827193,1641.91712133376
-0.0757269991698853,1641.92712133376
-0.0825447424360146,1641.93712133376
-0.0888708243118407,1641.94712133376
-0.0956439944767544,1641.95712133376
-0.102713508821252,1641.96712133376
-0.11042018490332,1641.97712133376
-0.118148879577942,1641.98712133376
-0.125691980612053,1641.99712133376
-0.131096692626143,1642.00712133376
-0.130481182335753,1642.01712133376
-0.120656910971789,1642.02712133376
-0.100020859004058,1642.03712133376
-0.0676419722517345,1642.04712133376
-0.0254722859732399,1642.05712133376
0.0247107189733243,1642.06712133376
0.0807420140429095,1642.07712133376
0.139812776853773,1642.08712133376
0.20011664696418,1642.09712133376
0.258308040475118,1642.10712133376
0.311509822755614,1642.11712133376
0.358751493918325,1642.12712133376
0.397621926497264,1642.13712133376
0.427772042712218,1642.14712133376
0.449616020278383,1642.15712133376
0.463168014108821,1642.16712133376
0.470423272177473,1642.17712133376
0.472109182217078,1642.18712133376
0.470229680063974,1642.19712133376
0.466523331091395,1642.20712133376
0.461368794693695,1642.21712133376
0.455971657666288,1642.22712133376
0.450511955493579,1642.23712133376
0.445466445811782,1642.24712133376
0.4404691802981,1642.25712133376
0.434675368186622,1642.26712133376
0.427510704667175,1642.27712133376
0.418820757789482,1642.28712133376
0.408371108866767,1642.29712133376
0.396938750617012,1642.30712133376
0.385358043166731,1642.31712133376
0.374253150304263,1642.32712133376
0.363985967072634,1642.33712133376
0.355060763715533,1642.34712133376
0.347685831156333,1642.35712133376
0.341755471972796,1642.36712133376
0.337362261488483,1642.37712133376
0.334503844681236,1642.38712133376
0.333900385845399,1642.39712133376
0.334570056288164,1642.40712133376
0.336166587001066,1642.41712133376
0.338533033825311,1642.42712133376
0.340858031121852,1642.43712133376
0.342545399831461,1642.44712133376
0.343133059378371,1642.45712133376
0.341872827895255,1642.46712133376
0.338261985091939,1642.47712133376
0.332772978360561,1642.48712133376
0.325039749130897,1642.49712133376
0.315960343627379,1642.50712133376
0.306325170575826,1642.51712133376
0.296513104567619,1642.52712133376
0.286785611975802,1642.53712133376
0.277068527973293,1642.54712133376
0.266480909348429,1642.55712133376
0.25566886346952,1642.56712133376
0.243872034706737,1642.57712133376
0.231653498956405,1642.58712133376
0.219385312896838,1642.59712133376
0.20722679345793,1642.60712133376
0.195029637554589,1642.61712133376
0.183048448183831,1642.62712133376
0.171450076524868,1642.63712133376
0.160042536560076,1642.64712133376
0.14910542917621,1642.65712133376
0.138183196346211,1642.66712133376
0.127122234026743,1642.67712133376
0.116062820734387,1642.68712133376
0.10602415374412,1642.69712133376
0.0954313029124831,1642.70712133376
0.0852003356418862,1642.71712133376
0.0752147204380895,1642.72712133376
0.0652930986561888,1642.73712133376
0.0558274499178706,1642.74712133376
0.046158279667598,1642.75712133376
0.0365489963285711,1642.76712133376
0.026739596981087,1642.77712133376
0.0166813617114233,1642.78712133376
0.00675344046367454,1642.79712133376
-0.00280714996145175,1642.80712133376
-0.0124100151485284,1642.81712133376
-0.0216857245578606,1642.82712133376
-0.0305403733889078,1642.83712133376
-0.0393256498786066,1642.84712133376
-0.0481536954713527,1642.85712133376
-0.0566655536354064,1642.86712133376
-0.0655224588334125,1642.87712133376
-0.0734423409130048,1642.88712133376
-0.0794036690150589,1642.89712133376
-0.0810169684671282,1642.90712133376
-0.07314028981991,1642.91712133376
-0.0536798892489621,1642.92712133376
-0.0221047368930244,1642.93712133376
0.0208252614149628,1642.94712133376
0.0725888982721856,1642.95712133376
0.130214649409325,1642.96712133376
0.191611543493029,1642.97712133376
0.253682501484097,1642.98712133376
0.314457552849064,1642.99712133376
0.371239416680555,1643.00712133376
0.421600554087233,1643.01712133376
0.464112140421964,1643.02712133376
0.497426708612791,1643.03712133376
0.521501919367632,1643.04712133376
0.536192310950087,1643.05712133376
0.543089468667007,1643.06712133376
0.544033059307913,1643.07712133376
0.541082920531114,1643.08712133376
0.535376383196306,1643.09712133376
0.527685098474813,1643.10712133376
0.519467088884692,1643.11712133376
0.510958015887153,1643.12712133376
0.502543652893029,1643.13712133376
0.494359640471608,1643.14712133376
0.486084306726342,1643.15712133376
0.477515341121153,1643.16712133376
0.466919501594827,1643.17712133376
0.455211451445223,1643.18712133376
0.441982161821128,1643.19712133376
0.428014591778628,1643.20712133376
0.414723670161285,1643.21712133376
0.402607793643172,1643.22712133376
0.392513707331178,1643.23712133376
0.384032681428671,1643.24712133376
0.378267370532203,1643.25712133376
0.373840760127717,1643.26712133376
0.371553336114103,1643.27712133376
0.370470909136818,1643.28712133376
0.37068053262741,1643.29712133376
0.371678649937982,1643.30712133376
0.372836407333754,1643.31712133376
0.373450006616826,1643.32712133376
0.373545101446235,1643.33712133376
0.372513937801029,1643.34712133376
0.370113340031213,1643.35712133376
0.366238201965931,1643.36712133376
0.360408300376089,1643.37712133376
0.353200363234766,1643.38712133376
0.34439985915562,1643.39712133376
0.334115214100655,1643.40712133376
0.323057698164285,1643.41712133376
0.311499659387082,1643.42712133376
0.299788835959673,1643.43712133376
0.288237039043432,1643.44712133376
0.276761849114393,1643.45712133376
0.26510253390041,1643.46712133376
0.253385054230914,1643.47712133376
0.241357330183186,1643.48712133376
0.228800745387692,1643.49712133376
0.216893534462974,1643.50712133376
0.204882562377056,1643.51712133376
0.193363038393347,1643.52712133376
0.182479343145846,1643.53712133376
0.171957255597335,1643.54712133376
0.161562122012202,1643.55712133376
0.151208456822472,1643.56712133376
0.141241090525598,1643.57712133376
0.13038226407971,1643.58712133376
0.11985285936254,1643.59712133376
0.108764550813711,1643.60712133376
0.0978853779261085,1643.61712133376
0.0873644763574334,1643.62712133376
0.0768443962539024,1643.63712133376
0.0663790325967899,1643.64712133376
0.0558166193009854,1643.65712133376
0.0446284268388949,1643.66712133376
0.0338103828717739,1643.67712133376
0.0228252524326948,1643.68712133376
0.0120687731311523,1643.69712133376
0.00157203541128336,1643.70712133376
-0.00883008018711621,1643.71712133376
-0.0183776466072873,1643.72712133376
-0.0277572350452445,1643.73712133376
-0.0367133886181369,1643.74712133376
-0.045959041495979,1643.75712133376
-0.0557289097752998,1643.76712133376
-0.0657213214201292,1643.77712133376
-0.0757753072082711,1643.78712133376
-0.0842573733187462,1643.79712133376
-0.0881591368783644,1643.80712133376
-0.084239345567072,1643.81712133376
-0.0692588026946764,1643.82712133376
-0.0410934412301904,1643.83712133376
-0.001927218099713,1643.84712133376
0.0468063531603232,1643.85712133376
0.101881819145004,1643.86712133376
0.161688030098834,1643.87712133376
0.223342431218619,1643.88712133376
0.283750404661481,1643.89712133376
0.340639828769581,1643.90712133376
0.391717073506752,1643.91712133376
0.435413508457118,1643.92712133376
0.470322639205774,1643.93712133376
0.496737721511059,1643.94712133376
0.514403829800886,1643.95712133376
0.524819849656252,1643.96712133376
0.529269308718745,1643.97712133376
0.529093547137927,1643.98712133376
0.525515973545329,1643.99712133376
0.519684128185895,1644.00712133376
0.512265634094786,1644.01712133376
0.504353836395856,1644.02712133376
0.49644967320779,1644.03712133376
0.489388746296832,1644.04712133376
0.482215396370876,1644.05712133376
0.474360264581136,1644.06712133376
0.465297643567927,1644.07712133376
0.454422080419944,1644.08712133376
0.442865072482252,1644.09712133376
0.430316130707118,1644.10712133376
0.417265566381595,1644.11712133376
0.404795236318987,1644.12712133376
0.393241260224267,1644.13712133376
0.38342979471337,1644.14712133376
0.375622226211049,1644.15712133376
0.369439112752627,1644.16712133376
0.365397580810735,1644.17712133376
0.363139965622461,1644.18712133376
0.362639401389872,1644.19712133376
0.363156743517344,1644.20712133376
0.36398224911973,1644.21712133376
0.364133208362869,1644.22712133376
0.363666773342247,1644.23712133376
0.362657848194377,1644.24712133376
0.360634603351215,1644.25712133376
0.357303171231412,1644.26712133376
0.352593748651859,1644.27712133376
0.346463234562027,1644.28712133376
0.339093021027052,1644.29712133376
0.330506703419691,1644.30712133376
0.321363359165441,1644.31712133376
0.311477193265592,1644.32712133376
0.301376286158685,1644.33712133376
0.290733763187024,1644.34712133376
0.279541216466174,1644.35712133376
0.267769928888238,1644.36712133376
0.255339101617702,1644.37712133376
0.243841267715005,1644.38712133376
0.231699834494264,1644.39712133376
0.220106598129489,1644.40712133376
0.208488702374137,1644.41712133376
0.196836659105523,1644.42712133376
0.185020114787354,1644.43712133376
0.173477119948789,1644.44712133376
0.161954069766167,1644.45712133376
0.150678262597058,1644.46712133376
0.139087860873226,1644.47712133376
0.127477064847907,1644.48712133376
0.115903244708034,1644.49712133376
0.103808158273799,1644.50712133376
0.091405750592577,1644.51712133376
0.0796212889153892,1644.52712133376
0.0680115144794047,1644.53712133376
0.0569701273139184,1644.54712133376
0.0465309046306983,1644.55712133376
0.0355325435771858,1644.56712133376
0.0246209585728328,1644.57712133376
0.0134229907048934,1644.58712133376
0.00145917200102282,1644.59712133376
-0.0101290305840476,1644.60712133376
-0.021716585220625,1644.61712133376
-0.0329590418046971,1644.62712133376
-0.0438031251772495,1644.63712133376
-0.0549745278769312,1644.64712133376
-0.0663091451028225,1644.65712133376
-0.0777854154204445,1644.66712133376
-0.0885673149032957,1644.67712133376
-0.0952122573742588,1644.68712133376
-0.0940537767843966,1644.69712133376
-0.0814940856964978,1644.70712133376
-0.0564508783192827,1644.71712133376
-0.0188214058865586,1644.72712133376
0.0277619014539445,1644.73712133376
0.0807970703565827,1644.74712133376
0.13750422202072,1644.75712133376
0.196142523316075,1644.76712133376
0.253803487091494,1644.77712133376
0.308537038139571,1644.78712133376
0.357721674396567,1644.79712133376
0.399208291952206,1644.80712133376
0.431474490561088,1644.81712133376
0.45455222589335,1644.82712133376
0.469507772546974,1644.83712133376
0.47689625130733,1644.84712133376
0.478397573125476,1644.85712133376
0.475274665523178,1644.86712133376
0.468579800895072,1644.87712133376
0.45990806031884,1644.88712133376
0.450195725438778,1644.89712133376
0.44057833106277,1644.90712133376
0.431218407847299,1644.91712133376
0.422232617137489,1644.92712133376
0.413002023454535,1644.93712133376
0.403418863280142,1644.94712133376
0.392915020208983,1644.95712133376
0.380007069754201,1644.96712133376
0.365382308320399,1644.97712133376
0.34995595599574,1644.98712133376
0.334512350136483,1644.99712133376
0.32005506064343,1645.00712133376
0.307103221351717,1645.01712133376
0.296504057081052,1645.02712133376
0.288235639277997,1645.03712133376
0.282581915593948,1645.04712133376
0.279174890744978,1645.05712133376
0.27671594373432,1645.06712133376
0.275579314768292,1645.07712133376
0.275673378612815,1645.08712133376
0.275779694234451,1645.09712133376
0.276085181166993,1645.10712133376
0.275297111273335,1645.11712133376
0.273439464336459,1645.12712133376
0.270092722989818,1645.13712133376
0.265021847124509,1645.14712133376
0.25911837657835,1645.15712133376
0.251828748863731,1645.16712133376
0.243263026243006,1645.17712133376
0.233402213708083,1645.18712133376
0.222937151176605,1645.19712133376
0.211371131921372,1645.20712133376
0.198616307535353,1645.21712133376
0.185179377762494,1645.22712133376
0.172089015877808,1645.23712133376
0.159063512013695,1645.24712133376
0.146554078765642,1645.25712133376
0.134564025812112,1645.26712133376
0.122781605330743,1645.27712133376
0.1105624948908,1645.28712133376
0.0981940354977135,1645.29712133376
0.085767721451355,1645.30712133376
0.0739748125648441,1645.31712133376
0.0618186666215231,1645.32712133376
0.0502479779666383,1645.33712133376
0.0386422380547359,1645.34712133376
0.0271120375380149,1645.35712133376
0.0149447807670929,1645.36712133376
0.00255188533920487,1645.37712133376
-0.0101283903470825,1645.38712133376
-0.0230369057962381,1645.39712133376
-0.0351472203331417,1645.40712133376
-0.0465017396977765,1645.41712133376
-0.0576603990897315,1645.42712133376
-0.0690576647102376,1645.43712133376
-0.0803493541589535,1645.44712133376
-0.0913663306835048,1645.45712133376
-0.101994314920035,1645.46712133376
-0.11282831407425,1645.47712133376
-0.124282703946101,1645.48712133376
-0.135008137414753,1645.49712133376
-0.144189153005662,1645.50712133376
-0.149406416768089,1645.51712133376
-0.145521276868189,1645.52712133376
-0.129513977672711,1645.53712133376
-0.100067565391351,1645.54712133376
-0.0583778004870449,1645.55712133376
-0.00910247661422806,1645.56712133376
0.0452964840100438,1645.57712133376
0.101439917414947,1645.58712133376
0.157721232849454,1645.59712133376
0.211619785666878,1645.60712133376
0.260968792096698,1645.61712133376
0.304128950140067,1645.62712133376
0.338939408307895,1645.63712133376
0.365770377667508,1645.64712133376
0.383812564476623,1645.65712133376
0.39374687529057,1645.66712133376
0.397105045984092,1645.67712133376
0.394103792637926,1645.68712133376
0.387315209531808,1645.69712133376
0.377502616526826,1645.70712133376
0.366302412149925,1645.71712133376
0.354330357697334,1645.72712133376
0.343115678343622,1645.73712133376
0.332848011400208,1645.74712133376
0.322823541855472,1645.75712133376
0.312220883839164,1645.76712133376
0.300491638820609,1645.77712133376
0.287236009352318,1645.78712133376
0.272777786751463,1645.79712133376
0.257688420196327,1645.80712133376
0.243268321006452,1645.81712133376
0.230187797122595,1645.82712133376
0.218986086430184,1645.83712133376
0.210944356041667,1645.84712133376
0.204915726706606,1645.85712133376
0.200943885184503,1645.86712133376
0.199683304169735,1645.87712133376
0.200332125976561,1645.88712133376
0.202344650333936,1645.89712133376
0.204733063343055,1645.90712133376
0.207380615370238,1645.91712133376
0.209148550467592,1645.92712133376
0.209598854012315,1645.93712133376
0.208627158965697,1645.94712133376
0.206228816927985,1645.95712133376
0.202055816036439,1645.96712133376
0.196767955931198,1645.97712133376
0.189451829108455,1645.98712133376
0.180763934547876,1645.99712133376
0.170489368276648,1646.00712133376
0.158651568555034,1646.01712133376
0.146065860316511,1646.02712133376
0.133215142806251,1646.03712133376
0.120031427870502,1646.04712133376
0.107129292698536,1646.05712133376
0.0951921591184898,1646.06712133376
0.0837559653140841,1646.07712133376
0.0731126286867726,1646.08712133376
0.0626897829891249,1646.09712133376
0.0530031090204071,1646.10712133376
0.043540130798428,1646.11712133376
0.0340111977947766,1646.12712133376
0.0247481320956248,1646.13712133376
0.0151422673094809,1646.14712133376
0.00530983926402138,1646.15712133376
-0.00499987102080281,1646.16712133376
-0.0160631936824942,1646.17712133376
-0.0274560874569034,1646.18712133376
-0.0388495411704637,1646.19712133376
-0.04942040012664,1646.20712133376
-0.0592228332338426,1646.21712133376
-0.0689041643588338,1646.22712133376
-0.078584783483931,1646.23712133376
-0.0886602432044964,1646.24712133376
-0.0987032287522259,1646.25712133376
-0.10896396006124,1646.26712133376
-0.119328311145082,1646.27712133376
-0.129088628651746,1646.28712133376
-0.137988037947832,1646.29712133376
-0.143494311691881,1646.30712133376
-0.14236683111477,1646.31712133376
-0.130966105611957,1646.32712133376
-0.106530854021786,1646.33712133376
-0.069895285476434,1646.34712133376
-0.0223755198736652,1646.35712133376
0.0328397270185413,1646.36712133376
0.0930311721569221,1646.37712133376
0.156298164909544,1646.38712133376
0.219840527345893,1646.39712133376
0.280229914826885,1646.40712133376
0.335787550790827,1646.41712133376
0.384118541455848,1646.42712133376
0.42343319932788,1646.43712133376
0.453625035693402,1646.44712133376
0.474212908397125,1646.45712133376
0.485724211113657,1646.46712133376
0.49037142900143,1646.47712133376
0.488899349075205,1646.48712133376
0.483617842960614,1646.49712133376
0.47609863243086,1646.50712133376
0.466869021626243,1646.51712133376
0.457185303902302,1646.52712133376
0.447965521828637,1646.53712133376
0.439281270288687,1646.54712133376
0.430060709676359,1646.55712133376
0.42011071445366,1646.56712133376
0.4090663558091,1646.57712133376
0.396280804903563,1646.58712133376
0.382013299010927,1646.59712133376
0.366629044415866,1646.60712133376
0.350962230656327,1646.61712133376
0.336045994247044,1646.62712133376
0.322979731323135,1646.63712133376
0.312184009177147,1646.64712133376
0.303950992828929,1646.65712133376
0.298587006366396,1646.66712133376
0.295032959941359,1646.67712133376
0.29395029289751,1646.68712133376
0.294063190348311,1646.69712133376
0.29515319092561,1646.70712133376
0.29696648598182,1646.71712133376
0.298792716366942,1646.72712133376
0.299630107575792,1646.73712133376
0.299278605064145,1646.74712133376
0.297064207530394,1646.75712133376
0.293137313884769,1646.76712133376
0.287593311532139,1646.77712133376
0.280203370269422,1646.78712133376
0.271276071701902,1646.79712133376
0.261114528339392,1646.80712133376
0.249829979042204,1646.81712133376
0.23765607422246,1646.82712133376
0.225410020566459,1646.83712133376
0.212895614938947,1646.84712133376
0.200221494193371,1646.85712133376
0.187733874706088,1646.86712133376
0.175062183837027,1646.87712133376
0.162624980955209,1646.88712133376
0.150388863222032,1646.89712133376
0.138199672938862,1646.90712133376
0.12676932637329,1646.91712133376
0.11527355751619,1646.92712133376
0.104052369700009,1646.93712133376
0.0927688290683776,1646.94712133376
0.0813236370370109,1646.95712133376
0.069909461141691,1646.96712133376
0.0583842407695055,1646.97712133376
0.0471790651485598,1646.98712133376
0.0359510275482475,1646.99712133376
0.0250192184905168,1647.00712133376
0.0146625749431755,1647.01712133376
0.00385462667722353,1647.02712133376
-0.00697826376005547,1647.03712133376
-0.0182260189072885,1647.04712133376
-0.0298022178927799,1647.05712133376
-0.0411481809975424,1647.06712133376
-0.0520005908263763,1647.07712133376
-0.062346317700087,1647.08712133376
-0.0723376665731287,1647.09712133376
-0.0820383774441916,1647.10712133376
-0.0921305691975055,1647.11712133376
-0.102572135576031,1647.12712133376
-0.113210266798637,1647.13712133376
-0.124473718626876,1647.14712133376
-0.135401221741104,1647.15712133376
-0.146422750649293,1647.16712133376
-0.15748312747848,1647.17712133376
-0.167296303467033,1647.18712133376
-0.174460066139093,1647.19712133376
-0.175018009229,1647.20712133376
-0.164865643346522,1647.21712133376
-0.141390929090855,1647.22712133376
-0.10338714562584,1647.23712133376
-0.0519448360846461,1647.24712133376
0.00869027973367648,1647.25712133376
0.0745434471130714,1647.26712133376
0.143292904553973,1647.27712133376
0.212273890421355,1647.28712133376
0.277823656719949,1647.29712133376
0.338216100852702,1647.30712133376
0.390476414807959,1647.31712133376
0.432669637230523,1647.32712133376
0.464534163627232,1647.33712133376
0.485932095639894,1647.34712133376
0.497586640998556,1647.35712133376
0.500845135602691,1647.36712133376
0.498313956160232,1647.37712133376
0.491218524378921,1647.38712133376
0.481163494724024,1647.39712133376
0.469602064902808,1647.40712133376
0.457445977755669,1647.41712133376
0.445826087236136,1647.42712133376
0.434309103557552,1647.43712133376
0.423430100373634,1647.44712133376
0.412674437873257,1647.45712133376
0.401763325299112,1647.46712133376
0.389951533141982,1647.47712133376
0.37646120388318,1647.48712133376
0.361786625697073,1647.49712133376
0.346200096673299,1647.50712133376
0.330726309926436,1647.51712133376
0.316582079325822,1647.52712133376
0.30452984490571,1647.53712133376
0.294794076547394,1647.54712133376
0.28793328696383,1647.55712133376
0.283888982544519,1647.56712133376
0.282089480343598,1647.57712133376
0.281858526770691,1647.58712133376
0.283296111053275,1647.59712133376
0.285195626366386,1647.60712133376
0.287285589704891,1647.61712133376
0.288676314878348,1647.62712133376
0.288528713264647,1647.63712133376
0.287121710693881,1647.64712133376
0.284018786011402,1647.65712133376
0.279009935875533,1647.66712133376
0.272441785394164,1647.67712133376
0.264172522341231,1647.68712133376
0.254471643998389,1647.69712133376
0.243574930649095,1647.70712133376
0.231473205939548,1647.71712133376
0.21900769752287,1647.72712133376
0.205831039973405,1647.73712133376
0.192427526698886,1647.74712133376
0.179635380169953,1647.75712133376
0.167211443409975,1647.76712133376
0.15509718464095,1647.77712133376
0.143199746239134,1647.78712133376
0.131175147278184,1647.79712133376
0.119475171476568,1647.80712133376
0.107916919987968,1647.81712133376
0.0966280957517573,1647.82712133376
0.0857767774909488,1647.83712133376
0.0755245550928734,1647.84712133376
0.0658947687932744,1647.85712133376
0.0561356367947141,1647.86712133376
0.0467329685629863,1647.87712133376
0.0366827830036192,1647.88712133376
0.0261328602597539,1647.89712133376
0.0152086829703211,1647.90712133376
0.00424247170559468,1647.91712133376
-0.00687390320318905,1647.92712133376
-0.0180618048456148,1647.93712133376
-0.0288547554604338,1647.94712133376
-0.039701689252227,1647.95712133376
-0.0499313227100528,1647.96712133376
-0.0599476695844105,1647.97712133376
-0.0703144311555838,1647.98712133376
-0.0809187202092341,1647.99712133376
-0.0914844466994006,1648.00712133376
-0.101851124942674,1648.01712133376
-0.112326387997942,1648.02712133376
-0.123032341457392,1648.03712133376
-0.133360185307229,1648.04712133376
-0.141371256991021,1648.05712133376
-0.143042803434841,1648.06712133376
-0.134435449844694,1648.07712133376
-0.112701319554871,1648.08712133376
-0.076747820009307,1648.09712133376
-0.0283167071014703,1648.10712133376
0.029920767666125,1648.11712133376
0.0956290317853123,1648.12712133376
0.16527237502352,1648.13712133376
0.236284764852223,1648.14712133376
0.304591267615552,1648.15712133376
0.367953117383089,1648.16712133376
0.422820087206083,1648.17712133376
0.468052622893082,1648.18712133376
0.502314718990058,1648.19712133376
0.525901421594531,1648.20712133376
0.539570148897215,1648.21712133376
0.544388069476838,1648.22712133376
0.542242609715383,1648.23712133376
0.534727830481083,1648.24712133376
0.524167855488872,1648.25712133376
0.511529585632029,1648.26712133376
0.498965520207644,1648.27712133376
0.486522674060989,1648.28712133376
0.474467135885078,1648.29712133376
0.463123118588133,1648.30712133376
0.451383984131932,1648.31712133376
0.438624920615996,1648.32712133376
0.424378139010511,1648.33712133376
0.408919280227355,1648.34712133376
0.392731571211555,1648.35712133376
0.376342428723326,1648.36712133376
0.360638762969639,1648.37712133376
0.345699081752285,1648.38712133376
0.332625676443135,1648.39712133376
0.32156475966157,1648.40712133376
0.312585891104218,1648.41712133376
0.306686438070398,1648.42712133376
0.303478848758443,1648.43712133376
0.302231481415094,1648.44712133376
0.30220236202261,1648.45712133376
0.303487674765887,1648.46712133376
0.304242096821214,1648.47712133376
0.304509665796325,1648.48712133376
0.303820463493095,1648.49712133376
0.30144332212589,1648.50712133376
0.297823993283737,1648.51712133376
0.292050657617123,1648.52712133376
0.285067532748454,1648.53712133376
0.276337391634255,1648.54712133376
0.266103371580555,1648.55712133376
0.254205714976966,1648.56712133376
0.241557155687453,1648.57712133376
0.228629750384149,1648.58712133376
0.215360300988501,1648.59712133376
0.202002643501649,1648.60712133376
0.188382456048163,1648.61712133376
0.174469604317403,1648.62712133376
0.160804882207298,1648.63712133376
0.147273275344833,1648.64712133376
0.134335522851323,1648.65712133376
0.12170693971403,1648.66712133376
0.109605903042877,1648.67712133376
0.0977133122125833,1648.68712133376
0.0850152833849808,1648.69712133376
0.0723632121925304,1648.70712133376
0.0599645843828336,1648.71712133376
0.047216541094556,1648.72712133376
0.0346096510651566,1648.73712133376
0.0226324943415452,1648.74712133376
0.0105973144617633,1648.75712133376
-0.000977230607898853,1648.76712133376
-0.0125488738736482,1648.77712133376
-0.0242059789804152,1648.78712133376
-0.0363976246573518,1648.79712133376
-0.0483739878128966,1648.80712133376
-0.0605899613146831,1648.81712133376
-0.0728323765350081,1648.82712133376
-0.085074066346066,1648.83712133376
-0.0971612551371334,1648.84712133376
-0.108638227059476,1648.85712133376
-0.119436612733765,1648.86712133376
-0.130094220207589,1648.87712133376
-0.140598210279634,1648.88712133376
-0.150834022931846,1648.89712133376
-0.158931020807071,1648.90712133376
-0.162690065150714,1648.91712133376
-0.158072525664775,1648.92712133376
-0.140938787973468,1648.93712133376
-0.108568623460258,1648.94712133376
-0.0623840312380738,1648.95712133376
-0.00464626617852586,1648.96712133376
0.0614641228792681,1648.97712133376
0.132720532561822,1648.98712133376
0.206363781553637,1648.99712133376
0.278009013300842,1649.00712133376
0.345147318284143,1649.01712133376
0.404322164096796,1649.02712133376
0.453204732028707,1649.03712133376
0.49078601190163,1649.04712133376
0.516927881467154,1649.05712133376
0.532214057812382,1649.06712133376
0.538017320904719,1649.07712133376
0.536142950932014,1649.08712133376
0.529971502923349,1649.09712133376
0.520792221015228,1649.10712133376
0.509792934646,1649.11712133376
0.498120299105964,1649.12712133376
0.486136816403768,1649.13712133376
0.474125824332184,1649.14712133376
0.462140157964271,1649.15712133376
0.449849323732001,1649.16712133376
0.436673396556143,1649.17712133376
0.422148861987589,1649.18712133376
0.406298836958791,1649.19712133376
0.388911362389307,1649.20712133376
0.370952338476609,1649.21712133376
0.35286202698899,1649.22712133376
0.335766618093757,1649.23712133376
0.320684228371352,1649.24712133376
0.308041319174517,1649.25712133376
0.297925135443385,1649.26712133376
0.290504666763549,1649.27712133376
0.285417622583309,1649.28712133376
0.282379650483361,1649.29712133376
0.281043393410968,1649.30712133376
0.280739414036997,1649.31712133376
0.280737174782742,1649.32712133376
0.280317774990141,1649.33712133376
0.278985693238029,1649.34712133376
0.275844967621941,1649.35712133376
0.271164659218269,1649.36712133376
0.265105800914989,1649.37712133376
0.257454931062643,1649.38712133376
0.247911056860066,1649.39712133376
0.236361297036425,1649.40712133376
0.223685902249959,1649.41712133376
0.209457405585828,1649.42712133376
0.194757847300762,1649.43712133376
0.17984593521077,1649.44712133376
0.164909714905968,1649.45712133376
0.149542987638039,1649.46712133376
0.134181685429082,1649.47712133376
0.119140632580962,1649.48712133376
0.103669680216596,1649.49712133376
0.0886213198139537,1649.50712133376
0.0734384394139435,1649.51712133376
0.0587532587912509,1649.52712133376
0.044788920514244,1649.53712133376
0.0314500793727741,1649.54712133376
0.018397240688889,1649.55712133376
0.00576612143350151,1649.56712133376
-0.00657773900567765,1649.57712133376
-0.0191953267016896,1649.58712133376
-0.0317066072998012,1649.59712133376
-0.0450143702691887,1649.60712133376
-0.0585470083139723,1649.61712133376
-0.0722048870949737,1649.62712133376
-0.0865775996610676,1649.63712133376
-0.100534095766351,1649.64712133376
-0.114267706461931,1649.65712133376
-0.127815225092789,1649.66712133376
-0.140525690570852,1649.67712133376
-0.152757459847837,1649.68712133376
-0.164768151241603,1649.69712133376
-0.176782211125183,1649.70712133376
-0.188869532729408,1649.71712133376
-0.201623160884458,1649.72712133376
-0.213971704481614,1649.73712133376
-0.22442492631018,1649.74712133376
-0.230588086477819,1649.75712133376
-0.227605854901492,1649.76712133376
-0.211189337461002,1649.77712133376
-0.179549009022845,1649.78712133376
-0.133822327828415,1649.79712133376
-0.0767940590184171,1649.80712133376
-0.0127108188743709,1649.81712133376
0.0551596662799177,1649.82712133376
0.123557798032036,1649.83712133376
0.191219148524665,1649.84712133376
0.254321540697961,1649.85712133376
0.310308729821931,1649.86712133376
0.357246467540826,1649.87712133376
0.393082594167195,1649.88712133376
0.418016628861134,1649.89712133376
0.43161223415666,1649.90712133376
0.435966871296125,1649.91712133376
0.433306667547446,1649.92712133376
0.425617304402888,1649.93712133376
0.414610600988828,1649.94712133376
0.402019343594905,1649.95712133376
0.388666543243065,1649.96712133376
0.375184357267013,1649.97712133376
0.362051469891584,1649.98712133376
0.348804663558256,1649.99712133376
0.334702229322799,1650.00712133376
0.31929885140621,1650.01712133376
0.302023019907673,1650.02712133376
0.282863351664169,1650.03712133376
0.262214408087648,1650.04712133376
0.241569996320705,1650.05712133376
0.221889773536197,1650.06712133376
0.204480764882646,1650.07712133376
0.190282111564243,1650.08712133376
0.17942995644118,1650.09712133376
0.171817019802815,1650.10712133376
0.167344066879679,1650.11712133376
0.165473932637422,1650.12712133376
0.165469254380711,1650.13712133376
0.166365100731383,1650.14712133376
0.167705021767327,1650.15712133376
0.168896821928463,1650.16712133376
0.16956363771866,1650.17712133376
0.16870113977932,1650.18712133376
0.166165001504613,1650.19712133376
0.161221764927022,1650.20712133376
0.154556265036414,1650.21712133376
0.145681983788554,1650.22712133376
0.135381906575016,1650.23712133376
0.124040551297697,1650.24712133376
0.111194969274853,1650.25712133376
0.0982083132717664,1650.26712133376
0.0843755831084383,1650.27712133376
0.070244403585569,1650.28712133376
0.0560134644296096,1650.29712133376
0.0420015150167638,1650.30712133376
0.027529927878681,1650.31712133376
0.0132679373430898,1650.32712133376
-0.000517045764081399,1650.33712133376
-0.0142257460528518,1650.34712133376
-0.0278231919410568,1650.35712133376
-0.0406140333128231,1650.36712133376
-0.0535306845764569,1650.37712133376
-0.066003339678143,1650.38712133376
-0.0787194973010046,1650.39712133376
-0.0918082059154961,1650.40712133376
-0.104868338926049,1650.41712133376
-0.117999389751235,1650.42712133376
-0.130366233076333,1650.43712133376
-0.142510665252504,1650.44712133376
-0.153826737147103,1650.45712133376
-0.164798880024275,1650.46712133376
-0.175461354571088,1650.47712133376
-0.186676815023213,1650.48712133376
-0.197502912655952,1650.49712133376
-0.208544534461683,1650.50712133376
-0.219706827184962,1650.51712133376
-0.23005011793866,1650.52712133376
-0.239071195764024,1650.53712133376
-0.242712649334661,1650.54712133376
-0.237121848315809,1650.55712133376
-0.218471286779021,1650.56712133376
-0.186494736681631,1650.57712133376
-0.141633128969325,1650.58712133376
-0.0867725715793261,1650.59712133376
-0.0250118780531251,1650.60712133376
0.0408693943131055,1650.61712133376
0.107287424464282,1650.62712133376
0.171520350098924,1650.63712133376
0.231142999148067,1650.64712133376
0.283203133922769,1650.65712133376
0.325907420780054,1650.66712133376
0.358096568991165,1650.67712133376
0.380053922427463,1650.68712133376
0.392560929156387,1650.69712133376
0.396836140440827,1650.70712133376
0.394862528098079,1650.71712133376
0.387679721863103,1650.72712133376
0.377681686919,1650.73712133376
0.365056596129287,1650.74712133376
0.351897778372697,1650.75712133376
0.338674714110262,1650.76712133376
0.325781735493824,1650.77712133376
0.312831107020532,1650.78712133376
0.299283362457389,1650.79712133376
0.284626120233475,1650.80712133376
0.267997821883443,1650.81712133376
0.250066813446272,1650.82712133376
0.231230713862928,1650.83712133376
0.21234588877134,1650.84712133376
0.195397220583439,1650.85712133376
0.180811588232195,1650.86712133376
0.169773953583419,1650.87712133376
0.162004259983963,1650.88712133376
0.156451181345697,1650.89712133376
0.153352950430744,1650.90712133376
0.152578184108133,1650.91712133376
0.153228725594447,1650.92712133376
0.15415681720836,1650.93712133376
0.154768343161387,1650.94712133376
0.154749705756901,1650.95712133376
0.153847894648385,1650.96712133376
0.151619763018403,1650.97712133376
0.148210029803068,1650.98712133376
0.142990429577395,1650.99712133376
0.135604673666896,1651.00712133376
0.126462277610557,1651.01712133376
0.115759225981397,1651.02712133376
0.103410342084766,1651.03712133376
0.0903415072038216,1651.04712133376
0.0767970795882959,1651.05712133376
0.0628181220317139,1651.06712133376
0.0490570412198594,1651.07712133376
0.0350711559075195,1651.08712133376
0.0206884905851089,1651.09712133376
0.00650735266923258,1651.10712133376
-0.0076747227051811,1651.11712133376
-0.0221786080876951,1651.12712133376
-0.0365328065150272,1651.13712133376
-0.0506482465983459,1651.14712133376
-0.0644046091610701,1651.15712133376
-0.077556421154803,1651.16712133376
-0.090612194735089,1651.17712133376
-0.102957044520723,1651.18712133376
-0.115319755008813,1651.19712133376
-0.127515863163997,1651.20712133376
-0.139835556917805,1651.21712133376
-0.151719951923507,1651.22712133376
-0.163914055318447,1651.23712133376
-0.176191383857473,1651.24712133376
-0.188002459394102,1651.25712133376
-0.200039202224084,1651.26712133376
-0.21210149149343,1651.27712133376
-0.224098284026759,1651.28712133376
-0.235878451547341,1651.29712133376
-0.247929703983623,1651.30712133376
-0.259475785977177,1651.31712133376
-0.270428815952866,1651.32712133376
-0.278686899128499,1651.33712133376
-0.280983426292943,1651.34712133376
-0.272686069453554,1651.35712133376
-0.2512885165611,1651.36712133376
-0.216152028229228,1651.37712133376
-0.169875625613273,1651.38712133376
-0.115317499850071,1651.39712133376
-0.0553623604725211,1651.40712133376
0.00575320560273299,1651.41712133376
0.0656720662814168,1651.42712133376
0.120930027720169,1651.43712133376
0.170340886469338,1651.44712133376
0.212076228956405,1651.45712133376
0.244632483647732,1651.46712133376
0.267937499065236,1651.47712133376
0.282629884589095,1651.48712133376
0.289393875350894,1651.49712133376
0.289879005584028,1651.50712133376
0.284659598442618,1651.51712133376
0.276259953001367,1651.52712133376
0.265749027050117,1651.53712133376
0.25428335284067,1651.54712133376
0.243319045383089,1651.55712133376
0.232507279745717,1651.56712133376
0.222773618289173,1651.57712133376
0.213144583851277,1651.58712133376
0.203210564274355,1651.59712133376
0.192156405255689,1651.60712133376
0.179724128092975,1651.61712133376
0.165820935823993,1651.62712133376
0.150626884779344,1651.63712133376
0.13471442896172,1651.64712133376
0.119157469497993,1651.65712133376
0.105082928094402,1651.66712133376
0.092653652493069,1651.67712133376
0.0829747890351603,1651.68712133376
0.0754912711268114,1651.69712133376
0.0703525151473737,1651.70712133376
0.0672890666564922,1651.71712133376
0.0654906263787016,1651.72712133376
0.0645390668821855,1651.73712133376
0.063902599578808,1651.74712133376
0.062892350008566,1651.75712133376
0.0613850722334488,1651.76712133376
0.0589628444863688,1651.77712133376
0.0546468187343139,1651.78712133376
0.0491850541443891,1651.79712133376
0.0420501362404399,1651.80712133376
0.0337425711971846,1651.81712133376
0.0238685132918127,1651.82712133376
0.0132420292695066,1651.83712133376
0.00140249949360584,1651.84712133376
-0.0108135128147543,1651.85712133376
-0.0233902671733463,1651.86712133376
-0.0364149558319602,1651.87712133376
-0.0495644657363978,1651.88712133376
-0.0631035501385891,1651.89712133376
-0.0759581938317491,1651.90712133376
-0.088658145870282,1651.91712133376
-0.100231377381079,1651.92712133376
-0.111440150408379,1651.93712133376
-0.122420188417258,1651.94712133376
-0.132731713393342,1651.95712133376
-0.143016509098279,1651.96712133376
-0.15341175840083,1651.97712133376
-0.164377802120888,1651.98712133376
-0.175326427401316,1651.99712133376
-0.186196382949297,1652.00712133376
-0.196939149551271,1652.01712133376
-0.208029347887838,1652.02712133376
-0.21910040363896,1652.03712133376
-0.229727878592857,1652.04712133376
-0.240535319492877,1652.05712133376
-0.250579120283933,1652.06712133376
-0.260730301068359,1652.07712133376
-0.270536126890212,1652.08712133376
-0.280312221919099,1652.09712133376
-0.29028361151454,1652.10712133376
-0.300575982118872,1652.11712133376
-0.311176791133872,1652.12712133376
-0.321423405244258,1652.13712133376
-0.330654393226141,1652.14712133376
-0.335900891161103,1652.15712133376
-0.334237877026788,1652.16712133376
-0.322051347480906,1652.17712133376
-0.298257344357312,1652.18712133376
-0.263780235173914,1652.19712133376
-0.221206757874673,1652.20712133376
-0.17436431538056,1652.21712133376
-0.125791744263947,1652.22712133376
-0.0781795351406877,1652.23712133376
-0.0341506224032725,1652.24712133376
0.00503937280049181,1652.25712133376
0.0383526423534269,1652.26712133376
0.0642354913767746,1652.27712133376
0.0828389570195748,1652.28712133376
0.0941308562513111,1652.29712133376
0.0989050789862965,1652.30712133376
0.0983389148983314,1652.31712133376
0.0938499621729165,1652.32712133376
0.0867192424053659,1652.33712133376
0.0783506032221041,1652.34712133376
0.0692620265271754,1652.35712133376
0.0598788310548837,1652.36712133376
0.0509757667651761,1652.37712133376
0.042132483996986,1652.38712133376
0.0336679017815944,1652.39712133376
0.0249784887825207,1652.40712133376
0.0158297361761392,1652.41712133376
0.00575889211999796,1652.42712133376
-0.00510628323731759,1652.43712133376
-0.0165573463651238,1652.44712133376
-0.0286380121181058,1652.45712133376
-0.0407043432886966,1652.46712133376
-0.0517056571189011,1652.47712133376
-0.0616269453956933,1652.48712133376
-0.0698964999439715,1652.49712133376
-0.0761346403406631,1652.50712133376
-0.0807418624910099,1652.51712133376
-0.0838840272410913,1652.52712133376
-0.0847030849612614,1652.53712133376
-0.0843746300276195,1652.54712133376
-0.0839338038907818,1652.55712133376
-0.0833760462273084,1652.56712133376
-0.0832787026354408,1652.57712133376
-0.0843016670230299,1652.58712133376
-0.0859848257875219,1652.59712133376
-0.089472411485867,1652.60712133376
-0.0943037751766355,1652.61712133376
-0.100773945639458,1652.62712133376
-0.108668482753032,1652.63712133376
-0.116746649794008,1652.64712133376
-0.125778675040812,1652.65712133376
-0.135583806834321,1652.66712133376
-0.145927384466556,1652.67712133376
-0.15674139433408,1652.68712133376
-0.167689826907719,1652.69712133376
-0.178405070967305,1652.70712133376
-0.189033333235736,1652.71712133376
-0.19922712137621,1652.72712133376
-0.209355306613165,1652.73712133376
-0.219806598734908,1652.74712133376
-0.230093706457931,1652.75712133376
-0.240698527100924,1652.76712133376
-0.251135851422551,1652.77712133376
-0.261305663451462,1652.78712133376
-0.271503207067871,1652.79712133376
-0.281272962588237,1652.80712133376
-0.290325492746149,1652.81712133376
-0.299019209983178,1652.82712133376
-0.307279262377023,1652.83712133376
-0.316047300344865,1652.84712133376
-0.324950013045194,1652.85712133376
-0.333845619284744,1652.86712133376
-0.343338366714837,1652.87712133376
-0.352686957122411,1652.88712133376
-0.361623480606437,1652.89712133376
-0.370294464617892,1652.90712133376
-0.378661810705224,1652.91712133376
-0.387047455797906,1652.92712133376
-0.395522150376873,1652.93712133376
-0.403717391674551,1652.94712133376
-0.411854337597408,1652.95712133376
-0.420332546068012,1652.96712133376
-0.42873521793881,1652.97712133376
-0.436152889045814,1652.98712133376
-0.439801553620716,1652.99712133376
-0.436795614764791,1653.00712133376
-0.423560764577452,1653.01712133376
-0.399416582219323,1653.02712133376
-0.365415877219498,1653.03712133376
-0.325314556204894,1653.04712133376
-0.282672692351806,1653.05712133376
-0.240119120738388,1653.06712133376
-0.200299592078169,1653.07712133376
-0.165006421987609,1653.08712133376
-0.135502363577379,1653.09712133376
-0.111984661891022,1653.10712133376
-0.0958376597552482,1653.11712133376
-0.0862104448238153,1653.12712133376
-0.0821242098064951,1653.13712133376
-0.0831078529218209,1653.14712133376
-0.087754735682757,1653.15712133376
-0.095719823644234,1653.16712133376
-0.105399970845732,1653.17712133376
-0.116088621551331,1653.18712133376
-0.127423694811038,1653.19712133376
-0.138522321315151,1653.20712133376
-0.14862059666015,1653.21712133376
-0.157716141231096,1653.22712133376
-0.16605447603215,1653.23712133376
-0.174738131777667,1653.24712133376
-0.18350000629147,1653.25712133376
-0.192956577863732,1653.26712133376
-0.203119045118588,1653.27712133376
-0.21356555237867,1653.28712133376
-0.22403632099331,1653.29712133376
-0.234318497038599,1653.30712133376
-0.243443001609849,1653.31712133376
-0.251649156907471,1653.32712133376
-0.257780621981501,1653.33712133376
-0.261884786045667,1653.34712133376
-0.264547592468136,1653.35712133376
-0.264927981170888,1653.36712133376
-0.264188845510392,1653.37712133376
-0.262117378456969,1653.38712133376
-0.259873004908866,1653.39712133376
-0.258086229748022,1653.40712133376
-0.257425958255514,1653.41712133376
-0.258055527484185,1653.42712133376
-0.260675973911502,1653.43712133376
-0.264897870446062,1653.44712133376
-0.270155298507686,1653.45712133376
-0.276206331844704,1653.46712133376
-0.282267285011225,1653.47712133376
-0.289027646972897,1653.48712133376
-0.296913000739877,1653.49712133376
-0.305816562719583,1653.50712133376
-0.315373496095491,1653.51712133376
-0.32531080717771,1653.52712133376
-0.335436057490017,1653.53712133376
-0.345100532298133,1653.54712133376
-0.354544087771011,1653.55712133376
-0.363822393677133,1653.56712133376
-0.373004599158092,1653.57712133376
-0.382136561194408,1653.58712133376
-0.390294959206799,1653.59712133376
-0.398174102357345,1653.60712133376
-0.404886883189008,1653.61712133376
-0.41130428176931,1653.62712133376
-0.417520092651638,1653.63712133376
-0.423804183440557,1653.64712133376
-0.430587026198233,1653.65712133376
-0.438011770754784,1653.66712133376
-0.445745859717468,1653.67712133376
-0.453269095974325,1653.68712133376
-0.460656834194867,1653.69712133376
-0.46779866167992,1653.70712133376
-0.474985132804485,1653.71712133376
-0.482208342991075,1653.72712133376
-0.489242618650871,1653.73712133376
-0.495929453630449,1653.74712133376
-0.502760592176898,1653.75712133376
-0.509842373974041,1653.76712133376
-0.517203564211361,1653.77712133376
-0.52448184020121,1653.78712133376
-0.530017975945635,1653.79712133376
-0.53199116238318,1653.80712133376
-0.52691119721589,1653.81712133376
-0.512707392759909,1653.82712133376
-0.488552601953801,1653.83712133376
-0.456277430749957,1653.84712133376
-0.418537823666506,1653.85712133376
-0.378674150981905,1653.86712133376
-0.339528486214399,1653.87712133376
-0.303087380816254,1653.88712133376
-0.271264706619367,1653.89712133376
-0.244531630818978,1653.90712133376
-0.223265629639083,1653.91712133376
-0.20860726892191,1653.92712133376
-0.200282503444017,1653.93712133376
-0.197714944179255,1653.94712133376
-0.199870461635175,1653.95712133376
-0.205530618066939,1653.96712133376
-0.21384250901982,1653.97712133376
-0.224149499727542,1653.98712133376
-0.235081817881134,1653.99712133376
-0.246113470180472,1654.00712133376
-0.256611653050484,1654.01712133376
-0.265713013261752,1654.02712133376
-0.274678022232269,1654.03712133376
-0.282901096062031,1654.04712133376
-0.290745718435528,1654.05712133376
-0.298976997216616,1654.06712133376
-0.307252082015412,1654.07712133376
-0.316519862928846,1654.08712133376
-0.325615203382811,1654.09712133376
-0.334466153546293,1654.10712133376
-0.34159129288109,1654.11712133376
-0.34627059799653,1654.12712133376
-0.349145541123459,1654.13712133376
-0.349304102514796,1654.14712133376
-0.348269761265479,1654.15712133376
-0.344848028789918,1654.16712133376
-0.340674880733717,1654.17712133376
-0.336174780555238,1654.18712133376
-0.331253897005268,1654.19712133376
-0.327473632379348,1654.20712133376
-0.324766284199189,1654.21712133376
-0.323530914184855,1654.22712133376
-0.323813150208309,1654.23712133376
-0.325590317531838,1654.24712133376
-0.327987727956716,1654.25712133376
-0.331110903200775,1654.26712133376
-0.335207302806251,1654.27712133376
-0.340415115198765,1654.28712133376
-0.346938078574688,1654.29712133376
-0.354296972595866,1654.30712133376
-0.361650900896756,1654.31712133376
-0.369033091381031,1654.32712133376
-0.375994747513465,1654.33712133376
-0.38270957661688,1654.34712133376
-0.389163165375996,1654.35712133376
-0.395250817174599,1654.36712133376
-0.400791721680535,1654.37712133376
-0.40581517674662,1654.38712133376
-0.410809255995899,1654.39712133376
-0.415138188725448,1654.40712133376
-0.419317516503694,1654.41712133376
-0.423791764221493,1654.42712133376
-0.428744250744955,1654.43712133376
-0.433883672991217,1654.44712133376
-0.438622940605252,1654.45712133376
-0.443187034833288,1654.46712133376
-0.446981553100457,1654.47712133376
-0.450089677782617,1654.48712133376
-0.453814561360628,1654.49712133376
-0.457496912525256,1654.50712133376
-0.462021862875245,1654.51712133376
-0.466830231510972,1654.52712133376
-0.471441099481098,1654.53712133376
-0.47611557412275,1654.54712133376
-0.481268179049262,1654.55712133376
-0.486396576640304,1654.56712133376
-0.491984072432029,1654.57712133376
-0.496968578171232,1654.58712133376
-0.500823523978262,1654.59712133376
-0.501892373143046,1654.60712133376
-0.49703155561073,1654.61712133376
-0.48371433048689,1654.62712133376
-0.46044551685091,1654.63712133376
-0.428217560396907,1654.64712133376
-0.388670050431608,1654.65712133376
-0.345678322786252,1654.66712133376
-0.30116874637711,1654.67712133376
-0.258081594212761,1654.68712133376
-0.218295192688137,1654.69712133376
-0.183432227979265,1654.70712133376
-0.155301108348173,1654.71712133376
-0.133187882784064,1654.72712133376
-0.117972264277083,1654.73712133376
-0.108823361488854,1654.74712133376
-0.104266711059517,1654.75712133376
-0.103852767438761,1654.76712133376
-0.106171832905833,1654.77712133376
-0.110237791782992,1654.78712133376
-0.115734629296381,1654.79712133376
-0.121539685850767,1654.80712133376
-0.126985793853935,1654.81712133376
-0.131628767959379,1654.82712133376
-0.134869901120036,1654.83712133376
-0.136727223007915,1654.84712133376
-0.138270742112818,1654.85712133376
-0.140679346298676,1654.86712133376
-0.144915226525631,1654.87712133376
-0.150779481950816,1654.88712133376
-0.157779011936137,1654.89712133376
-0.1652199515454,1654.90712133376
-0.172112153576337,1654.91712133376
-0.177615927655454,1654.92712133376
-0.182265479612675,1654.93712133376
-0.184645164696293,1654.94712133376
-0.185341877440148,1654.95712133376
-0.183893654382241,1654.96712133376
-0.181032195487524,1654.97712133376
-0.177039207153977,1654.98712133376
-0.171209918655829,1654.99712133376
-0.165474478376498,1655.00712133376
-0.159995072370918,1655.01712133376
-0.155082134042709,1655.02712133376
-0.15142640705102,1655.03712133376
-0.149558573337514,1655.04712133376
-0.149253672975797,1655.05712133376
-0.150196210135983,1655.06712133376
-0.152461598314217,1655.07712133376
-0.156395758148626,1655.08712133376
-0.160669856370797,1655.09712133376
-0.166119773571069,1655.10712133376
-0.172293491226332,1655.11712133376
-0.179458208530599,1655.12712133376
-0.186733802068592,1655.13712133376
-0.193879233610656,1655.14712133376
-0.200292022199768,1655.15712133376
-0.206141760190191,1655.16712133376
-0.211734465084367,1655.17712133376
-0.216319975237997,1655.18712133376
-0.220582689380454,1655.19712133376
-0.224358738029143,1655.20712133376
-0.227747606197946,1655.21712133376
-0.231351490326279,1655.22712133376
-0.235407268305452,1655.23712133376
-0.239699689737706,1655.24712133376
-0.243852092843407,1655.25712133376
-0.248339672794039,1655.26712133376
-0.252916696543363,1655.27712133376
-0.257489857807526,1655.28712133376
-0.262098353562015,1655.29712133376
-0.266694988378793,1655.30712133376
-0.271296987415095,1655.31712133376
-0.276086803667846,1655.32712133376
-0.281510659081142,1655.33712133376
-0.286877773396025,1655.34712133376
-0.292192154452675,1655.35712133376
-0.297318004079253,1655.36712133376
-0.301980616613216,1655.37712133376
-0.306710575669545,1655.38712133376
-0.311074102307809,1655.39712133376
-0.315292535938422,1655.40712133376
-0.31945229287798,1655.41712133376
-0.324394131037498,1655.42712133376
-0.329438239005594,1655.43712133376
-0.334934387531917,1655.44712133376
-0.339550893154997,1655.45712133376
-0.342567225330585,1655.46712133376
-0.340031413840498,1655.47712133376
-0.329829136720334,1655.48712133376
-0.309234289542635,1655.49712133376
-0.278334576195266,1655.50712133376
-0.238939449150253,1655.51712133376
-0.193397499583738,1655.52712133376
-0.145292912328613,1655.53712133376
-0.0960476114885444,1655.54712133376
-0.0482585095730234,1655.55712133376
-0.00444233809990461,1655.56712133376
0.0344103616049098,1655.57712133376
0.0663999108937861,1655.58712133376
0.0919920291317497,1655.59712133376
0.110456712080455,1655.60712133376
0.123108278721363,1655.61712133376
0.13014511015775,1655.62712133376
0.132743599010625,1655.63712133376
0.13200534917575,1655.64712133376
0.129342513657175,1655.65712133376
0.125752231416347,1655.66712133376
0.121493391358728,1655.67712133376
0.117339417814414,1655.68712133376
0.113362316458257,1655.69712133376
0.110447186211104,1655.70712133376
0.107564020727094,1655.71712133376
0.10515263984394,1655.72712133376
0.103007209137418,1655.73712133376
0.0997926543974859,1655.74712133376
0.0951550654016576,1655.75712133376
0.0892115871244478,1655.76712133376
0.0824143682951248,1655.77712133376
0.0755015175814004,1655.78712133376
0.069127704384149,1655.79712133376
0.0643477830575037,1655.80712133376
0.0613673542363925,1655.81712133376
0.0601493572168061,1655.82712133376
0.0606782416097393,1655.83712133376
0.0628904037332048,1655.84712133376
0.0665716047479016,1655.85712133376
0.0708660622400623,1655.86712133376
0.0756177136998192,1655.87712133376
0.0805474009590581,1655.88712133376
0.0848169443635519,1655.89712133376
0.0880089121895088,1655.90712133376
0.0896396385621965,1655.91712133376
0.0900218197693942,1655.92712133376
0.08890173926773,1655.93712133376
0.087239149829696,1655.94712133376
0.0843576949576501,1655.95712133376
0.0805292890022656,1655.96712133376
0.0755659953280168,1655.97712133376
0.0696203218847648,1655.98712133376
0.0632167236942298,1655.99712133376
0.0562407395688957,1656.00712133376
0.0492351468837418,1656.01712133376
0.0431560579239167,1656.02712133376
0.0367051428139382,1656.03712133376
0.0307392162360937,1656.04712133376
0.0245991844996095,1656.05712133376
0.0185599594388955,1656.06712133376
0.0130834158123656,1656.07712133376
0.00788240888591652,1656.08712133376
0.00221286760534617,1656.09712133376
-0.00340361839306798,1656.10712133376
-0.0097329395181324,1656.11712133376
-0.0160039579501457,1656.12712133376
-0.0221974326292451,1656.13712133376
-0.0284260924694459,1656.14712133376
-0.0346101150028065,1656.15712133376
-0.0409598785206341,1656.16712133376
-0.0469966941593228,1656.17712133376
-0.0533833533575281,1656.18712133376
-0.0601271583176392,1656.19712133376
-0.0675395468343448,1656.20712133376
-0.0754840823634977,1656.21712133376
-0.0832149185565875,1656.22712133376
-0.0904048816577168,1656.23712133376
-0.0969203133602661,1656.24712133376
-0.103120086191162,1656.25712133376
-0.109330412874431,1656.26712133376
-0.115725101855604,1656.27712133376
-0.121412473345849,1656.28712133376
-0.127784235299471,1656.29712133376
-0.134086938931499,1656.30712133376
-0.141254311692436,1656.31712133376
-0.148284014577713,1656.32712133376
-0.155421940616969,1656.33712133376
-0.161963882159818,1656.34712133376
-0.165561810495497,1656.35712133376
-0.164376255388696,1656.36712133376
-0.155066057163858,1656.37712133376
-0.134363545322839,1656.38712133376
-0.103079968650655,1656.39712133376
-0.0622652859371962,1656.40712133376
-0.0149051199539687,1656.41712133376
0.0357204054592552,1656.42712133376
0.0871487498455559,1656.43712133376
0.137269061081748,1656.44712133376
0.184206014249453,1656.45712133376
0.22611794545174,1656.46712133376
0.260960143067614,1656.47712133376
0.288032942278446,1656.48712133376
0.3072418139485,1656.49712133376
0.319127676140049,1656.50712133376
0.325105864183116,1656.51712133376
0.326682284466575,1656.52712133376
0.32462082757964,1656.53712133376
0.319897286209764,1656.54712133376
0.314034152686808,1656.55712133376
0.307401059052868,1656.56712133376
0.301387294925739,1656.57712133376
0.296249705560898,1656.58712133376
0.291853270733384,1656.59712133376
0.288688733831106,1656.60712133376
0.285841250816159,1656.61712133376
0.282132976120377,1656.62712133376
0.27706447935494,1656.63712133376
0.270034594817475,1656.64712133376
0.261809979285881,1656.65712133376
0.253135363721956,1656.66712133376
0.245011789342281,1656.67712133376
0.238252325302741,1656.68712133376
0.232800696353729,1656.69712133376
0.229041340510265,1656.70712133376
0.227100856790172,1656.71712133376
0.226916821805068,1656.72712133376
0.22802013708772,1656.73712133376
0.230422701263235,1656.74712133376
0.233929801916576,1656.75712133376
0.238804186652857,1656.76712133376
0.243181734561015,1656.77712133376
0.246989493397738,1656.78712133376
0.249010102694999,1656.79712133376
0.249615489999266,1656.80712133376
0.24796845089238,1656.81712133376
0.245359011249436,1656.82712133376
0.241090457205982,1656.83712133376
0.235379642223241,1656.84712133376
0.228559813304069,1656.85712133376
0.220577696907711,1656.86712133376
0.211254302698736,1656.87712133376
0.201373089048118,1656.88712133376
0.190956445354379,1656.89712133376
0.180131697032313,1656.90712133376
0.169797526071069,1656.91712133376
0.159744722249429,1656.92712133376
0.150544918619743,1656.93712133376
