PPG,time
0.0548606424969371,2972.62908355427
0.105103668910372,2972.63908355427
0.0880088154980346,2972.64908355427
0.0913346496250362,2972.65908355427
0.0825693519526671,2972.66908355427
0.0809385237646373,2972.67908355427
0.0744811054912363,2972.68908355427
0.0697684079219211,2972.69908355427
0.0632368759570658,2972.70908355427
0.057484198844381,2972.71908355427
0.0512706372246422,2972.72908355427
0.0448678116842196,2972.73908355427
0.0391484654237755,2972.74908355427
0.0364542214523606,2972.75908355427
0.0386435779762176,2972.76908355427
0.0485550103944647,2972.77908355427
0.0685122967065382,2972.78908355427
0.100223333658635,2972.79908355427
0.142478722245521,2972.80908355427
0.193026181256615,2972.81908355427
0.24755924173046,2972.82908355427
0.301788091123462,2972.83908355427
0.35251145920227,2972.84908355427
0.396301818444595,2972.85908355427
0.431933091235469,2972.86908355427
0.45801373066223,2972.87908355427
0.475817063073939,2972.88908355427
0.485476555604423,2972.89908355427
0.489325189368457,2972.90908355427
0.488451034293936,2972.91908355427
0.485652635315856,2972.92908355427
0.482648387818584,2972.93908355427
0.480206827568291,2972.94908355427
0.479326448731476,2972.95908355427
0.480505373030286,2972.96908355427
0.482928665389799,2972.97908355427
0.48733853580856,2972.98908355427
0.493475608259593,2972.99908355427
0.499813423834755,2973.00908355427
0.506901109886227,2973.01908355427
0.513462523171904,2973.02908355427
0.519373819646381,2973.03908355427
0.523624538346592,2973.04908355427
0.525959177423108,2973.05908355427
0.525296199166375,2973.06908355427
0.521773159475392,2973.07908355427
0.515514323257273,2973.08908355427
0.507536540012671,2973.09908355427
0.497569753024937,2973.10908355427
0.488108430069372,2973.11908355427
0.480172286432455,2973.12908355427
0.474625568306255,2973.13908355427
0.472020209998173,2973.14908355427
0.472234102785301,2973.15908355427
0.474204864899586,2973.16908355427
0.477188763867694,2973.17908355427
0.480088671378328,2973.18908355427
0.483187144844813,2973.19908355427
0.484915617410139,2973.20908355427
0.485419441258621,2973.21908355427
0.485239108430581,2973.22908355427
0.482917351610106,2973.23908355427
0.478991223196006,2973.24908355427
0.473767073527277,2973.25908355427
0.467438120801478,2973.26908355427
0.459938765967295,2973.27908355427
0.451884224833929,2973.28908355427
0.442888370536312,2973.29908355427
0.433800718131281,2973.30908355427
0.424440918024532,2973.31908355427
0.415381411013239,2973.32908355427
0.406133863236551,2973.33908355427
0.396715962072211,2973.34908355427
0.386381350592974,2973.35908355427
0.376433377370333,2973.36908355427
0.366880648219239,2973.37908355427
0.357456732679117,2973.38908355427
0.348217397326781,2973.39908355427
0.338659921422042,2973.40908355427
0.329564696142008,2973.41908355427
0.320699441847775,2973.42908355427
0.311838044089546,2973.43908355427
0.302907049220931,2973.44908355427
0.294235514006084,2973.45908355427
0.285078013628868,2973.46908355427
0.276126211681992,2973.47908355427
0.267172040082356,2973.48908355427
0.258398552185253,2973.49908355427
0.249633556579166,2973.50908355427
0.240218290147603,2973.51908355427
0.230709924476368,2973.52908355427
0.221243374593984,2973.53908355427
0.211820330957334,2973.54908355427
0.202575960556094,2973.55908355427
0.194218647346792,2973.56908355427
0.185711733076236,2973.57908355427
0.1771526005824,2973.58908355427
0.168723016643619,2973.59908355427
0.160289410507665,2973.60908355427
0.151644219650318,2973.61908355427
0.143159069109171,2973.62908355427
0.134923514071555,2973.63908355427
0.126173499203284,2973.64908355427
0.117757159589699,2973.65908355427
0.109868245994504,2973.66908355427
0.102997969748622,2973.67908355427
0.0961199713651533,2973.68908355427
0.0892855641150143,2973.69908355427
0.0825133804769815,2973.70908355427
0.0746572043682392,2973.71908355427
0.0665554710231202,2973.72908355427
0.0577953901861143,2973.73908355427
0.0491637974927399,2973.74908355427
0.0404631545716291,2973.75908355427
0.0319796510623672,2973.76908355427
0.0239801946272349,2973.77908355427
0.0157327374045639,2973.78908355427
0.00750748414948916,2973.79908355427
-0.00131384644091975,2973.80908355427
-0.0100757577636793,2973.81908355427
-0.0194322234826199,2973.82908355427
-0.0289063233738232,2973.83908355427
-0.0378854457035565,2973.84908355427
-0.0462731995791434,2973.85908355427
-0.0533363862322474,2973.86908355427
-0.0581415902154527,2973.87908355427
-0.0585809308992287,2973.88908355427
-0.0522444454584756,2973.89908355427
-0.0370859402605448,2973.90908355427
-0.0107314936428915,2973.91908355427
0.0265187328795786,2973.92908355427
0.0724115812417773,2973.93908355427
0.122231618369854,2973.94908355427
0.172300242792648,2973.95908355427
0.218493342949246,2973.96908355427
0.257657224429711,2973.97908355427
0.287875292813171,2973.98908355427
0.308533699936717,2973.99908355427
0.320037136013942,2974.00908355427
0.32398827183317,2974.01908355427
0.321736485320502,2974.02908355427
0.31566057564345,2974.03908355427
0.308362115652401,2974.04908355427
0.301062035808754,2974.05908355427
0.294450625692306,2974.06908355427
0.289650301942997,2974.07908355427
0.286804588695833,2974.08908355427
0.285672290796819,2974.09908355427
0.285631587219204,2974.10908355427
0.287081038418547,2974.11908355427
0.289294412729195,2974.12908355427
0.291886183545738,2974.13908355427
0.294502819710097,2974.14908355427
0.296939015521628,2974.15908355427
0.299091696651394,2974.16908355427
0.300060356065669,2974.17908355427
0.29889222491404,2974.18908355427
0.294485253478738,2974.19908355427
0.287060721515743,2974.20908355427
0.277652733760127,2974.21908355427
0.266821760435584,2974.22908355427
0.25665227346725,2974.23908355427
0.247514980054037,2974.24908355427
0.240311007887284,2974.25908355427
0.235954141826112,2974.26908355427
0.23347528296302,2974.27908355427
0.233364410136112,2974.28908355427
0.234866128974306,2974.29908355427
0.236830376709604,2974.30908355427
0.238305195113388,2974.31908355427
0.239232056687429,2974.32908355427
0.239323737086156,2974.33908355427
0.238179636412263,2974.34908355427
0.236706301393981,2974.35908355427
0.234064265033479,2974.36908355427
0.230383220604494,2974.37908355427
0.22576144983589,2974.38908355427
0.219848388306696,2974.39908355427
0.212941675759418,2974.40908355427
0.204916031613427,2974.41908355427
0.196058546781722,2974.42908355427
0.186687517338614,2974.43908355427
0.176981420546014,2974.44908355427
0.167485503617763,2974.45908355427
0.157875705258748,2974.46908355427
0.14829094677901,2974.47908355427
0.138805970127976,2974.48908355427
0.12902157414071,2974.49908355427
0.119467140471245,2974.50908355427
0.110041175250163,2974.51908355427
0.101315933673945,2974.52908355427
0.0923729407895749,2974.53908355427
0.0834818955449293,2974.54908355427
0.0744127426276847,2974.55908355427
0.0654335933821319,2974.56908355427
0.0565026455408252,2974.57908355427
0.0477575233921822,2974.58908355427
0.039885811391245,2974.59908355427
0.0322445286356552,2974.60908355427
0.0253760171187415,2974.61908355427
0.0186968999880556,2974.62908355427
0.0126704850948131,2974.63908355427
0.00624721575353649,2974.64908355427
-0.000112909569318116,2974.65908355427
-0.00705731291369938,2974.66908355427
-0.0142461653520419,2974.67908355427
-0.0219230950671396,2974.68908355427
-0.0294697995978395,2974.69908355427
-0.0370088076561467,2974.70908355427
-0.0442870212483013,2974.71908355427
-0.0513290582122878,2974.72908355427
-0.0583008869877162,2974.73908355427
-0.0652832557451243,2974.74908355427
-0.0719022624116669,2974.75908355427
-0.0783760687028906,2974.76908355427
-0.0853101186534716,2974.77908355427
-0.0920004478020021,2974.78908355427
-0.0993511330714758,2974.79908355427
-0.106104870055316,2974.80908355427
-0.112523036812316,2974.81908355427
-0.118100139063711,2974.82908355427
-0.12358013223178,2974.83908355427
-0.128362860992635,2974.84908355427
-0.132909205943805,2974.85908355427
-0.137364589181163,2974.86908355427
-0.141842236319852,2974.87908355427
-0.147578871549124,2974.88908355427
-0.153814497260282,2974.89908355427
-0.160294090513557,2974.90908355427
-0.166937633737889,2974.91908355427
-0.173762385419909,2974.92908355427
-0.180999543544795,2974.93908355427
-0.188792353949383,2974.94908355427
-0.196949398892469,2974.95908355427
-0.205097037323598,2974.96908355427
-0.212156467524013,2974.97908355427
-0.218910403898074,2974.98908355427
-0.224768092283635,2974.99908355427
-0.228338717631467,2975.00908355427
-0.226837163427055,2975.01908355427
-0.217604162522422,2975.02908355427
-0.198406377942034,2975.03908355427
-0.167926219752323,2975.04908355427
-0.127162621757725,2975.05908355427
-0.0797043846170988,2975.06908355427
-0.0293722669724097,2975.07908355427
0.0189921699764141,2975.08908355427
0.0617023450733024,2975.09908355427
0.0960103292547345,2975.10908355427
0.121313787627264,2975.11908355427
0.138461516067287,2975.12908355427
0.147234245004049,2975.13908355427
0.149027140427387,2975.14908355427
0.14557672272432,2975.15908355427
0.138501706791059,2975.16908355427
0.130301602121673,2975.17908355427
0.122557401668201,2975.18908355427
0.116848336498699,2975.19908355427
0.112907806004796,2975.20908355427
0.111240504967868,2975.21908355427
0.110613511430595,2975.22908355427
0.111935359042071,2975.23908355427
0.11449496776263,2975.24908355427
0.117339594101301,2975.25908355427
0.120606946014986,2975.26908355427
0.124304085158963,2975.27908355427
0.127347674585329,2975.28908355427
0.130032735248511,2975.29908355427
0.131040225858902,2975.30908355427
0.129606525202129,2975.31908355427
0.125668404150801,2975.32908355427
0.11937925427574,2975.33908355427
0.111253121775305,2975.34908355427
0.102230541570582,2975.35908355427
0.0937732679736084,2975.36908355427
0.0876172035536807,2975.37908355427
0.0837966445650795,2975.38908355427
0.0826060205350104,2975.39908355427
0.0830177366993051,2975.40908355427
0.0853662566577462,2975.41908355427
0.0884402473791081,2975.42908355427
0.0914932860483566,2975.43908355427
0.0936496791598825,2975.44908355427
0.0956400901863235,2975.45908355427
0.0970959792757903,2975.46908355427
0.0978639047652003,2975.47908355427
0.097401886770165,2975.48908355427
0.0953242521244823,2975.49908355427
0.0926872725644201,2975.50908355427
0.0879048807387243,2975.51908355427
0.0816510598065015,2975.52908355427
0.0743384556266233,2975.53908355427
0.0659670480214601,2975.54908355427
0.057670846187379,2975.55908355427
0.0494749659954412,2975.56908355427
0.0420557326727998,2975.57908355427
0.0348507418418478,2975.58908355427
0.0275575701273069,2975.59908355427
0.020674081634867,2975.60908355427
0.0133865400931013,2975.61908355427
0.00595441402300849,2975.62908355427
-0.00177133186499639,2975.63908355427
-0.00929851069024479,2975.64908355427
-0.0176397164608115,2975.65908355427
-0.0265188301300234,2975.66908355427
-0.0349991077488705,2975.67908355427
-0.0433527487702769,2975.68908355427
-0.0509788710821452,2975.69908355427
-0.0579885094061564,2975.70908355427
-0.0646764504653648,2975.71908355427
-0.070819731251751,2975.72908355427
-0.0767467726607837,2975.73908355427
-0.0822492053295017,2975.74908355427
-0.0875784141784571,2975.75908355427
-0.0930400774102204,2975.76908355427
-0.0988211105767573,2975.77908355427
-0.105367497468435,2975.78908355427
-0.111568040775575,2975.79908355427
-0.11774701950416,2975.80908355427
-0.123411823335181,2975.81908355427
-0.128560270366786,2975.82908355427
-0.133337284327148,2975.83908355427
-0.138119594206787,2975.84908355427
-0.143355537930738,2975.85908355427
-0.149262666157259,2975.86908355427
-0.155557726371155,2975.87908355427
-0.161895093166071,2975.88908355427
-0.167842937607251,2975.89908355427
-0.172866230673732,2975.90908355427
-0.177338519635984,2975.91908355427
-0.181434329940951,2975.92908355427
-0.185375164880016,2975.93908355427
-0.189229472923188,2975.94908355427
-0.193144620683423,2975.95908355427
-0.197141816870364,2975.96908355427
-0.201127195930749,2975.97908355427
-0.204869376982336,2975.98908355427
-0.208713984416938,2975.99908355427
-0.21198390436953,2976.00908355427
-0.215960395481842,2976.01908355427
-0.22008861229707,2976.02908355427
-0.225020322984956,2976.03908355427
-0.230328459476979,2976.04908355427
-0.236562126727839,2976.05908355427
-0.242826333585232,2976.06908355427
-0.24861531554934,2976.07908355427
-0.25404564036033,2976.08908355427
-0.258560778201757,2976.09908355427
-0.262666105371891,2976.10908355427
-0.265313213840989,2976.11908355427
-0.264413174229655,2976.12908355427
-0.259004063354832,2976.13908355427
-0.245090493764993,2976.14908355427
-0.221160995159652,2976.15908355427
-0.186120420273539,2976.16908355427
-0.141840894639325,2976.17908355427
-0.0922685113649021,2976.18908355427
-0.0414597055799927,2976.19908355427
0.00587744596434123,2976.20908355427
0.0462233359159832,2976.21908355427
0.0777901683522413,2976.22908355427
0.0997690538548655,2976.23908355427
0.113043274707601,2976.24908355427
0.118885942423051,2976.25908355427
0.118995818273689,2976.26908355427
0.114815648875679,2976.27908355427
0.108506642249505,2976.28908355427
0.102182258175242,2976.29908355427
0.0968329657496533,2976.30908355427
0.0931570210769712,2976.31908355427
0.0918470696313074,2976.32908355427
0.0920646112202785,2976.33908355427
0.0934881271278269,2976.34908355427
0.0960077451019398,2976.35908355427
0.0992442128240012,2976.36908355427
0.103665613055009,2976.37908355427
0.108150303385647,2976.38908355427
0.113309067679105,2976.39908355427
0.118179751575959,2976.40908355427
0.121797812241221,2976.41908355427
0.122997343669246,2976.42908355427
0.121196065460993,2976.43908355427
0.116292594655524,2976.44908355427
0.110010500256205,2976.45908355427
0.103261311206158,2976.46908355427
0.0982275656432981,2976.47908355427
0.0950995541090612,2976.48908355427
0.0947100773570998,2976.49908355427
0.0975458052307341,2976.50908355427
0.10236204937031,2976.51908355427
0.108376473365843,2976.52908355427
0.114869237025356,2976.53908355427
0.120955273149828,2976.54908355427
0.126057032395904,2976.55908355427
0.1301476566549,2976.56908355427
0.133043043018753,2976.57908355427
0.134962731042063,2976.58908355427
0.135037201257511,2976.59908355427
0.133832845036782,2976.60908355427
0.131752453898461,2976.61908355427
0.128830240215575,2976.62908355427
0.124528713382673,2976.63908355427
0.119338087522759,2976.64908355427
0.113342358290987,2976.65908355427
0.106472296595055,2976.66908355427
0.0993997404558573,2976.67908355427
0.0919941330590157,2976.68908355427
0.0852442698957428,2976.69908355427
0.078932911849439,2976.70908355427
0.0727839472491727,2976.71908355427
0.0666950318494189,2976.72908355427
0.0604482109624452,2976.73908355427
0.0540630528061933,2976.74908355427
0.0480936519344385,2976.75908355427
0.0422727515538379,2976.76908355427
0.0362344469458938,2976.77908355427
0.0298563214845361,2976.78908355427
0.0235335426982539,2976.79908355427
0.0169283641139379,2976.80908355427
0.011024446869627,2976.81908355427
0.00494453243524509,2976.82908355427
-0.000798707835954563,2976.83908355427
-0.00636811870507953,2976.84908355427
-0.011302601105205,2976.85908355427
-0.0159057797476068,2976.86908355427
-0.0203684585106593,2976.87908355427
-0.025257293745994,2976.88908355427
-0.0303711438874107,2976.89908355427
-0.0360429593617425,2976.90908355427
-0.0418920781606941,2976.91908355427
-0.0475434332360953,2976.92908355427
-0.0526350439447791,2976.93908355427
-0.0579543691776,2976.94908355427
-0.0630725925556869,2976.95908355427
-0.0681414327017449,2976.96908355427
-0.0733964332691936,2976.97908355427
-0.0781316579685192,2976.98908355427
-0.0834305280168704,2976.99908355427
-0.0879374106334561,2977.00908355427
-0.0918076728453883,2977.01908355427
-0.0950541781372083,2977.02908355427
-0.0972709322334615,2977.03908355427
-0.0993789444059057,2977.04908355427
-0.101739464609536,2977.05908355427
-0.104756571722926,2977.06908355427
-0.108472921112593,2977.07908355427
-0.113169371311079,2977.08908355427
-0.118415911457729,2977.09908355427
-0.123716496985596,2977.10908355427
-0.129604911272334,2977.11908355427
-0.136116034605519,2977.12908355427
-0.142776793392536,2977.13908355427
-0.149274579210832,2977.14908355427
-0.155907793967184,2977.15908355427
-0.161936462647611,2977.16908355427
-0.167162208697688,2977.17908355427
-0.172226324239688,2977.18908355427
-0.175600297167575,2977.19908355427
-0.175623518490506,2977.20908355427
-0.170904689115123,2977.21908355427
-0.157927735673856,2977.22908355427
-0.134880826518903,2977.23908355427
-0.100924860289883,2977.24908355427
-0.057577228589914,2977.25908355427
-0.00817080324002352,2977.26908355427
0.0430730851196395,2977.27908355427
0.0920385757841187,2977.28908355427
0.134579855532666,2977.29908355427
0.169360357425817,2977.30908355427
0.195202136272652,2977.31908355427
0.212569985240726,2977.32908355427
0.221817642014467,2977.33908355427
0.225253743990415,2977.34908355427
0.224119120390832,2977.35908355427
0.220345663936549,2977.36908355427
0.21531416478416,2977.37908355427
0.210267703248507,2977.38908355427
0.206630074543934,2977.39908355427
0.205090856644843,2977.40908355427
0.205555753315945,2977.41908355427
0.207759299024073,2977.42908355427
0.211677124283104,2977.43908355427
0.216512950861346,2977.44908355427
0.222571037344645,2977.45908355427
0.229379436610484,2977.46908355427
0.236051773727997,2977.47908355427
0.242546849981861,2977.48908355427
0.24780025527688,2977.49908355427
0.250744633135592,2977.50908355427
0.250921413670709,2977.51908355427
0.248255443862043,2977.52908355427
0.242485064430237,2977.53908355427
0.235420270906268,2977.54908355427
0.227688614801242,2977.55908355427
0.220558394666332,2977.56908355427
0.215744960051788,2977.57908355427
0.212994626534125,2977.58908355427
0.212689112877417,2977.59908355427
0.214575778590225,2977.60908355427
0.218096663512708,2977.61908355427
0.221743663951513,2977.62908355427
0.225875906161901,2977.63908355427
0.229444303545859,2977.64908355427
0.23277693345836,2977.65908355427
0.235525218852226,2977.66908355427
0.23728317732622,2977.67908355427
0.238012787906651,2977.68908355427
0.23761112357635,2977.69908355427
0.236080919741475,2977.70908355427
0.233091511206826,2977.71908355427
0.229205499125148,2977.72908355427
0.224610160707323,2977.73908355427
0.219159362553593,2977.74908355427
0.212497565002129,2977.75908355427
0.205080098821827,2977.76908355427
0.197311356907918,2977.77908355427
0.190134929191176,2977.78908355427
0.183228769354996,2977.79908355427
0.176600284881953,2977.80908355427
0.170046383079181,2977.81908355427
0.162839107116235,2977.82908355427
0.155057614375532,2977.83908355427
0.147080376364423,2977.84908355427
0.139566809464328,2977.85908355427
0.132212676891654,2977.86908355427
0.125576140681397,2977.87908355427
0.118787584791907,2977.88908355427
0.112476741386451,2977.89908355427
0.106375959516279,2977.90908355427
0.0999584627598984,2977.91908355427
0.0940210434577914,2977.92908355427
0.088255582456341,2977.93908355427
0.0823922223733266,2977.94908355427
0.0763977099567093,2977.95908355427
0.0705228920537108,2977.96908355427
0.0647505160847262,2977.97908355427
0.0589366749873083,2977.98908355427
0.0536468242321815,2977.99908355427
0.0484610895116599,2978.00908355427
0.0431999341001958,2978.01908355427
0.0383364374050828,2978.02908355427
0.0333060557391535,2978.03908355427
0.0285544917805295,2978.04908355427
0.023672118018424,2978.05908355427
0.01873854786417,2978.06908355427
0.0135506243957606,2978.07908355427
0.00774677231102027,2978.08908355427
0.00188131524313734,2978.09908355427
-0.00414864500307134,2978.10908355427
-0.00993673379269777,2978.11908355427
-0.0159649752356471,2978.12908355427
-0.021358106045738,2978.13908355427
-0.0270513159113677,2978.14908355427
-0.0320002956126509,2978.15908355427
-0.0363997216636361,2978.16908355427
-0.0411235110402263,2978.17908355427
-0.04528380760304,2978.18908355427
-0.0495116996458187,2978.19908355427
-0.0534051514930402,2978.20908355427
-0.0572707018057533,2978.21908355427
-0.0612255239358819,2978.22908355427
-0.064773749036032,2978.23908355427
-0.0684770572572192,2978.24908355427
-0.0733743597313404,2978.25908355427
-0.0789226382783821,2978.26908355427
-0.0859788869597943,2978.27908355427
-0.093747559521989,2978.28908355427
-0.10147456551659,2978.29908355427
-0.109187742264301,2978.30908355427
-0.115650526700074,2978.31908355427
-0.120893101701519,2978.32908355427
-0.124800089073606,2978.33908355427
-0.126572364226152,2978.34908355427
-0.124033902509247,2978.35908355427
-0.114972847109218,2978.36908355427
-0.0960742562888797,2978.37908355427
-0.065838922240497,2978.38908355427
-0.0241013712231452,2978.39908355427
0.0258772148453922,2978.40908355427
0.0798729682224884,2978.41908355427
0.133168482687772,2978.42908355427
0.182358407249952,2978.43908355427
0.224787584833049,2978.44908355427
0.258820549538532,2978.45908355427
0.284388847022152,2978.46908355427
0.301421199210629,2978.47908355427
0.310952896041296,2978.48908355427
0.315118682311063,2978.49908355427
0.314981070054549,2978.50908355427
0.312149258615148,2978.51908355427
0.308705038873283,2978.52908355427
0.305677407062575,2978.53908355427
0.303726180348651,2978.54908355427
0.302956466593406,2978.55908355427
0.30365661729049,2978.56908355427
0.305592928625844,2978.57908355427
0.309387200551956,2978.58908355427
0.314470015904757,2978.59908355427
0.320972629824243,2978.60908355427
0.327812310573495,2978.61908355427
0.334976450650869,2978.62908355427
0.341350283211881,2978.63908355427
0.34607895414354,2978.64908355427
0.348425131635435,2978.65908355427
0.34759641524611,2978.66908355427
0.343677387773577,2978.67908355427
0.337791008904334,2978.68908355427
0.329933031388901,2978.69908355427
0.322303439022477,2978.70908355427
0.315501711298389,2978.71908355427
0.311043561078989,2978.72908355427
0.309480705745813,2978.73908355427
0.310125904670934,2978.74908355427
0.313355005796074,2978.75908355427
0.317719504607544,2978.76908355427
0.322712139341237,2978.77908355427
0.327774606741511,2978.78908355427
0.331543675571949,2978.79908355427
0.334303754919879,2978.80908355427
0.335976546864271,2978.81908355427
0.336984219353654,2978.82908355427
0.337015653178332,2978.83908355427
0.335960855272483,2978.84908355427
0.334449819754148,2978.85908355427
0.331534494675059,2978.86908355427
0.327600101044529,2978.87908355427
0.322809125416027,2978.88908355427
0.317620649099142,2978.89908355427
0.311919331593878,2978.90908355427
0.305644612227418,2978.91908355427
0.298875672116154,2978.92908355427
0.292133887493821,2978.93908355427
0.284582284717363,2978.94908355427
0.276508280990779,2978.95908355427
0.267965294241646,2978.96908355427
0.259574542993001,2978.97908355427
0.251571463757329,2978.98908355427
0.243462448382761,2978.99908355427
0.235610571251855,2979.00908355427
0.227463649314292,2979.01908355427
0.219142898826422,2979.02908355427
0.210797367304211,2979.03908355427
0.202415954835551,2979.04908355427
0.194668918343106,2979.05908355427
0.187407880220322,2979.06908355427
0.181129808199123,2979.07908355427
0.174602366394057,2979.08908355427
0.168448398278752,2979.09908355427
0.162429734173326,2979.10908355427
0.156522481460981,2979.11908355427
0.150895601629317,2979.12908355427
0.145118651612429,2979.13908355427
0.139714856809244,2979.14908355427
0.13372935375732,2979.15908355427
0.127236812557125,2979.16908355427
0.120270117053224,2979.17908355427
0.113073313408217,2979.18908355427
0.106162393088722,2979.19908355427
0.0997007617256856,2979.20908355427
0.0935779717213509,2979.21908355427
0.0876422227267542,2979.22908355427
0.0824587281541089,2979.23908355427
0.0773431376131028,2979.24908355427
0.0721473617799037,2979.25908355427
0.0665512832607659,2979.26908355427
0.0608264988090943,2979.27908355427
0.0555334455450689,2979.28908355427
0.0503019428349906,2979.29908355427
0.0454429530472869,2979.30908355427
0.0403605024044585,2979.31908355427
0.0348240225433298,2979.32908355427
0.0293379773655273,2979.33908355427
0.0238088214143444,2979.34908355427
0.0189816040014194,2979.35908355427
0.0146378381630268,2979.36908355427
0.0101627006584136,2979.37908355427
0.00497517716015616,2979.38908355427
-0.000416497053479252,2979.39908355427
-0.00692241727440319,2979.40908355427
-0.0141243816764088,2979.41908355427
-0.0219157322855728,2979.42908355427
-0.0300769546479346,2979.43908355427
-0.038033502093434,2979.44908355427
-0.0456674122789401,2979.45908355427
-0.0517427551138948,2979.46908355427
-0.0566271778903919,2979.47908355427
-0.0578260531629026,2979.48908355427
-0.0535246218240117,2979.49908355427
-0.0396390670258545,2979.50908355427
-0.0154664289738783,2979.51908355427
0.0200853853680602,2979.52908355427
0.0655760214731036,2979.53908355427
0.117572150714851,2979.54908355427
0.172977733907004,2979.55908355427
0.227538908780243,2979.56908355427
0.277771873706602,2979.57908355427
0.32192299358998,2979.58908355427
0.357870220585925,2979.59908355427
0.385302534245834,2979.60908355427
0.404267010593132,2979.61908355427
0.414739868631037,2979.62908355427
0.418608140794086,2979.63908355427
0.41736110888822,2979.64908355427
0.412687161929499,2979.65908355427
0.407063879013276,2979.66908355427
0.402367029902583,2979.67908355427
0.399682407991109,2979.68908355427
0.399085982192313,2979.69908355427
0.400290646643295,2979.70908355427
0.403210342627621,2979.71908355427
0.407190430455696,2979.72908355427
0.411804437121717,2979.73908355427
0.416725912329796,2979.74908355427
0.422237527768328,2979.75908355427
0.426803861495767,2979.76908355427
0.430650554050709,2979.77908355427
0.432673766546327,2979.78908355427
0.431968685271765,2979.79908355427
0.427825645264762,2979.80908355427
0.421136925656466,2979.81908355427
0.412293836524132,2979.82908355427
0.402810215842674,2979.83908355427
0.394035163989808,2979.84908355427
0.386525939419683,2979.85908355427
0.382142682263878,2979.86908355427
0.380552635279733,2979.87908355427
0.381501072043474,2979.88908355427
0.384219176488858,2979.89908355427
0.388600213518534,2979.90908355427
0.39387224101862,2979.91908355427
0.399071785059197,2979.92908355427
0.403562737501336,2979.93908355427
0.407222350703748,2979.94908355427
0.409132710113209,2979.95908355427
0.409839928513198,2979.96908355427
0.408610904090345,2979.97908355427
0.405791466169735,2979.98908355427
0.401919937352429,2979.99908355427
0.396566183243698,2980.00908355427
0.389935022672086,2980.01908355427
0.382558856024877,2980.02908355427
0.374601277812883,2980.03908355427
0.366354545898885,2980.04908355427
0.357765914812976,2980.05908355427
0.349344544839334,2980.06908355427
0.340177298338806,2980.07908355427
0.330473064793102,2980.08908355427
0.320167427305927,2980.09908355427
0.3099176668773,2980.10908355427
0.299463798056124,2980.11908355427
0.289593672798208,2980.12908355427
0.279708020441813,2980.13908355427
0.270419637594346,2980.14908355427
0.261673320819683,2980.15908355427
0.253307253781866,2980.16908355427
0.245072660516,2980.17908355427
0.23788172162971,2980.18908355427
0.230669050783878,2980.19908355427
0.223104648683113,2980.20908355427
0.215914842112087,2980.21908355427
0.208412760403467,2980.22908355427
0.201116436126279,2980.23908355427
0.194051422441247,2980.24908355427
0.187372445813283,2980.25908355427
0.181110735467482,2980.26908355427
0.174348622156157,2980.27908355427
0.167347216515486,2980.28908355427
0.160109530816272,2980.29908355427
0.152683825031009,2980.30908355427
0.145541793389031,2980.31908355427
0.138818448574306,2980.32908355427
0.13218949986091,2980.33908355427
0.126227281185264,2980.34908355427
0.119979092914895,2980.35908355427
0.113786223225504,2980.36908355427
0.107858767637702,2980.37908355427
0.102150491318196,2980.38908355427
0.0968862182027143,2980.39908355427
0.0919765563704985,2980.40908355427
0.087474409882413,2980.41908355427
0.0830687125672457,2980.42908355427
0.0783514779614209,2980.43908355427
0.0734765596406444,2980.44908355427
0.0686952072641849,2980.45908355427
0.0627069942171639,2980.46908355427
0.0562216898665642,2980.47908355427
0.0497950721523006,2980.48908355427
0.0430252365847681,2980.49908355427
0.0365241237670373,2980.50908355427
0.0297263582286467,2980.51908355427
0.0226354580552894,2980.52908355427
0.0151265352028779,2980.53908355427
0.00759509762004019,2980.54908355427
0.000472161170445555,2980.55908355427
-0.00609046361126372,2980.56908355427
-0.0109445563195964,2980.57908355427
-0.0143177655926442,2980.58908355427
-0.0136473772977205,2980.59908355427
-0.00714217822295639,2980.60908355427
0.0087593790517167,2980.61908355427
0.0359599533384798,2980.62908355427
0.0755886664667282,2980.63908355427
0.126280369634611,2980.64908355427
0.185140514094504,2980.65908355427
0.247495393939978,2980.66908355427
0.308990465458484,2980.67908355427
0.366580850678246,2980.68908355427
0.416465458014689,2980.69908355427
0.457555791614258,2980.70908355427
0.487955621364109,2980.71908355427
0.508399622761482,2980.72908355427
0.520557995380727,2980.73908355427
0.525742615105443,2980.74908355427
0.526157708867642,2980.75908355427
0.524071102023747,2980.76908355427
0.520084185895638,2980.77908355427
0.515804046831431,2980.78908355427
0.513030943559051,2980.79908355427
0.511883946051002,2980.80908355427
0.512686639029421,2980.81908355427
0.514960703944134,2980.82908355427
0.518533987040009,2980.83908355427
0.523693187653987,2980.84908355427
0.529543564710719,2980.85908355427
0.535079983679467,2980.86908355427
0.539693464777892,2980.87908355427
0.5429223302862,2980.88908355427
0.544143200998348,2980.89908355427
0.542741711361225,2980.90908355427
0.538221894407267,2980.91908355427
0.531306199435441,2980.92908355427
0.522897872491217,2980.93908355427
0.514851516371699,2980.94908355427
0.50878514943375,2980.95908355427
0.505703707473267,2980.96908355427
0.505483849784326,2980.97908355427
0.508776716477048,2980.98908355427
0.514271821719932,2980.99908355427
0.521201752352943,2981.00908355427
0.528547214820235,2981.01908355427
0.535653393122509,2981.02908355427
0.542532370487515,2981.03908355427
0.54861543249394,2981.04908355427
0.553435324938212,2981.05908355427
0.556194488941834,2981.06908355427
0.557547727422254,2981.07908355427
0.55714732650822,2981.08908355427
0.554194331880421,2981.09908355427
0.549527204325877,2981.10908355427
0.542357587644689,2981.11908355427
0.533494852463787,2981.12908355427
0.523597124069382,2981.13908355427
0.513353165998177,2981.14908355427
0.503300055627733,2981.15908355427
0.49339058637024,2981.16908355427
0.483466878446765,2981.17908355427
0.473492185561719,2981.18908355427
0.463297276792791,2981.19908355427
0.453082486508605,2981.20908355427
0.443007231844596,2981.21908355427
0.432432481307131,2981.22908355427
0.421880347193194,2981.23908355427
0.41169074838131,2981.24908355427
0.401473482412704,2981.25908355427
0.391218722000058,2981.26908355427
0.380722158110999,2981.27908355427
0.370639712162996,2981.28908355427
0.361003109985188,2981.29908355427
0.351536230523065,2981.30908355427
0.341986556867944,2981.31908355427
0.333027693320524,2981.32908355427
0.324278944580227,2981.33908355427
0.315206019618601,2981.34908355427
0.306354693133303,2981.35908355427
0.297678391865174,2981.36908355427
0.289311074999433,2981.37908355427
0.28109771532712,2981.38908355427
0.273009639114046,2981.39908355427
0.265414553313987,2981.40908355427
0.257499743718201,2981.41908355427
0.249229708412375,2981.42908355427
0.240787589963507,2981.43908355427
0.232328010413688,2981.44908355427
0.223784050421964,2981.45908355427
0.215201933820103,2981.46908355427
0.207150109185541,2981.47908355427
0.199668073241231,2981.48908355427
0.192515824395894,2981.49908355427
0.185888204589758,2981.50908355427
0.180084128922374,2981.51908355427
0.174131099538093,2981.52908355427
0.168180694138623,2981.53908355427
0.161778924355409,2981.54908355427
0.155707398375642,2981.55908355427
0.149518883254261,2981.56908355427
0.143481268222385,2981.57908355427
0.137594643908711,2981.58908355427
0.13160992973046,2981.59908355427
0.125050022993403,2981.60908355427
0.11795550514301,2981.61908355427
0.110079512425077,2981.62908355427
0.101780887756016,2981.63908355427
0.0933735314314524,2981.64908355427
0.0844040438404364,2981.65908355427
0.0758717853902281,2981.66908355427
0.068264190789134,2981.67908355427
0.0632448213360398,2981.68908355427
0.0630781677037509,2981.69908355427
0.0700530992119565,2981.70908355427
0.0878735875840272,2981.71908355427
0.119496658858402,2981.72908355427
0.165788497423739,2981.73908355427
0.224684135309779,2981.74908355427
0.292516048497289,2981.75908355427
0.365080238162022,2981.76908355427
0.437931249518669,2981.77908355427
0.50605692854729,2981.78908355427
0.566358638262696,2981.79908355427
0.616154231625249,2981.80908355427
0.65391116253929,2981.81908355427
0.679594211896945,2981.82908355427
0.694709456618869,2981.83908355427
0.700783901830766,2981.84908355427
0.700714797683997,2981.85908355427
0.697142663478448,2981.86908355427
0.691460150144774,2981.87908355427
0.685424591503786,2981.88908355427
0.680508578719837,2981.89908355427
0.677211498770636,2981.90908355427
0.676070732841521,2981.91908355427
0.678304820317728,2981.92908355427
0.683575154377393,2981.93908355427
0.691236372685862,2981.94908355427
0.700170197591798,2981.95908355427
0.709491463993741,2981.96908355427
0.718103874277411,2981.97908355427
0.725421059682413,2981.98908355427
0.730102578746651,2981.99908355427
0.73125465495722,2982.00908355427
0.728387477925925,2982.01908355427
0.721186886337183,2982.02908355427
0.711362346519342,2982.03908355427
0.700107477151768,2982.04908355427
0.689248895593836,2982.05908355427
0.680722763356794,2982.06908355427
0.675315758622329,2982.07908355427
0.673456673455554,2982.08908355427
0.675260130182905,2982.09908355427
0.679873884813975,2982.10908355427
0.687027984094937,2982.11908355427
0.695247718876142,2982.12908355427
0.70368484548436,2982.13908355427
0.711341609211818,2982.14908355427
0.717386449501193,2982.15908355427
0.721959306275877,2982.16908355427
0.724454611794071,2982.17908355427
0.725142609390298,2982.18908355427
0.723304697909089,2982.19908355427
0.719880733188884,2982.20908355427
0.714540354948663,2982.21908355427
0.707209106531204,2982.22908355427
0.697557195837517,2982.23908355427
0.686806287789821,2982.24908355427
0.674837305662001,2982.25908355427
0.662251433001993,2982.26908355427
0.64892523181879,2982.27908355427
0.634779032739682,2982.28908355427
0.620343837110564,2982.29908355427
0.606083202696902,2982.30908355427
0.590739862833309,2982.31908355427
0.575036335773114,2982.32908355427
0.559108085781168,2982.33908355427
0.543101495721062,2982.34908355427
0.527146033952351,2982.35908355427
0.511640182363282,2982.36908355427
0.497489969298324,2982.37908355427
0.483610384010139,2982.38908355427
0.469825835450067,2982.39908355427
0.456483821350584,2982.40908355427
0.443301174200829,2982.41908355427
0.430163214820393,2982.42908355427
0.41740248208178,2982.43908355427
0.405151326646604,2982.44908355427
0.393733068714165,2982.45908355427
0.383062844692639,2982.46908355427
0.372429944442593,2982.47908355427
0.362621513107603,2982.48908355427
0.352466112443945,2982.49908355427
0.342359764268371,2982.50908355427
0.331999652382093,2982.51908355427
0.321796840347462,2982.52908355427
0.311594903401026,2982.53908355427
0.301299050111383,2982.54908355427
0.291220765492228,2982.55908355427
0.280665897741764,2982.56908355427
0.269888516950385,2982.57908355427
0.25922860821189,2982.58908355427
0.249294220402629,2982.59908355427
0.239846781801267,2982.60908355427
0.230473834847932,2982.61908355427
0.22149576176732,2982.62908355427
0.212239037266229,2982.63908355427
0.203560930911103,2982.64908355427
0.194405684503609,2982.65908355427
0.185108319594579,2982.66908355427
0.175273606853829,2982.67908355427
0.164526046269209,2982.68908355427
0.152901154384863,2982.69908355427
0.140989031986512,2982.70908355427
0.128536132768316,2982.71908355427
0.115812525379643,2982.72908355427
0.103423920062149,2982.73908355427
0.0906619784484281,2982.74908355427
0.0786036005180116,2982.75908355427
0.0663877028218572,2982.76908355427
0.0550316502937392,2982.77908355427
0.046827657381289,2982.78908355427
0.0437029755035713,2982.79908355427
0.0498306185083096,2982.80908355427
0.0683231555880924,2982.81908355427
0.10081752753596,2982.82908355427
0.14707263700441,2982.83908355427
0.203846457088953,2982.84908355427
0.266745169415397,2982.85908355427
0.330788681166283,2982.86908355427
0.391613954812187,2982.87908355427
0.444177490644728,2982.88908355427
0.487254262550389,2982.89908355427
0.517725563788103,2982.90908355427
0.536004292545551,2982.91908355427
0.543599620766186,2982.92908355427
0.542347089776341,2982.93908355427
0.535201629002022,2982.94908355427
0.52432666550209,2982.95908355427
0.512403690899746,2982.96908355427
0.501052524738717,2982.97908355427
0.490902681876766,2982.98908355427
0.482568670089907,2982.99908355427
0.476232584031765,2983.00908355427
0.471253466899147,2983.01908355427
0.467520113620819,2983.02908355427
0.465299105558312,2983.03908355427
0.463650043512607,2983.04908355427
0.462830501131637,2983.05908355427
0.461864173509845,2983.06908355427
0.459434128685365,2983.07908355427
0.455126427858947,2983.08908355427
0.447769171598907,2983.09908355427
0.436987818425183,2983.10908355427
0.422231599000318,2983.11908355427
0.404776455263236,2983.12908355427
0.38618311033416,2983.13908355427
0.368193648529467,2983.14908355427
0.352053228115961,2983.15908355427
0.339079081563766,2983.16908355427
0.32977430785102,2983.17908355427
0.323617577490214,2983.18908355427
0.319601635370587,2983.19908355427
0.316531957816379,2983.20908355427
0.313632686001557,2983.21908355427
0.310266663971059,2983.22908355427
0.306133295865489,2983.23908355427
0.300643894774674,2983.24908355427
0.293757838742744,2983.25908355427
0.285724909347886,2983.26908355427
0.276503353622847,2983.27908355427
0.266147728434248,2983.28908355427
0.254861399402273,2983.29908355427
0.242841835588633,2983.30908355427
0.229975293901438,2983.31908355427
0.217081600108338,2983.32908355427
0.204177165821398,2983.33908355427
0.191644385007851,2983.34908355427
0.178929479823375,2983.35908355427
0.165803891825974,2983.36908355427
0.152108683023362,2983.37908355427
0.137351859219383,2983.38908355427
0.122027692317331,2983.39908355427
0.10621661350046,2983.40908355427
0.0906429609075123,2983.41908355427
0.0766568141614313,2983.42908355427
0.0637963608711892,2983.43908355427
0.05199291749169,2983.44908355427
0.0398802087335363,2983.45908355427
0.0272114240557447,2983.46908355427
0.0145290308761757,2983.47908355427
0.00144332782231141,2983.48908355427
-0.0109999672267997,2983.49908355427
-0.02275535038904,2983.50908355427
-0.0347792214552799,2983.51908355427
-0.0459994221541136,2983.52908355427
-0.0577095525498411,2983.53908355427
-0.0690365595168516,2983.54908355427
-0.0807050799403388,2983.55908355427
-0.0929728999058535,2983.56908355427
-0.106300381388107,2983.57908355427
-0.120487302971849,2983.58908355427
-0.134413386314879,2983.59908355427
-0.148632254665203,2983.60908355427
-0.161819162232699,2983.61908355427
-0.17483264095118,2983.62908355427
-0.187540025043389,2983.63908355427
-0.199473298151778,2983.64908355427
-0.21131166600838,2983.65908355427
-0.223265567092208,2983.66908355427
-0.235282189507119,2983.67908355427
-0.247009462497214,2983.68908355427
-0.25808898382522,2983.69908355427
-0.268975464394799,2983.70908355427
-0.280335413748766,2983.71908355427
-0.291632210159035,2983.72908355427
-0.302271463902044,2983.73908355427
-0.312487937344209,2983.74908355427
-0.322854527504361,2983.75908355427
-0.333952004870168,2983.76908355427
-0.345589601298935,2983.77908355427
-0.357527705901175,2983.78908355427
-0.369863015994263,2983.79908355427
-0.382295934605424,2983.80908355427
-0.395587994697185,2983.81908355427
-0.409339807003336,2983.82908355427
-0.422969120387134,2983.83908355427
-0.43648159654849,2983.84908355427
-0.450385694341212,2983.85908355427
-0.463878567470045,2983.86908355427
-0.475757826490877,2983.87908355427
-0.484704951418112,2983.88908355427
-0.488598660425974,2983.89908355427
-0.484483932463501,2983.90908355427
-0.471462385334916,2983.91908355427
-0.449284916496281,2983.92908355427
-0.421280995506538,2983.93908355427
-0.38987974140427,2983.94908355427
-0.359390776553054,2983.95908355427
-0.33350053125429,2983.96908355427
-0.31440839535429,2983.97908355427
-0.303856371000211,2983.98908355427
-0.301991034572626,2983.99908355427
-0.308433152548571,2984.00908355427
-0.321095389833857,2984.01908355427
-0.337890007800072,2984.02908355427
-0.356580725168485,2984.03908355427
-0.37604480602277,2984.04908355427
-0.39503657134706,2984.05908355427
-0.41222937922319,2984.06908355427
-0.427359120780123,2984.07908355427
-0.440920826727689,2984.08908355427
-0.452946426246681,2984.09908355427
-0.46414797994006,2984.10908355427
-0.474937220988746,2984.11908355427
-0.485268158415826,2984.12908355427
-0.495362286280935,2984.13908355427
-0.50482701830807,2984.14908355427
-0.514681375641276,2984.15908355427
-0.524971638127565,2984.16908355427
-0.536466641279584,2984.17908355427
-0.549603206629475,2984.18908355427
-0.564829654767405,2984.19908355427
-0.581074352956579,2984.20908355427
-0.597770494415472,2984.21908355427
-0.614533669402608,2984.22908355427
-0.629632403824692,2984.23908355427
-0.642080436761964,2984.24908355427
-0.651690801638946,2984.25908355427
-0.65760760035367,2984.26908355427
-0.661429555366268,2984.27908355427
-0.663289860167403,2984.28908355427
-0.66360848657596,2984.29908355427
-0.664168486506845,2984.30908355427
-0.664139848066354,2984.31908355427
-0.664832508640974,2984.32908355427
-0.66625090519503,2984.33908355427
-0.668621250351874,2984.34908355427
-0.672167132307322,2984.35908355427
-0.676711061082907,2984.36908355427
-0.682673659868443,2984.37908355427
-0.689328788750785,2984.38908355427
-0.697271905947685,2984.39908355427
-0.705991791656194,2984.40908355427
-0.71534428447849,2984.41908355427
-0.724444061998551,2984.42908355427
-0.733179938396157,2984.43908355427
-0.741466514933754,2984.44908355427
-0.749560953566507,2984.45908355427
-0.757815864227181,2984.46908355427
-0.766805501558525,2984.47908355427
-0.776601371063503,2984.48908355427
-0.786698055933401,2984.49908355427
-0.797639477985794,2984.50908355427
-0.808663876143059,2984.51908355427
-0.819220793545151,2984.52908355427
-0.828344161514537,2984.53908355427
-0.836118974743225,2984.54908355427
-0.842802337880144,2984.55908355427
-0.848550570590731,2984.56908355427
-0.853829851563841,2984.57908355427
-0.859371054862462,2984.58908355427
-0.86525431083469,2984.59908355427
-0.871058337105394,2984.60908355427
-0.877080191121304,2984.61908355427
-0.883236306867799,2984.62908355427
-0.889074349342158,2984.63908355427
-0.89470232900789,2984.64908355427
-0.90019256991454,2984.65908355427
-0.905245069608207,2984.66908355427
-0.910344773783675,2984.67908355427
-0.915221893897185,2984.68908355427
-0.919600341097324,2984.69908355427
-0.92461012870151,2984.70908355427
-0.929872539961826,2984.71908355427
-0.935280567348385,2984.72908355427
-0.940122879336419,2984.73908355427
-0.945190860236542,2984.74908355427
-0.949790735193818,2984.75908355427
-0.953677384745321,2984.76908355427
-0.957943589168398,2984.77908355427
-0.961793053490923,2984.78908355427
-0.966123692823341,2984.79908355427
-0.97056659454896,2984.80908355427
-0.975038232264577,2984.81908355427
-0.979685930560181,2984.82908355427
-0.984242635733219,2984.83908355427
-0.987266428729353,2984.84908355427
-0.988138212639046,2984.85908355427
-0.985536672275693,2984.86908355427
-0.976774908907216,2984.87908355427
-0.961322851205556,2984.88908355427
-0.938821780528841,2984.89908355427
-0.910818866608621,2984.90908355427
-0.879118993434712,2984.91908355427
-0.847729919998045,2984.92908355427
-0.819963185102901,2984.93908355427
-0.798156000106497,2984.94908355427
-0.783767394604718,2984.95908355427
-0.77651777046727,2984.96908355427
-0.775846784374931,2984.97908355427
-0.780605423434085,2984.98908355427
-0.788480272247998,2984.99908355427
-0.798205177045132,2985.00908355427
-0.808790398722866,2985.01908355427
-0.818720538001048,2985.02908355427
-0.827742743970579,2985.03908355427
-0.834363257497605,2985.04908355427
-0.839030669753781,2985.05908355427
-0.842207111199729,2985.06908355427
-0.843371108786137,2985.07908355427
-0.843159722406173,2985.08908355427
-0.841543553128932,2985.09908355427
-0.838992812167053,2985.10908355427
-0.836679562470673,2985.11908355427
-0.835157127095265,2985.12908355427
-0.834461943488004,2985.13908355427
-0.835458445618162,2985.14908355427
-0.838261356209704,2985.15908355427
-0.842573462910579,2985.16908355427
-0.848098931936336,2985.17908355427
-0.854723127572377,2985.18908355427
-0.861784562030383,2985.19908355427
-0.868366936761711,2985.20908355427
-0.873558153017457,2985.21908355427
-0.87667520986458,2985.22908355427
-0.877989027038842,2985.23908355427
-0.877386624553131,2985.24908355427
-0.875475201361891,2985.25908355427
-0.872798787598861,2985.26908355427
-0.870702645145324,2985.27908355427
-0.868920008908435,2985.28908355427
-0.868036248026384,2985.29908355427
-0.86865216716225,2985.30908355427
-0.870216392283083,2985.31908355427
-0.872269622171225,2985.32908355427
-0.875336673104721,2985.33908355427
-0.878400498337963,2985.34908355427
-0.882240459946041,2985.35908355427
-0.886673944389844,2985.36908355427
-0.891829075727601,2985.37908355427
-0.897473654678426,2985.38908355427
-0.902800380075652,2985.39908355427
-0.908163923746076,2985.40908355427
-0.912412854860077,2985.41908355427
-0.916865825233631,2985.42908355427
-0.921142774016256,2985.43908355427
-0.924835946708738,2985.44908355427
-0.928904213247707,2985.45908355427
-0.932159698023376,2985.46908355427
-0.935393571540546,2985.47908355427
-0.938652573248076,2985.48908355427
-0.9417989315106,2985.49908355427
-0.94497339583404,2985.50908355427
-0.948881567664291,2985.51908355427
-0.952706109098314,2985.52908355427
-0.95605375221958,2985.53908355427
-0.959631855793833,2985.54908355427
-0.963224478994853,2985.55908355427
-0.966741604425043,2985.56908355427
-0.970090861559493,2985.57908355427
-0.97391734234589,2985.58908355427
-0.978030785664077,2985.59908355427
-0.981918636851922,2985.60908355427
-0.984890999513026,2985.61908355427
-0.987890549472842,2985.62908355427
-0.990415160903952,2985.63908355427
-0.993180051537873,2985.64908355427
-0.996291135686653,2985.65908355427
-0.999799995862063,2985.66908355427
-1.00353378449738,2985.67908355427
-1.00655709622528,2985.68908355427
-1.00903695304966,2985.69908355427
-1.01094952747798,2985.70908355427
-1.01250858001579,2985.71908355427
-1.01378522210948,2985.72908355427
-1.01476510694439,2985.73908355427
-1.0156305620131,2985.74908355427
-1.0166212890359,2985.75908355427
-1.01769103249134,2985.76908355427
-1.01982569508639,2985.77908355427
-1.02214176582618,2985.78908355427
-1.02488619796342,2985.79908355427
-1.02775687442762,2985.80908355427
-1.03081022809172,2985.81908355427
-1.03430851473596,2985.82908355427
-1.0381476104461,2985.83908355427
-1.04208052477779,2985.84908355427
-1.04577297719355,2985.85908355427
-1.04879466005688,2985.86908355427
-1.0506797294874,2985.87908355427
-1.05102245115555,2985.88908355427
-1.04816821087963,2985.89908355427
-1.04095568095917,2985.90908355427
-1.02705938617429,2985.91908355427
-1.00546546606735,2985.92908355427
-0.977639923686184,2985.93908355427
-0.945358484225144,2985.94908355427
-0.912836615472898,2985.95908355427
-0.882707664890179,2985.96908355427
-0.858032419579882,2985.97908355427
-0.840338230780587,2985.98908355427
-0.830123150119762,2985.99908355427
-0.826607339152709,2986.00908355427
-0.828710747003757,2986.01908355427
-0.83444432690805,2986.02908355427
-0.842055039597739,2986.03908355427
-0.850337046543863,2986.04908355427
-0.858063951953376,2986.05908355427
-0.864535973036623,2986.06908355427
-0.868425787287197,2986.07908355427
-0.869954526031177,2986.08908355427
-0.868939366019584,2986.09908355427
-0.866176841172248,2986.10908355427
-0.861813643136465,2986.11908355427
-0.856752455503533,2986.12908355427
-0.851972941642821,2986.13908355427
-0.846969763742751,2986.14908355427
-0.841828206010623,2986.15908355427
-0.836655139279555,2986.16908355427
-0.83156540902792,2986.17908355427
-0.827335156866542,2986.18908355427
-0.825273874726258,2986.19908355427
-0.825800851729031,2986.20908355427
-0.828454738815447,2986.21908355427
-0.83259135656781,2986.22908355427
-0.83730493713624,2986.23908355427
-0.841010663921967,2986.24908355427
-0.843245623714533,2986.25908355427
-0.843671916931481,2986.26908355427
-0.842459047458664,2986.27908355427
-0.840266425787463,2986.28908355427
-0.836907412158947,2986.29908355427
-0.833090710573049,2986.30908355427
-0.828596559401963,2986.31908355427
-0.824625591589106,2986.32908355427
-0.82135769873269,2986.33908355427
-0.818696428563815,2986.34908355427
-0.817489398511829,2986.35908355427
-0.816583719485598,2986.36908355427
-0.815845348180365,2986.37908355427
-0.815851132689217,2986.38908355427
-0.81668191902779,2986.39908355427
-0.818395670188113,2986.40908355427
-0.820582194120918,2986.41908355427
-0.823102148492699,2986.42908355427
-0.825419741782717,2986.43908355427
-0.828295710642684,2986.44908355427
-0.831221530123563,2986.45908355427
-0.834475920606162,2986.46908355427
-0.836936843777275,2986.47908355427
-0.839779758262068,2986.48908355427
-0.842606393727767,2986.49908355427
-0.845809907302719,2986.50908355427
-0.848689949679137,2986.51908355427
-0.851554196278404,2986.52908355427
-0.854138781633252,2986.53908355427
-0.855520127467787,2986.54908355427
-0.856832202413047,2986.55908355427
-0.857170192800713,2986.56908355427
-0.856510779465505,2986.57908355427
-0.853947658488259,2986.58908355427
-0.849724768249588,2986.59908355427
-0.844619676965466,2986.60908355427
-0.839436538401092,2986.61908355427
-0.83488415446664,2986.62908355427
-0.831332616332749,2986.63908355427
-0.829207514426578,2986.64908355427
-0.827748292822673,2986.65908355427
-0.827257397010745,2986.66908355427
-0.828044298140359,2986.67908355427
-0.829837701074525,2986.68908355427
-0.831746023297818,2986.69908355427
-0.834697684846624,2986.70908355427
-0.83839695548421,2986.71908355427
-0.843101477838085,2986.72908355427
-0.848695021517511,2986.73908355427
-0.855640970520602,2986.74908355427
-0.86312768031504,2986.75908355427
-0.869838800400688,2986.76908355427
-0.876456603323827,2986.77908355427
-0.881411945487724,2986.78908355427
-0.885329234559258,2986.79908355427
-0.88782717356997,2986.80908355427
-0.889594213614251,2986.81908355427
-0.891947062770606,2986.82908355427
-0.895666066409964,2986.83908355427
-0.900827205627406,2986.84908355427
-0.906741636086891,2986.85908355427
-0.912743920527794,2986.86908355427
-0.918476807474052,2986.87908355427
-0.924029960272713,2986.88908355427
-0.928663693531116,2986.89908355427
-0.93318047679968,2986.90908355427
-0.93746744689421,2986.91908355427
-0.941001608901513,2986.92908355427
-0.943979457699221,2986.93908355427
-0.94537292240656,2986.94908355427
-0.944329378086269,2986.95908355427
-0.938133657729015,2986.96908355427
-0.924041270709872,2986.97908355427
-0.900742183354165,2986.98908355427
-0.867648309790723,2986.99908355427
-0.828779976024738,2987.00908355427
-0.788189668648992,2987.01908355427
-0.749661216682923,2987.02908355427
-0.715660310147989,2987.03908355427
-0.68768317479059,2987.04908355427
-0.665526137781071,2987.05908355427
-0.649270555678419,2987.06908355427
-0.637686786808604,2987.07908355427
-0.629925478311761,2987.08908355427
-0.623654820155817,2987.09908355427
-0.618467930755968,2987.10908355427
-0.612557458980108,2987.11908355427
-0.605263628542108,2987.12908355427
-0.597158756647824,2987.13908355427
-0.588708689173483,2987.14908355427
-0.579473034646751,2987.15908355427
-0.570236789027051,2987.16908355427
-0.560759731325121,2987.17908355427
-0.55136040257325,2987.18908355427
-0.541458304428385,2987.19908355427
-0.532531130001232,2987.20908355427
-0.523162814875856,2987.21908355427
-0.514392789610266,2987.22908355427
-0.506453682832216,2987.23908355427
-0.500306585845586,2987.24908355427
-0.497276708231343,2987.25908355427
-0.497471303265707,2987.26908355427
-0.500811924773607,2987.27908355427
-0.506770004131919,2987.28908355427
-0.514038493423548,2987.29908355427
-0.521552405693761,2987.30908355427
-0.527815519284565,2987.31908355427
-0.532263400341964,2987.32908355427
-0.534829582965227,2987.33908355427
-0.535292305284907,2987.34908355427
-0.535364760877135,2987.35908355427
-0.535212942930138,2987.36908355427
-0.534386217823596,2987.37908355427
-0.534077491629504,2987.38908355427
-0.534162323326127,2987.39908355427
-0.535434685991302,2987.40908355427
-0.537923376048382,2987.41908355427
-0.541817751587206,2987.42908355427
-0.546932616502681,2987.43908355427
-0.553555307295356,2987.44908355427
-0.560401685804852,2987.45908355427
-0.568351943241759,2987.46908355427
-0.57639392115747,2987.47908355427
-0.583734085246163,2987.48908355427
-0.59104364203504,2987.49908355427
-0.597864901002079,2987.50908355427
-0.604514564619995,2987.51908355427
-0.610686908487107,2987.52908355427
-0.61676127854193,2987.53908355427
-0.623006566097088,2987.54908355427
-0.629303126446922,2987.55908355427
-0.636009069413863,2987.56908355427
-0.642805342483926,2987.57908355427
-0.649231636666461,2987.58908355427
-0.655456947780269,2987.59908355427
-0.660909482788397,2987.60908355427
-0.665883424873366,2987.61908355427
-0.671157155863501,2987.62908355427
-0.67619275650927,2987.63908355427
-0.681480013694446,2987.64908355427
-0.686556576062495,2987.65908355427
-0.691272172183748,2987.66908355427
-0.695483722104682,2987.67908355427
-0.699296031304218,2987.68908355427
-0.702483236312119,2987.69908355427
-0.706181497655116,2987.70908355427
-0.708841297070872,2987.71908355427
-0.712037491669049,2987.72908355427
-0.715690766443418,2987.73908355427
-0.719038337327867,2987.74908355427
-0.722883559338958,2987.75908355427
-0.726785044239678,2987.76908355427
-0.730728373650907,2987.77908355427
-0.734330477479505,2987.78908355427
-0.737700460840261,2987.79908355427
-0.740706900640658,2987.80908355427
-0.743549586294041,2987.81908355427
-0.746367772426498,2987.82908355427
-0.749313064224229,2987.83908355427
-0.752183501141082,2987.84908355427
-0.755183195046958,2987.85908355427
-0.758519694679497,2987.86908355427
-0.761494179248856,2987.87908355427
-0.764491601226326,2987.88908355427
-0.766969549314626,2987.89908355427
-0.769134235644067,2987.90908355427
-0.771758428903999,2987.91908355427
-0.774280655464371,2987.92908355427
-0.776754880351911,2987.93908355427
-0.778671306365993,2987.94908355427
-0.779283284510817,2987.95908355427
-0.778401428971624,2987.96908355427
-0.774627521464526,2987.97908355427
-0.766846905629723,2987.98908355427
-0.753437402192267,2987.99908355427
-0.732805920553705,2988.00908355427
-0.706086820508219,2988.01908355427
-0.673786045165961,2988.02908355427
-0.640196241904919,2988.03908355427
-0.608570236759708,2988.04908355427
-0.581112380041941,2988.05908355427
-0.560009907267923,2988.06908355427
-0.544895750772455,2988.07908355427
-0.535673288099085,2988.08908355427
-0.531687667541104,2988.09908355427
-0.53149833997712,2988.10908355427
-0.534067996756779,2988.11908355427
-0.537899648885431,2988.12908355427
-0.542133626741722,2988.13908355427
-0.546191399023008,2988.14908355427
-0.549033951062718,2988.15908355427
-0.550582704940779,2988.16908355427
-0.54980425503718,2988.17908355427
-0.546901386039169,2988.18908355427
-0.542306880250867,2988.19908355427
-0.536490438794917,2988.20908355427
-0.529520233114695,2988.21908355427
-0.522370278421135,2988.22908355427
-0.516439308146624,2988.23908355427
-0.511546021406609,2988.24908355427
-0.50797229765132,2988.25908355427
-0.505042166661525,2988.26908355427
-0.503749458357265,2988.27908355427
-0.503714925599819,2988.28908355427
-0.505268092306203,2988.29908355427
-0.507126787097788,2988.30908355427
-0.509641227830786,2988.31908355427
-0.511049217481007,2988.32908355427
-0.51082606457083,2988.33908355427
-0.508916268176813,2988.34908355427
-0.504700183012408,2988.35908355427
-0.498736336315328,2988.36908355427
-0.491284948217969,2988.37908355427
-0.483469643539569,2988.38908355427
-0.476049163703336,2988.39908355427
-0.469186406702835,2988.40908355427
-0.463034724724185,2988.41908355427
-0.458248039926825,2988.42908355427
-0.454430322875476,2988.43908355427
-0.451964326894715,2988.44908355427
-0.451327156629662,2988.45908355427
-0.451773959343834,2988.46908355427
-0.453499831747632,2988.47908355427
-0.456253761937785,2988.48908355427
-0.460176394187205,2988.49908355427
-0.464301448803559,2988.50908355427
-0.468889795003946,2988.51908355427
-0.473315279098421,2988.52908355427
-0.476822804024018,2988.53908355427
-0.480254890163137,2988.54908355427
-0.48315186567101,2988.55908355427
-0.486076458135844,2988.56908355427
-0.488516990396256,2988.57908355427
-0.491172456173148,2988.58908355427
-0.493733115334871,2988.59908355427
-0.496054806194441,2988.60908355427
-0.497908669027389,2988.61908355427
-0.499433951954876,2988.62908355427
-0.50075534970303,2988.63908355427
-0.502335767430306,2988.64908355427
-0.504548936350226,2988.65908355427
-0.507476264867875,2988.66908355427
-0.510151163995501,2988.67908355427
-0.512701873878014,2988.68908355427
-0.514818012539466,2988.69908355427
-0.515930208568812,2988.70908355427
-0.517743725058912,2988.71908355427
-0.519449976378973,2988.72908355427
-0.521445970927675,2988.73908355427
-0.524349888844105,2988.74908355427
-0.526794359465627,2988.75908355427
-0.52881573140285,2988.76908355427
-0.530476023582311,2988.77908355427
-0.532467434640917,2988.78908355427
-0.534812328427526,2988.79908355427
-0.537354401855362,2988.80908355427
-0.539581300842998,2988.81908355427
-0.541668694602944,2988.82908355427
-0.543883996363821,2988.83908355427
-0.545753791573242,2988.84908355427
-0.548255166946198,2988.85908355427
-0.550957530305859,2988.86908355427
-0.553863386436249,2988.87908355427
-0.557078023087338,2988.88908355427
-0.56034555926783,2988.89908355427
-0.563155119444963,2988.90908355427
-0.565340503587055,2988.91908355427
-0.567013633350761,2988.92908355427
-0.567839669589152,2988.93908355427
-0.565313752208028,2988.94908355427
-0.558668453435928,2988.95908355427
-0.545559938849159,2988.96908355427
-0.525143850607366,2988.97908355427
-0.498058350687061,2988.98908355427
-0.466401274576875,2988.99908355427
-0.432461046188468,2989.00908355427
-0.399935408865939,2989.01908355427
-0.372542797798202,2989.02908355427
-0.351064492808225,2989.03908355427
-0.337126657258293,2989.04908355427
-0.329053463651557,2989.05908355427
-0.326786570470698,2989.06908355427
-0.328358946794103,2989.07908355427
-0.331376562497533,2989.08908355427
-0.334934536034835,2989.09908355427
-0.338089547988782,2989.10908355427
-0.340105974526539,2989.11908355427
-0.340704645512905,2989.12908355427
-0.339711872516335,2989.13908355427
-0.336178424177717,2989.14908355427
-0.331325567854109,2989.15908355427
-0.325031556840575,2989.16908355427
-0.318326315492813,2989.17908355427
-0.311223597532488,2989.18908355427
-0.304650938089663,2989.19908355427
-0.29858962364902,2989.20908355427
-0.293130151975713,2989.21908355427
-0.288560950093905,2989.22908355427
-0.285720458711929,2989.23908355427
-0.285092821679866,2989.24908355427
-0.286214195478651,2989.25908355427
-0.288740386817896,2989.26908355427
-0.290824666063027,2989.27908355427
-0.292579015570413,2989.28908355427
-0.292722957818627,2989.29908355427
-0.290634222189391,2989.30908355427
-0.286711687422141,2989.31908355427
-0.281078019903285,2989.32908355427
-0.273767716403521,2989.33908355427
-0.265917937094427,2989.34908355427
-0.258144367905275,2989.35908355427
-0.250966368061693,2989.36908355427
-0.24527191694632,2989.37908355427
-0.240484209146467,2989.38908355427
-0.236949936856184,2989.39908355427
-0.234093607854017,2989.40908355427
-0.23247048814612,2989.41908355427
-0.232048926158004,2989.42908355427
-0.23247018577723,2989.43908355427
-0.233995046418054,2989.44908355427
-0.236189222027255,2989.45908355427
-0.23888851397463,2989.46908355427
-0.241897029499973,2989.47908355427
-0.24509723399865,2989.48908355427
-0.248086813209653,2989.49908355427
-0.251374615315052,2989.50908355427
-0.254303277523319,2989.51908355427
-0.257073464185268,2989.52908355427
-0.259976658170078,2989.53908355427
-0.262916392936255,2989.54908355427
-0.265577472745643,2989.55908355427
-0.267868503343833,2989.56908355427
-0.270012373155416,2989.57908355427
-0.271806819968889,2989.58908355427
-0.273582964465356,2989.59908355427
-0.274928081018865,2989.60908355427
-0.275970755882105,2989.61908355427
-0.276856150853129,2989.62908355427
-0.278069358417937,2989.63908355427
-0.279341303053986,2989.64908355427
-0.280850357429578,2989.65908355427
-0.282350993849045,2989.66908355427
-0.284023040847694,2989.67908355427
-0.285978809245882,2989.68908355427
-0.287805320694553,2989.69908355427
-0.289706359975936,2989.70908355427
-0.291290196862236,2989.71908355427
-0.293440387627407,2989.72908355427
-0.295495115436162,2989.73908355427
-0.298238962753589,2989.74908355427
-0.300914854899909,2989.75908355427
-0.303503456419113,2989.76908355427
-0.305717477177335,2989.77908355427
-0.307699967738755,2989.78908355427
-0.310105553993568,2989.79908355427
-0.312336355379069,2989.80908355427
-0.314358113326337,2989.81908355427
-0.316313493154833,2989.82908355427
-0.318078016936163,2989.83908355427
-0.319739591565437,2989.84908355427
-0.32159426234169,2989.85908355427
-0.323392866311324,2989.86908355427
-0.325293721723957,2989.87908355427
-0.327346281440878,2989.88908355427
-0.329540449334222,2989.89908355427
-0.332140680906415,2989.90908355427
-0.334683062301878,2989.91908355427
-0.3375765661351,2989.92908355427
-0.340076975469446,2989.93908355427
-0.342034808508795,2989.94908355427
-0.343627708529477,2989.95908355427
-0.34432356343154,2989.96908355427
-0.342806018447432,2989.97908355427
-0.338379134769159,2989.98908355427
-0.327563407797005,2989.99908355427
-0.309023955205931,2990.00908355427
-0.282989629203847,2990.01908355427
-0.25018114660915,2990.02908355427
-0.214427239203644,2990.03908355427
-0.179434975316345,2990.04908355427
-0.148179112844978,2990.05908355427
-0.123633752483929,2990.06908355427
-0.105965730663523,2990.07908355427
-0.095359406052695,2990.08908355427
-0.0906756998675298,2990.09908355427
-0.0903669781329185,2990.10908355427
-0.0925378184513388,2990.11908355427
-0.0961587248173239,2990.12908355427
-0.0996948262746505,2990.13908355427
-0.101738947473311,2990.14908355427
-0.101789029157374,2990.15908355427
-0.0999357872588653,2990.16908355427
-0.0964540012543057,2990.17908355427
-0.0917428370980982,2990.18908355427
-0.0861427493960512,2990.19908355427
-0.0795899692578103,2990.20908355427
-0.0723241639166041,2990.21908355427
-0.0651898066022887,2990.22908355427
-0.0578065701368782,2990.23908355427
-0.0510265448877008,2990.24908355427
-0.0444488722513079,2990.25908355427
-0.0390535412378364,2990.26908355427
-0.0355495073573654,2990.27908355427
-0.0339983794296689,2990.28908355427
-0.0345460252827891,2990.29908355427
-0.0372402666896715,2990.30908355427
-0.0415141077615519,2990.31908355427
-0.0456711050357487,2990.32908355427
-0.0482995873720923,2990.33908355427
-0.0489287435142111,2990.34908355427
-0.0469679628975086,2990.35908355427
-0.04321159541086,2990.36908355427
-0.0376532710524812,2990.37908355427
-0.0317071000696097,2990.38908355427
-0.025863934740191,2990.39908355427
-0.0208812114888875,2990.40908355427
-0.016618865641378,2990.41908355427
-0.0135717687816341,2990.42908355427
-0.0108326853542924,2990.43908355427
-0.00868054280981559,2990.44908355427
-0.00755921908243209,2990.45908355427
-0.0071364245190741,2990.46908355427
-0.00820726239608713,2990.47908355427
-0.0109966086821055,2990.48908355427
-0.0146836426138947,2990.49908355427
-0.0192134180627243,2990.50908355427
-0.0240589227846685,2990.51908355427
-0.0284034856811028,2990.52908355427
-0.0326202365735196,2990.53908355427
-0.0364126450368683,2990.54908355427
-0.0402642306980451,2990.55908355427
-0.0440981881759436,2990.56908355427
-0.0473707017228123,2990.57908355427
-0.0500966547706154,2990.58908355427
-0.052309439961607,2990.59908355427
-0.0538976456392501,2990.60908355427
-0.0552511516703708,2990.61908355427
-0.0567569191697258,2990.62908355427
-0.0583895522845855,2990.63908355427
-0.0607734843240382,2990.64908355427
-0.0632617141300982,2990.65908355427
-0.0654176480456377,2990.66908355427
-0.0673494672260202,2990.67908355427
-0.0693721445095016,2990.68908355427
-0.0713966648693124,2990.69908355427
-0.0736078415292063,2990.70908355427
-0.0755216634995362,2990.71908355427
-0.0777416666067516,2990.72908355427
-0.0801442285257811,2990.73908355427
-0.0829033450488932,2990.74908355427
-0.0863478550137423,2990.75908355427
-0.0892175131311871,2990.76908355427
-0.0929407164439777,2990.77908355427
-0.0969221165967117,2990.78908355427
-0.100728241005762,2990.79908355427
-0.103950063156081,2990.80908355427
-0.106994275980139,2990.81908355427
-0.109599025689786,2990.82908355427
-0.112295702689081,2990.83908355427
-0.114559399866311,2990.84908355427
-0.116983025781907,2990.85908355427
-0.11906810157609,2990.86908355427
-0.12020120174796,2990.87908355427
-0.121370132307038,2990.88908355427
-0.1231311442701,2990.89908355427
-0.125058583326042,2990.90908355427
-0.127564947219635,2990.91908355427
-0.130902464846036,2990.92908355427
-0.13418556298562,2990.93908355427
-0.137712606143916,2990.94908355427
-0.141408695383121,2990.95908355427
-0.14564066485646,2990.96908355427
-0.149298048506385,2990.97908355427
-0.152849208634717,2990.98908355427
-0.156405021720252,2990.99908355427
-0.158786175992244,2991.00908355427
-0.159969831503396,2991.01908355427
-0.15756279164244,2991.02908355427
-0.149790279922617,2991.03908355427
-0.135786710174238,2991.04908355427
-0.11422619035006,2991.05908355427
-0.0865582588278276,2991.06908355427
-0.0553504234189734,2991.07908355427
-0.0228860960543266,2991.08908355427
0.00699011363796586,2991.09908355427
0.032655431666402,2991.10908355427
0.0517874185180601,2991.11908355427
0.064297996699714,2991.12908355427
0.0705962041924432,2991.13908355427
0.0714380248072182,2991.14908355427
0.0690499541151021,2991.15908355427
0.0648155313218847,2991.16908355427
0.0600252288496018,2991.17908355427
0.05595109702738,2991.18908355427
0.0529214719473077,2991.19908355427
0.0511883056811359,2991.20908355427
0.0508746824664856,2991.21908355427
0.0526473818648849,2991.22908355427
0.0557093366036907,2991.23908355427
0.0595226800984335,2991.24908355427
0.0641077827370764,2991.25908355427
0.0689972363756747,2991.26908355427
0.0745150305596597,2991.27908355427
0.0797679930446809,2991.28908355427
0.0851703261611471,2991.29908355427
0.0900331658710678,2991.30908355427
0.0931600579513582,2991.31908355427
0.0940694011107296,2991.32908355427
0.0924556381381836,2991.33908355427
0.0885235576840761,2991.34908355427
0.0833900317554553,2991.35908355427
0.0787189567868379,2991.36908355427
0.0755117010896069,2991.37908355427
0.0741128773457696,2991.38908355427
0.0749366027587246,2991.39908355427
0.0776413218472613,2991.40908355427
0.0811205509459248,2991.41908355427
0.0850744213817671,2991.42908355427
0.0896600486416056,2991.43908355427
0.0938902981552752,2991.44908355427
0.0977469465538121,2991.45908355427
0.100537366702573,2991.46908355427
0.102515805748331,2991.47908355427
0.103918911766007,2991.48908355427
0.104203665262049,2991.49908355427
0.104102112494144,2991.50908355427
0.1023514738219,2991.51908355427
0.0997694112741659,2991.52908355427
0.0963801148370672,2991.53908355427
0.0933271030892181,2991.54908355427
0.0904067153138083,2991.55908355427
0.0872864520682257,2991.56908355427
0.0844487442732232,2991.57908355427
0.081610772256992,2991.58908355427
0.0792679335822705,2991.59908355427
0.0761704926311724,2991.60908355427
0.0736650925856678,2991.61908355427
0.0714165671090424,2991.62908355427
0.0685028316896722,2991.63908355427
0.0655315418004266,2991.64908355427
0.0624285848752801,2991.65908355427
0.0599163430878874,2991.66908355427
0.0578439895749039,2991.67908355427
0.0559912798834732,2991.68908355427
0.0541618517407311,2991.69908355427
0.0523453505989531,2991.70908355427
0.0499843051182228,2991.71908355427
0.0473784097119462,2991.72908355427
0.0446948921017111,2991.73908355427
0.0416618802895535,2991.74908355427
0.0382271357411902,2991.75908355427
0.0345043576687837,2991.76908355427
0.0306151910864811,2991.77908355427
0.0268356305767187,2991.78908355427
0.0233543820097624,2991.79908355427
0.0195553671492019,2991.80908355427
0.0159829506990148,2991.81908355427
0.0125607626569057,2991.82908355427
0.00915289932273527,2991.83908355427
0.00613096849646588,2991.84908355427
0.00292149983395903,2991.85908355427
0.000246636514568354,2991.86908355427
-0.00254436382429374,2991.87908355427
-0.0054257493431704,2991.88908355427
-0.00816259895458748,2991.89908355427
-0.0107884891061843,2991.90908355427
-0.0140715658719123,2991.91908355427
-0.0170815378130573,2991.92908355427
-0.0209280507443996,2991.93908355427
-0.0248827759314947,2991.94908355427
-0.0293276379921131,2991.95908355427
-0.0343035190057792,2991.96908355427
-0.0387468971819718,2991.97908355427
-0.0437355050923303,2991.98908355427
-0.0482727473305481,2991.99908355427
-0.0520380875088716,2992.00908355427
-0.0549438587873341,2992.01908355427
-0.0556027590548673,2992.02908355427
-0.0523778952461408,2992.03908355427
-0.043605223312922,2992.04908355427
-0.0279106229870219,2992.05908355427
-0.00518322009760771,2992.06908355427
0.0232556371161025,2992.07908355427
0.0548351076212585,2992.08908355427
0.0857644793366844,2992.09908355427
0.113684866234292,2992.10908355427
0.136655332212459,2992.11908355427
0.153099471799905,2992.12908355427
0.163464459590091,2992.13908355427
0.168250972355673,2992.14908355427
0.168057749713766,2992.15908355427
0.164216575988574,2992.16908355427
0.15938313846613,2992.17908355427
0.153860523288971,2992.18908355427
0.149811611056032,2992.19908355427
0.147900950993926,2992.20908355427
0.147877872094877,2992.21908355427
0.150138131469111,2992.22908355427
0.153842320098875,2992.23908355427
0.158482388042853,2992.24908355427
0.163064439964456,2992.25908355427
0.167876346813145,2992.26908355427
0.173005405370267,2992.27908355427
0.178490766366261,2992.28908355427
0.183493664463967,2992.29908355427
0.187242108405145,2992.30908355427
0.189476810032872,2992.31908355427
0.189171000236486,2992.32908355427
0.18665668301052,2992.33908355427
0.181362922882949,2992.34908355427
0.174786208179804,2992.35908355427
0.168275935644038,2992.36908355427
0.163524548175074,2992.37908355427
0.160935170829388,2992.38908355427
0.161308259992759,2992.39908355427
0.163550515605629,2992.40908355427
0.167802313262458,2992.41908355427
0.172468309340169,2992.42908355427
0.177006974471022,2992.43908355427
0.181140597049014,2992.44908355427
0.184189888059147,2992.45908355427
0.186596726598891,2992.46908355427
0.187748634595789,2992.47908355427
0.188412963936378,2992.48908355427
0.188740514786591,2992.49908355427
0.18810788347295,2992.50908355427
0.186965693565749,2992.51908355427
0.184552401070987,2992.52908355427
0.181230635836331,2992.53908355427
0.17698409555206,2992.54908355427
0.172703400297272,2992.55908355427
0.169065466375045,2992.56908355427
0.165010288258609,2992.57908355427
0.161131267003791,2992.58908355427
0.1567574836342,2992.59908355427
0.152039866561053,2992.60908355427
0.147349181675708,2992.61908355427
0.142785352213147,2992.62908355427
0.138730104586584,2992.63908355427
0.134791964584552,2992.64908355427
0.131502233866302,2992.65908355427
0.12837304470326,2992.66908355427
0.125087793903839,2992.67908355427
0.121850878263586,2992.68908355427
0.118545824657103,2992.69908355427
0.115544058792848,2992.70908355427
0.112226984805399,2992.71908355427
0.108761695272705,2992.72908355427
0.104984433136884,2992.73908355427
0.10099486997853,2992.74908355427
0.0970087397188246,2992.75908355427
0.0931328071187541,2992.76908355427
0.0897392297809945,2992.77908355427
0.086405542387547,2992.78908355427
0.0824952867884036,2992.79908355427
0.0790610899862562,2992.80908355427
0.0754848773506783,2992.81908355427
0.0720531466739438,2992.82908355427
0.068287352171185,2992.83908355427
0.0648212063105782,2992.84908355427
0.0610779154768631,2992.85908355427
0.0574299745913929,2992.86908355427
0.054270360208779,2992.87908355427
0.0514660024104428,2992.88908355427
0.0490823554891991,2992.89908355427
0.0467813811603004,2992.90908355427
0.044191735673876,2992.91908355427
0.0409685654292797,2992.92908355427
0.0377072102034091,2992.93908355427
0.0339880716485239,2992.94908355427
0.0300075259642969,2992.95908355427
0.0263740455933527,2992.96908355427
0.0221920632573634,2992.97908355427
0.0172541053905504,2992.98908355427
0.0121248533371516,2992.99908355427
0.00745849671418125,2993.00908355427
0.00334876252964036,2993.01908355427
-0.000483664618588775,2993.02908355427
-0.00422881721308491,2993.03908355427
-0.00709825072249183,2993.04908355427
-0.00871024621529115,2993.05908355427
-0.00802493439758552,2993.06908355427
-0.00272881448082107,2993.07908355427
0.00793673847261356,2993.08908355427
0.0262419843699433,2993.09908355427
0.0510364022920072,2993.10908355427
0.0798995097699319,2993.11908355427
0.110269713244217,2993.12908355427
0.139099508217195,2993.13908355427
0.164113050277088,2993.14908355427
0.183967881904539,2993.15908355427
0.197922748941302,2993.16908355427
0.205839117225751,2993.17908355427
0.208578758037134,2993.18908355427
0.207528585892408,2993.19908355427
0.204199001566105,2993.20908355427
0.200250190703271,2993.21908355427
0.19707039327138,2993.22908355427
0.195059630869691,2993.23908355427
0.194720334791669,2993.24908355427
0.19607424092837,2993.25908355427
0.198179444412504,2993.26908355427
0.201399340586851,2993.27908355427
0.20496635736794,2993.28908355427
0.209005604164562,2993.29908355427
0.213844488041054,2993.30908355427
0.219396228465422,2993.31908355427
0.224915465878971,2993.32908355427
0.229681399834141,2993.33908355427
0.233512931873492,2993.34908355427
0.236059486253845,2993.35908355427
0.235448671979498,2993.36908355427
0.232048185883938,2993.37908355427
0.226807627013885,2993.38908355427
0.220938245732831,2993.39908355427
0.215917393580402,2993.40908355427
0.212911850721801,2993.41908355427
0.212054504657289,2993.42908355427
0.213501903954721,2993.43908355427
0.216136020693708,2993.44908355427
0.219355750561167,2993.45908355427
0.222939677191287,2993.46908355427
0.22700387707966,2993.47908355427
0.230791922852375,2993.48908355427
0.233907526293794,2993.49908355427
0.237043068584908,2993.50908355427
0.238448651715053,2993.51908355427
0.239372816783554,2993.52908355427
0.238960918837369,2993.53908355427
0.237824052054694,2993.54908355427
0.236009387879222,2993.55908355427
0.233342900484504,2993.56908355427
0.229997972208511,2993.57908355427
0.225882298743264,2993.58908355427
0.221384659266166,2993.59908355427
0.217090995805243,2993.60908355427
0.21280385301943,2993.61908355427
0.208748666814705,2993.62908355427
0.204560659450594,2993.63908355427
0.199737769944341,2993.64908355427
0.194714634278195,2993.65908355427
0.189333930958911,2993.66908355427
0.18396602149562,2993.67908355427
0.178594432334701,2993.68908355427
0.173422405943591,2993.69908355427
0.168721939787429,2993.70908355427
0.163846864764247,2993.71908355427
0.159503739997885,2993.72908355427
0.155367911571616,2993.73908355427
0.151879007717992,2993.74908355427
0.148440632416904,2993.75908355427
0.145410933038145,2993.76908355427
0.142234499082305,2993.77908355427
0.138519091049804,2993.78908355427
0.134621876502744,2993.79908355427
0.130210014809085,2993.80908355427
0.125366383419147,2993.81908355427
0.120317766145782,2993.82908355427
0.114982423722309,2993.83908355427
0.109837038747867,2993.84908355427
0.104621760043675,2993.85908355427
0.0994379848031618,2993.86908355427
0.0947860282746028,2993.87908355427
0.0908913948015796,2993.88908355427
0.087133727693673,2993.89908355427
0.0840086948486966,2993.90908355427
0.0812742643623168,2993.91908355427
0.0787042714336172,2993.92908355427
0.0761392009575518,2993.93908355427
0.0735105977572397,2993.94908355427
0.0703747687836175,2993.95908355427
0.0670671171204263,2993.96908355427
0.0627474741445797,2993.97908355427
0.0581822444620691,2993.98908355427
0.053109048927622,2993.99908355427
0.0476017647427775,2994.00908355427
0.041875902727722,2994.01908355427
0.0360315896798065,2994.02908355427
0.0309675972718607,2994.03908355427
0.0262867105154722,2994.04908355427
0.0225790835715161,2994.05908355427
0.0190913289224153,2994.06908355427
0.016472407823442,2994.07908355427
0.015294920922488,2994.08908355427
0.0152877148891465,2994.09908355427
0.0190112167309752,2994.10908355427
0.0287069130570657,2994.11908355427
0.0453751703622914,2994.12908355427
0.0692536710255465,2994.13908355427
0.0977114244206045,2994.14908355427
0.128515725315185,2994.15908355427
0.158851416121087,2994.16908355427
0.185725946518682,2994.17908355427
0.206964851578109,2994.18908355427
0.22223320402259,2994.19908355427
0.231698523519643,2994.20908355427
0.235629632051451,2994.21908355427
0.235143447126257,2994.22908355427
0.231478310314489,2994.23908355427
0.22702695944444,2994.24908355427
0.222420083406073,2994.25908355427
0.218710722407297,2994.26908355427
0.216273016662965,2994.27908355427
0.214860173547921,2994.28908355427
0.214901703136746,2994.29908355427
0.217027697851322,2994.30908355427
0.220444665919209,2994.31908355427
0.224037459265444,2994.32908355427
0.228316938658206,2994.33908355427
0.232365383845135,2994.34908355427
0.235791276946727,2994.35908355427
0.238634696918498,2994.36908355427
0.240345864353446,2994.37908355427
0.239608734154006,2994.38908355427
0.237196577944955,2994.39908355427
0.232156959056159,2994.40908355427
0.22623008615013,2994.41908355427
0.220511016468715,2994.42908355427
0.215727505292924,2994.43908355427
0.213393705289225,2994.44908355427
0.213296895114421,2994.45908355427
0.215680857160123,2994.46908355427
0.219838720966383,2994.47908355427
0.224375606574009,2994.48908355427
0.229649693103853,2994.49908355427
0.234553924301211,2994.50908355427
0.238725815129745,2994.51908355427
0.242807300461203,2994.52908355427
0.245589446065879,2994.53908355427
0.246983152183935,2994.54908355427
0.247466956908633,2994.55908355427
0.246404475323988,2994.56908355427
0.244292024042953,2994.57908355427
0.241579659918777,2994.58908355427
0.238407212792313,2994.59908355427
0.234714826024115,2994.60908355427
0.229766928321455,2994.61908355427
0.224163445365444,2994.62908355427
0.218475057505174,2994.63908355427
0.212442577632015,2994.64908355427
0.207486128055794,2994.65908355427
0.203022420423502,2994.66908355427
0.19928814012716,2994.67908355427
0.195478507023994,2994.68908355427
0.191852085620215,2994.69908355427
0.18794162080915,2994.70908355427
0.183946133781852,2994.71908355427
0.180600615383937,2994.72908355427
0.176572481249684,2994.73908355427
0.172881947889562,2994.74908355427
0.168356850049749,2994.75908355427
0.163400341426701,2994.76908355427
0.158917724840725,2994.77908355427
0.154952422328317,2994.78908355427
0.151177516510101,2994.79908355427
0.14842529980227,2994.80908355427
0.146209847475237,2994.81908355427
0.143999865695083,2994.82908355427
0.141406607428902,2994.83908355427
0.138573831465471,2994.84908355427
0.13491673826361,2994.85908355427
0.1310802953294,2994.86908355427
0.127010491737387,2994.87908355427
0.123239863089175,2994.88908355427
0.119617247930523,2994.89908355427
0.116622072983236,2994.90908355427
0.11462089412738,2994.91908355427
0.112714055140694,2994.92908355427
0.110962782045948,2994.93908355427
0.108919970410716,2994.94908355427
0.106349410213398,2994.95908355427
0.10317863201515,2994.96908355427
0.0991746863126381,2994.97908355427
0.0950874764890527,2994.98908355427
0.0911612944802884,2994.99908355427
0.0870704727614717,2995.00908355427
0.083417185693506,2995.01908355427
0.0800687980670712,2995.02908355427
0.0772102777865507,2995.03908355427
0.0738517782700373,2995.04908355427
0.070301142248166,2995.05908355427
0.0665891203555235,2995.06908355427
0.0628692625762351,2995.07908355427
0.0606320577023018,2995.08908355427
0.0609247542301203,2995.09908355427
0.0662601125714391,2995.10908355427
0.0783617805304568,2995.11908355427
0.0974916535897353,2995.12908355427
0.124032594330775,2995.13908355427
0.155917443145573,2995.14908355427
0.19089218391023,2995.15908355427
0.225562885576051,2995.16908355427
0.257467959195249,2995.17908355427
0.284058093980277,2995.18908355427
0.303560539000473,2995.19908355427
0.316478940965744,2995.20908355427
0.323275057165043,2995.21908355427
0.325330163889606,2995.22908355427
0.324011124471602,2995.23908355427
0.321161155847375,2995.24908355427
0.318573261993398,2995.25908355427
0.316963270730015,2995.26908355427
0.316867760916301,2995.27908355427
0.318505794824686,2995.28908355427
0.321508384324069,2995.29908355427
0.325619198366734,2995.30908355427
0.330510079492714,2995.31908355427
0.336362923935633,2995.32908355427
0.342575101430643,2995.33908355427
0.348485096473418,2995.34908355427
0.354046262229489,2995.35908355427
0.359041679074099,2995.36908355427
0.363158267616785,2995.37908355427
0.365889635334393,2995.38908355427
0.366666388203301,2995.39908355427
0.364551201523497,2995.40908355427
0.360972662489266,2995.41908355427
0.3560509304494,2995.42908355427
0.350882601021817,2995.43908355427
0.345774048617399,2995.44908355427
0.342379064447694,2995.45908355427
0.340709609928465,2995.46908355427
0.340726556020568,2995.47908355427
0.34249676062956,2995.48908355427
0.345205294790945,2995.49908355427
0.349390928256163,2995.50908355427
0.353888004213021,2995.51908355427
0.357780875235702,2995.52908355427
0.360968658449916,2995.53908355427
0.362731753849224,2995.54908355427
0.363229451891789,2995.55908355427
0.363800874924011,2995.56908355427
0.363000798397853,2995.57908355427
0.361081688658977,2995.58908355427
0.358528695685606,2995.59908355427
0.354802403188771,2995.60908355427
0.35049038139398,2995.61908355427
0.34555903676224,2995.62908355427
0.340178361222973,2995.63908355427
0.334490575984596,2995.64908355427
0.329035084617218,2995.65908355427
0.322992087930462,2995.66908355427
0.317078065796003,2995.67908355427
0.310756969897176,2995.68908355427
0.304695893483691,2995.69908355427
0.299375764114457,2995.70908355427
0.293782970343009,2995.71908355427
0.28788239431412,2995.72908355427
0.28248143735082,2995.73908355427
0.277005063014662,2995.74908355427
0.271634916395406,2995.75908355427
0.266589952010639,2995.76908355427
0.262106736716201,2995.77908355427
0.257984691264864,2995.78908355427
0.253708481185063,2995.79908355427
0.249121634915069,2995.80908355427
0.244349871845085,2995.81908355427
0.239693773749456,2995.82908355427
0.235289533840956,2995.83908355427
0.231524454779513,2995.84908355427
0.228444122294258,2995.85908355427
0.225618964250726,2995.86908355427
0.221912994640116,2995.87908355427
0.21799678154564,2995.88908355427
0.213554657463191,2995.89908355427
0.208009654574659,2995.90908355427
0.202050722440366,2995.91908355427
0.195847882348747,2995.92908355427
0.189595656337849,2995.93908355427
0.182827446170963,2995.94908355427
0.176478462290453,2995.95908355427
0.170664875123963,2995.96908355427
0.165472365020625,2995.97908355427
0.160704373251551,2995.98908355427
0.156287275823291,2995.99908355427
0.152117983747221,2996.00908355427
0.14777241417379,2996.01908355427
0.143137590026141,2996.02908355427
0.138001825882775,2996.03908355427
0.132503656626237,2996.04908355427
0.126816597382255,2996.05908355427
0.121542076666856,2996.06908355427
0.116088187735412,2996.07908355427
0.111103777277627,2996.08908355427
0.106211758386317,2996.09908355427
0.10147510583768,2996.10908355427
0.0971082135041066,2996.11908355427
0.0928023012815347,2996.12908355427
0.0896269984581652,2996.13908355427
0.0872278173542861,2996.14908355427
0.0859610761418848,2996.15908355427
0.0880893783756198,2996.16908355427
0.0952696314918357,2996.17908355427
0.109099731248283,2996.18908355427
0.131305335050646,2996.19908355427
0.16206801330239,2996.20908355427
0.198739006442654,2996.21908355427
0.238277118450009,2996.22908355427
0.276560883678657,2996.23908355427
0.31082150351259,2996.24908355427
0.338741690699854,2996.25908355427
0.359747791918399,2996.26908355427
0.373191952918771,2996.27908355427
0.380820465270471,2996.28908355427
0.383596777589394,2996.29908355427
0.383780905557452,2996.30908355427
0.383426811250094,2996.31908355427
0.382852713213994,2996.32908355427
0.382881309519942,2996.33908355427
0.383768247213147,2996.34908355427
0.38575170479825,2996.35908355427
0.389495232368769,2996.36908355427
0.394398010198302,2996.37908355427
0.399622700929708,2996.38908355427
0.405693853216515,2996.39908355427
0.413042572889229,2996.40908355427
0.420733954940173,2996.41908355427
0.428158067818354,2996.42908355427
0.435075456694856,2996.43908355427
0.440801520163173,2996.44908355427
0.444513213800579,2996.45908355427
0.445613462324213,2996.46908355427
0.443237987827931,2996.47908355427
0.437939484385107,2996.48908355427
0.431394757731042,2996.49908355427
0.424019742669525,2996.50908355427
0.417165078154243,2996.51908355427
0.411923071494085,2996.52908355427
0.408774697440504,2996.53908355427
0.407856375422689,2996.54908355427
0.408833502204334,2996.55908355427
0.410925724148149,2996.56908355427
0.413411350474658,2996.57908355427
0.416317068767216,2996.58908355427
0.418605862665667,2996.59908355427
0.420537516924604,2996.60908355427
0.421506885084886,2996.61908355427
0.420937973655662,2996.62908355427
0.419302289604074,2996.63908355427
0.416189819578962,2996.64908355427
0.411879590018226,2996.65908355427
0.407188737909887,2996.66908355427
0.401620306309839,2996.67908355427
0.39588058095765,2996.68908355427
0.389738118596839,2996.69908355427
0.383209840993705,2996.70908355427
0.376876277343223,2996.71908355427
0.369949481363745,2996.72908355427
0.362562942284709,2996.73908355427
0.354585034468143,2996.74908355427
0.346391257506987,2996.75908355427
0.338168973958158,2996.76908355427
0.330277526443243,2996.77908355427
0.323054283119665,2996.78908355427
0.315692923466105,2996.79908355427
0.308637339365949,2996.80908355427
0.302386693334035,2996.81908355427
0.296670822017179,2996.82908355427
0.290847357287798,2996.83908355427
0.285975704406405,2996.84908355427
0.281041675615443,2996.85908355427
0.276242778330963,2996.86908355427
0.270796898932075,2996.87908355427
0.264716727563104,2996.88908355427
0.259023389906616,2996.89908355427
0.252465670534113,2996.90908355427
0.246397657935194,2996.91908355427
0.239710645898872,2996.92908355427
0.232649018955991,2996.93908355427
0.225974392499012,2996.94908355427
0.219604438923291,2996.95908355427
0.21352891669684,2996.96908355427
0.207761535048088,2996.97908355427
0.202349147840158,2996.98908355427
0.196364130088194,2996.99908355427
0.190741415831241,2997.00908355427
0.184916932800161,2997.01908355427
0.178931312817313,2997.02908355427
0.172644071905716,2997.03908355427
0.166301188564203,2997.04908355427
0.159587318694032,2997.05908355427
0.153128184532698,2997.06908355427
0.146838628548269,2997.07908355427
0.141313231889811,2997.08908355427
0.135794195686329,2997.09908355427
0.130172399989209,2997.10908355427
0.12494522645448,2997.11908355427
0.119610647186872,2997.12908355427
0.113899334119196,2997.13908355427
0.107716953011303,2997.14908355427
0.101466847420283,2997.15908355427
0.0952202254571805,2997.16908355427
0.0887225106098591,2997.17908355427
0.081858667428416,2997.18908355427
0.0745254832800187,2997.19908355427
0.0665111234935627,2997.20908355427
0.0590767379540836,2997.21908355427
0.0516134397078081,2997.22908355427
0.0448612549774822,2997.23908355427
0.0389455853751149,2997.24908355427
0.0354511824643595,2997.25908355427
0.0357005374661051,2997.26908355427
0.0413384602810883,2997.27908355427
0.0548107782135818,2997.28908355427
0.0768779230991011,2997.29908355427
0.106380601972518,2997.30908355427
0.141950951521825,2997.31908355427
0.17964909011348,2997.32908355427
0.215700182323124,2997.33908355427
0.247658586429393,2997.34908355427
0.272817078008844,2997.35908355427
0.291270547184695,2997.36908355427
0.302420380966495,2997.37908355427
0.308126998909339,2997.38908355427
0.30952079522275,2997.39908355427
0.308252100601834,2997.40908355427
0.305447437811356,2997.41908355427
0.301861435512734,2997.42908355427
0.298797588223611,2997.43908355427
0.29640549833822,2997.44908355427
0.295103804683738,2997.45908355427
0.29524124070663,2997.46908355427
0.297385489142901,2997.47908355427
0.300581119989756,2997.48908355427
0.304999251023215,2997.49908355427
0.309910739326549,2997.50908355427
0.315113198554777,2997.51908355427
0.319990784811249,2997.52908355427
0.324306952537131,2997.53908355427
0.327743099723071,2997.54908355427
0.329275837191638,2997.55908355427
0.328040000819454,2997.56908355427
0.324428521897677,2997.57908355427
0.318742617193678,2997.58908355427
0.311802656223661,2997.59908355427
0.304275839335173,2997.60908355427
0.297334637483829,2997.61908355427
0.290889517372286,2997.62908355427
0.286900060431926,2997.63908355427
0.284710775166471,2997.64908355427
0.284517200295633,2997.65908355427
0.285678614399776,2997.66908355427
0.287717191442569,2997.67908355427
0.289868376141702,2997.68908355427
0.291848721382425,2997.69908355427
0.292924673185974,2997.70908355427
0.293627282129369,2997.71908355427
0.293692621636589,2997.72908355427
0.29258129333013,2997.73908355427
0.290150633945605,2997.74908355427
0.286860867011448,2997.75908355427
0.282870071332511,2997.76908355427
0.277858113122651,2997.77908355427
0.271836503316041,2997.78908355427
0.265257368724264,2997.79908355427
0.257580957066526,2997.80908355427
0.249577088245904,2997.81908355427
0.241113489035242,2997.82908355427
0.232631055946392,2997.83908355427
0.224668565194165,2997.84908355427
0.21698432100886,2997.85908355427
0.209582906738894,2997.86908355427
0.201992418927242,2997.87908355427
0.194135311185253,2997.88908355427
0.186395174805437,2997.89908355427
0.179038511861444,2997.90908355427
0.172383714939849,2997.91908355427
0.166446962254026,2997.92908355427
0.160786332542803,2997.93908355427
0.155416858369637,2997.94908355427
0.149928323182349,2997.95908355427
0.144480540516464,2997.96908355427
0.138934492117369,2997.97908355427
0.133274142875325,2997.98908355427
0.127608851006036,2997.99908355427
0.121298498230872,2998.00908355427
0.114692903551939,2998.01908355427
0.107549814731282,2998.02908355427
0.100127774407273,2998.03908355427
0.0926404067312838,2998.04908355427
0.0855359784695316,2998.05908355427
0.0791623750874545,2998.06908355427
0.0728643884514763,2998.07908355427
0.066592096173028,2998.08908355427
0.0603544520569097,2998.09908355427
0.0540363896370044,2998.10908355427
0.0473261082255218,2998.11908355427
0.0408878034246752,2998.12908355427
0.0349505149012791,2998.13908355427
0.0295157928050668,2998.14908355427
0.0246852753270661,2998.15908355427
0.0200182243868432,2998.16908355427
0.014842178265734,2998.17908355427
0.00947529488496883,2998.18908355427
0.00363007144552809,2998.19908355427
-0.00240810631598028,2998.20908355427
-0.00866965776614151,2998.21908355427
-0.0148843698292666,2998.22908355427
-0.0210515696861386,2998.23908355427
-0.0274140674668193,2998.24908355427
-0.0337296483316471,2998.25908355427
-0.0398355668479779,2998.26908355427
-0.0466277699976873,2998.27908355427
-0.0534448026539422,2998.28908355427
-0.0607486699630167,2998.29908355427
-0.0678140977449948,2998.30908355427
-0.0739287608695679,2998.31908355427
-0.079006240417405,2998.32908355427
-0.0814846195755096,2998.33908355427
-0.0787671162254038,2998.34908355427
-0.0687606088647165,2998.35908355427
-0.0508402534994941,2998.36908355427
-0.0243542261947609,2998.37908355427
0.00769622110416943,2998.38908355427
0.0430490484708288,2998.39908355427
0.0777024608651619,2998.40908355427
0.108782746782469,2998.41908355427
0.134799930630755,2998.42908355427
0.153473482452444,2998.43908355427
0.165178470082384,2998.44908355427
0.17047171376025,2998.45908355427
0.170660851804915,2998.46908355427
0.167138595966156,2998.47908355427
0.161891890029827,2998.48908355427
0.156188051549457,2998.49908355427
0.151052058442786,2998.50908355427
0.147437308735216,2998.51908355427
0.145683547673418,2998.52908355427
0.14579620937523,2998.53908355427
0.147120613934284,2998.54908355427
0.150241919623894,2998.55908355427
0.154261706435965,2998.56908355427
0.158890202356173,2998.57908355427
0.163848111548454,2998.58908355427
0.168727619199608,2998.59908355427
0.173364219090896,2998.60908355427
0.176786852106183,2998.61908355427
0.178251569401097,2998.62908355427
0.176955372313833,2998.63908355427
0.173539663228202,2998.64908355427
0.168010967452018,2998.65908355427
0.161958368670676,2998.66908355427
0.156285556524024,2998.67908355427
0.152485565798127,2998.68908355427
0.151193155878807,2998.69908355427
0.151787792143322,2998.70908355427
0.154633105308016,2998.71908355427
0.158951365450464,2998.72908355427
0.162979514421116,2998.73908355427
0.167022893569978,2998.74908355427
0.170721666969778,2998.75908355427
0.173562595007508,2998.76908355427
0.175525492984103,2998.77908355427
0.176626280389691,2998.78908355427
0.176292999192349,2998.79908355427
0.175089741179567,2998.80908355427
0.172540116070539,2998.81908355427
0.168786599552177,2998.82908355427
0.163826336002985,2998.83908355427
0.157430843792899,2998.84908355427
0.150612313780333,2998.85908355427
0.14379850020287,2998.86908355427
0.13690046091847,2998.87908355427
0.130070703541322,2998.88908355427
0.123408506490576,2998.89908355427
0.11719373815298,2998.90908355427
0.110582020057852,2998.91908355427
0.104048603558975,2998.92908355427
0.0975465755580483,2998.93908355427
0.0917108243319058,2998.94908355427
0.0861336307398211,2998.95908355427
0.0811483820358622,2998.96908355427
0.0766324236654348,2998.97908355427
0.0718684996338571,2998.98908355427
0.066879337624827,2998.99908355427
0.0614933518364173,2999.00908355427
0.0564660366079193,2999.01908355427
0.0511159712399659,2999.02908355427
0.0459233301645451,2999.03908355427
0.0413572757334492,2999.04908355427
0.0366031779605277,2999.05908355427
0.0316884261142685,2999.06908355427
0.0267150353124296,2999.07908355427
0.0212848814322468,2999.08908355427
0.015437309980252,2999.09908355427
0.00897214851609654,2999.10908355427
0.00244245123718226,2999.11908355427
-0.00350751960379993,2999.12908355427
-0.00910896750764044,2999.13908355427
-0.0146126188188428,2999.14908355427
-0.0200957808273211,2999.15908355427
-0.0256404022947605,2999.16908355427
-0.0306220706024131,2999.17908355427
-0.0352103321609358,2999.18908355427
-0.0396019953443655,2999.19908355427
-0.0432512651034168,2999.20908355427
-0.046316446226547,2999.21908355427
-0.0493294585353292,2999.22908355427
-0.0532948740529648,2999.23908355427
-0.0573122872842145,2999.24908355427
-0.0615095632952145,2999.25908355427
-0.0665605705172372,2999.26908355427
-0.0716168943159217,2999.27908355427
-0.0773116476725104,2999.28908355427
-0.0834228203856941,2999.29908355427
-0.0888388426498775,2999.30908355427
-0.0933024565721379,2999.31908355427
-0.096771145616759,2999.32908355427
-0.0988089924227665,2999.33908355427
-0.0994748744013377,2999.34908355427
-0.096876189581363,2999.35908355427
-0.0903401467490166,2999.36908355427
-0.0771465057856913,2999.37908355427
-0.0562645913782339,2999.38908355427
-0.0284124049441874,2999.39908355427
0.00452662427066742,2999.40908355427
0.039329154027094,2999.41908355427
0.0732808939953439,2999.42908355427
0.10308046791648,2999.43908355427
0.126615686978951,2999.44908355427
0.143542170766874,2999.45908355427
0.153112621272959,2999.46908355427
0.156758913167099,2999.47908355427
0.155354101542176,2999.48908355427
0.150792513706857,2999.49908355427
0.144747145359269,2999.50908355427
0.139028077194426,2999.51908355427
0.134012482751671,2999.52908355427
0.130609232029835,2999.53908355427
0.129004490130625,2999.54908355427
0.128526072452845,2999.55908355427
0.129858995081065,2999.56908355427
0.132001270934396,2999.57908355427
0.135349643492671,2999.58908355427
0.139887128159003,2999.59908355427
0.145136120917473,2999.60908355427
0.149916172515424,2999.61908355427
0.154120015134193,2999.62908355427
0.15699710888401,2999.63908355427
0.158511576957335,2999.64908355427
0.157644342443695,2999.65908355427
0.154426485616806,2999.66908355427
0.149390106474166,2999.67908355427
0.142970933029363,2999.68908355427
0.135566115683756,2999.69908355427
0.128915513365203,2999.70908355427
0.123916793180649,2999.71908355427
0.121071249291231,2999.72908355427
0.120917866846186,2999.73908355427
0.123227873474624,2999.74908355427
0.126615530904629,2999.75908355427
0.130379818942074,2999.76908355427
0.133379796822769,2999.77908355427
0.135110309662745,2999.78908355427
0.1353786833138,2999.79908355427
0.135175765509608,2999.80908355427
0.133703604312924,2999.81908355427
0.131435494221761,2999.82908355427
0.127921218990662,2999.83908355427
0.123442596632719,2999.84908355427
0.118410016647955,2999.85908355427
0.113168982660957,2999.86908355427
0.108367406516673,2999.87908355427
0.103390982950015,2999.88908355427
0.0981186335996276,2999.89908355427
0.0923456160187275,2999.90908355427
0.0861323476558183,2999.91908355427
0.0797349202059856,2999.92908355427
0.0733993384933491,2999.93908355427
0.0667717469466623,2999.94908355427
0.0608317194794487,2999.95908355427
0.0552002794745016,2999.96908355427
0.0492459716911142,2999.97908355427
0.0439946764979046,2999.98908355427
0.0388622084189313,2999.99908355427
0.0339462099575594,3000.00908355427
0.0297865819044895,3000.01908355427
0.0256746256631508,3000.02908355427
0.0215781958701041,3000.03908355427
0.0170941223302521,3000.04908355427
0.0123219806608906,3000.05908355427
0.00742670771608231,3000.06908355427
0.00249954458808245,3000.07908355427
-0.00233606936210446,3000.08908355427
-0.00673896626581164,3000.09908355427
-0.0110755034896952,3000.10908355427
-0.0156368459368131,3000.11908355427
-0.0205297933818989,3000.12908355427
-0.0252031948166578,3000.13908355427
-0.0307321097010086,3000.14908355427
-0.035873328226223,3000.15908355427
-0.0408453629246899,3000.16908355427
-0.0461307382690265,3000.17908355427
-0.0504762350463975,3000.18908355427
-0.054833452602269,3000.19908355427
-0.059123275400548,3000.20908355427
-0.0633302894827426,3000.21908355427
-0.0677236034446796,3000.22908355427
-0.0718150612676934,3000.23908355427
-0.0759465330410784,3000.24908355427
-0.0795728671216622,3000.25908355427
-0.0828878869840712,3000.26908355427
-0.0854998861636661,3000.27908355427
-0.0884793586835199,3000.28908355427
-0.0914055740110412,3000.29908355427
-0.0944622059241099,3000.30908355427
-0.0976771836567004,3000.31908355427
-0.101934880499,3000.32908355427
-0.10701780388138,3000.33908355427
-0.111672460446609,3000.34908355427
-0.116665454814151,3000.35908355427
-0.121495343393638,3000.36908355427
-0.126670988639965,3000.37908355427
-0.132418937658406,3000.38908355427
-0.137627752746243,3000.39908355427
-0.142717369453385,3000.40908355427
-0.146534741110985,3000.41908355427
-0.148046555273521,3000.42908355427
-0.144805584695383,3000.43908355427
-0.134750699253185,3000.44908355427
-0.117158737998991,3000.45908355427
-0.090976374203477,3000.46908355427
-0.0584283548252607,3000.47908355427
-0.0227501819119688,3000.48908355427
0.0126929019733203,3000.49908355427
0.0441022187036385,3000.50908355427
0.0694795917425234,3000.51908355427
0.0882682831659257,3000.52908355427
0.100406424034449,3000.53908355427
0.106450460700461,3000.54908355427
0.107676047967147,3000.55908355427
0.105360802250715,3000.56908355427
0.101209717030573,3000.57908355427
0.0966407447339328,3000.58908355427
0.092765145990042,3000.59908355427
0.089897827951526,3000.60908355427
0.088341013168136,3000.61908355427
0.0887895446556135,3000.62908355427
0.0911215075327921,3000.63908355427
0.0946567936482151,3000.64908355427
0.0995570066828448,3000.65908355427
0.105163257972445,3000.66908355427
0.110706884291589,3000.67908355427
0.116611628864208,3000.68908355427
0.122194815584083,3000.69908355427
0.126880824646665,3000.70908355427
0.129756562633904,3000.71908355427
0.130079999897921,3000.72908355427
0.127967529245512,3000.73908355427
0.12327786710745,3000.74908355427
0.116865205078686,3000.75908355427
0.110427493677218,3000.76908355427
0.104612787991952,3000.77908355427
0.100105338680006,3000.78908355427
0.0975522053782092,3000.79908355427
0.0959675285864062,3000.80908355427
0.0972496721566957,3000.81908355427
0.0998244663906858,3000.82908355427
0.103913929473004,3000.83908355427
0.108521014477574,3000.84908355427
0.112706776193165,3000.85908355427
0.11586573086531,3000.86908355427
0.117737415948837,3000.87908355427
0.117771990582328,3000.88908355427
0.117135364116201,3000.89908355427
0.115698993365649,3000.90908355427
0.1141614339177,3000.91908355427
0.111677598133288,3000.92908355427
0.108835939213824,3000.93908355427
0.105332215828416,3000.94908355427
0.101376244272886,3000.95908355427
0.0966605760218323,3000.96908355427
0.0918149392337183,3000.97908355427
0.0862533160306202,3000.98908355427
0.0809454796244393,3000.99908355427
0.075271499922613,3001.00908355427
0.0700507717626186,3001.01908355427
0.0648232184465595,3001.02908355427
0.058748226049569,3001.03908355427
0.0531902103658248,3001.04908355427
0.048015623326598,3001.05908355427
0.0432212669004331,3001.06908355427
0.038933810778662,3001.07908355427
0.0350045555394375,3001.08908355427
0.0309530689491573,3001.09908355427
0.0266323202856707,3001.10908355427
0.0225751500891069,3001.11908355427
0.0182913796864644,3001.12908355427
0.0135011815156795,3001.13908355427
0.00864248355062736,3001.14908355427
0.00439992682356096,3001.15908355427
0.000723710208270935,3001.16908355427
-0.00223592525657869,3001.17908355427
-0.00530473371530967,3001.18908355427
-0.00906558854846949,3001.19908355427
-0.0125533248034224,3001.20908355427
-0.0166187493714684,3001.21908355427
-0.0213081920270926,3001.22908355427
-0.0256135589861205,3001.23908355427
-0.0301827887119923,3001.24908355427
-0.0343565029854256,3001.25908355427
-0.0381036722420611,3001.26908355427
-0.0418504018481087,3001.27908355427
-0.0447401265292393,3001.28908355427
-0.0478393285120494,3001.29908355427
-0.0507962626083408,3001.30908355427
-0.0535913079205258,3001.31908355427
-0.0561709773986762,3001.32908355427
-0.0593778994792392,3001.33908355427
-0.0627345118173298,3001.34908355427
-0.0658929131169517,3001.35908355427
-0.0695731147017559,3001.36908355427
-0.0736751360918742,3001.37908355427
-0.0784329001210822,3001.38908355427
-0.083936050355707,3001.39908355427
-0.0893922257436871,3001.40908355427
-0.0950098464124438,3001.41908355427
-0.100496377086326,3001.42908355427
-0.10519746610062,3001.43908355427
-0.109225399210567,3001.44908355427
-0.112410298822653,3001.45908355427
-0.114467584217556,3001.46908355427
-0.113651642053679,3001.47908355427
-0.108271605466839,3001.48908355427
-0.0956707956850433,3001.49908355427
-0.0754234929362504,3001.50908355427
-0.0482028199736016,3001.51908355427
-0.0156238010667833,3001.52908355427
0.0188513078344123,3001.53908355427
0.0521997442766576,3001.54908355427
0.0817639592302933,3001.55908355427
0.104905131711576,3001.56908355427
0.121206080486416,3001.57908355427
0.131187201317721,3001.58908355427
0.135232351649111,3001.59908355427
0.134697221581722,3001.60908355427
0.13109847656946,3001.61908355427
0.126182114210293,3001.62908355427
0.120329445509509,3001.63908355427
0.11546158676016,3001.64908355427
0.112637855593934,3001.65908355427
0.111859715991001,3001.66908355427
0.112442117499278,3001.67908355427
0.114707963171827,3001.68908355427
0.117709263237327,3001.69908355427
0.121743573970204,3001.70908355427
0.126145999089708,3001.71908355427
0.129895121578317,3001.72908355427
0.133347298497778,3001.73908355427
0.1357973694557,3001.74908355427
0.137475303642746,3001.75908355427
0.137405421061391,3001.76908355427
0.135431266491416,3001.77908355427
0.131445568495581,3001.78908355427
0.12616872650891,3001.79908355427
0.120033860374397,3001.80908355427
0.114103395782254,3001.81908355427
0.110339435397752,3001.82908355427
0.109014223868841,3001.83908355427
0.109423497769298,3001.84908355427
0.112255231007945,3001.85908355427
0.116258128469214,3001.86908355427
0.120968417679999,3001.87908355427
0.125629222874394,3001.88908355427
0.130155435849833,3001.89908355427
0.134053619388645,3001.90908355427
0.137059863872611,3001.91908355427
0.13896545073779,3001.92908355427
0.139486597084315,3001.93908355427
0.138585447602387,3001.94908355427
0.135902913817432,3001.95908355427
0.132305140072898,3001.96908355427
0.127810093034088,3001.97908355427
0.123101409109813,3001.98908355427
0.118480914593125,3001.99908355427
0.112962727571209,3002.00908355427
0.107825278284099,3002.01908355427
0.102464691761422,3002.02908355427
0.0971140965794499,3002.03908355427
0.0919810038781186,3002.04908355427
0.0866655342027606,3002.05908355427
0.0811358487062082,3002.06908355427
0.0755176690712918,3002.07908355427
0.0695238049172946,3002.08908355427
0.0641333568303662,3002.09908355427
0.0589416634509542,3002.10908355427
0.0551322159573486,3002.11908355427
0.0519271149016606,3002.12908355427
0.0492909115341286,3002.13908355427
0.0461975145350841,3002.14908355427
0.0435051484582396,3002.15908355427
0.0400208726031837,3002.16908355427
0.0353575279698438,3002.17908355427
0.0305464041771002,3002.18908355427
0.0258799760765584,3002.19908355427
0.0220357737517337,3002.20908355427
0.0183408779324086,3002.21908355427
0.0146908041355908,3002.22908355427
0.0111812615002158,3002.23908355427
0.00764418265301142,3002.24908355427
0.00339327736897074,3002.25908355427
-0.000704684818227526,3002.26908355427
-0.00421613855164925,3002.27908355427
-0.00760628257870351,3002.28908355427
-0.0102205821349323,3002.29908355427
-0.0124427120394834,3002.30908355427
-0.0146091300135117,3002.31908355427
-0.0167452017583215,3002.32908355427
-0.0193353060122674,3002.33908355427
-0.0226825288386595,3002.34908355427
-0.0261708625751616,3002.35908355427
-0.0294771285411041,3002.36908355427
-0.0327762847849328,3002.37908355427
-0.0365415099862207,3002.38908355427
-0.0406788957115573,3002.39908355427
-0.045294247000394,3002.40908355427
-0.0502890199569475,3002.41908355427
-0.0553051466525613,3002.42908355427
-0.0594504259306321,3002.43908355427
-0.064360875961191,3002.44908355427
-0.0684856420563261,3002.45908355427
-0.0721384557483312,3002.46908355427
-0.0743572669772455,3002.47908355427
-0.0729718725552735,3002.48908355427
-0.0667387810638397,3002.49908355427
-0.0525074512205145,3002.50908355427
-0.0303344922420273,3002.51908355427
-0.00139142473715208,3002.52908355427
0.032556525352141,3002.53908355427
0.0683042683675102,3002.54908355427
0.10239720795374,3002.55908355427
0.132933335149727,3002.56908355427
0.157105742376133,3002.57908355427
0.174206439089155,3002.58908355427
0.18452663585016,3002.59908355427
0.1890645124901,3002.60908355427
0.189541026298676,3002.61908355427
0.187558010018037,3002.62908355427
0.183572225338154,3002.63908355427
0.179917992853765,3002.64908355427
0.177052808069963,3002.65908355427
0.174919859701893,3002.66908355427
0.174571241177686,3002.67908355427
0.17615172138968,3002.68908355427
0.179850303555129,3002.69908355427
0.185430250578291,3002.70908355427
0.191879639249811,3002.71908355427
0.198665211564742,3002.72908355427
0.204947250001763,3002.73908355427
0.210413155258271,3002.74908355427
0.214639027333771,3002.75908355427
0.217082549526213,3002.76908355427
0.217863911326633,3002.77908355427
0.215987215368842,3002.78908355427
0.211709869573252,3002.79908355427
0.206170322774909,3002.80908355427
0.200104833418905,3002.81908355427
0.194521722561607,3002.82908355427
0.190003487562804,3002.83908355427
0.187644589161599,3002.84908355427
0.187391748282376,3002.85908355427
0.188922697368734,3002.86908355427
0.191869101980844,3002.87908355427
0.196109933920409,3002.88908355427
0.200640681273806,3002.89908355427
0.204538475081586,3002.90908355427
0.207552260057454,3002.91908355427
0.20963472633168,3002.92908355427
0.210595556818917,3002.93908355427
0.209979698610461,3002.94908355427
0.207894079085328,3002.95908355427
0.204846300804478,3002.96908355427
0.200627119301702,3002.97908355427
0.195711513050607,3002.98908355427
0.189970391145568,3002.99908355427
0.183513710743508,3003.00908355427
0.177305117680513,3003.01908355427
0.171039966755826,3003.02908355427
0.165403241516408,3003.03908355427
0.159948855096504,3003.04908355427
0.154404649616738,3003.05908355427
0.148582900599936,3003.06908355427
0.142756094466117,3003.07908355427
0.135988618425172,3003.08908355427
0.12965211040617,3003.09908355427
0.123295462864942,3003.10908355427
0.118274054275469,3003.11908355427
0.114051498610178,3003.12908355427
0.110517335835663,3003.13908355427
0.107420710106174,3003.14908355427
0.103459768721791,3003.15908355427
0.0997970725696332,3003.16908355427
0.095259013875026,3003.17908355427
0.0899825546904416,3003.18908355427
0.0843398097984138,3003.19908355427
0.0786918582475805,3003.20908355427
0.0730259880691743,3003.21908355427
0.0679662975204582,3003.22908355427
0.0633800397961591,3003.23908355427
0.0586615948829656,3003.24908355427
0.053622349477109,3003.25908355427
0.0480589768475155,3003.26908355427
0.0423113248759591,3003.27908355427
0.0362146055736892,3003.28908355427
0.0305736817577334,3003.29908355427
0.0251573838901208,3003.30908355427
0.0198575318087583,3003.31908355427
0.015005216067047,3003.32908355427
0.0102807844755751,3003.33908355427
0.00591002458071073,3003.34908355427
0.00150052479440006,3003.35908355427
-0.00298809438418558,3003.36908355427
-0.00735130742955858,3003.37908355427
-0.0117493454361386,3003.38908355427
-0.0161298131190928,3003.39908355427
-0.0205150715931758,3003.40908355427
-0.0255901233264865,3003.41908355427
-0.0307285723985338,3003.42908355427
-0.0362257690511224,3003.43908355427
-0.0417361598851182,3003.44908355427
-0.0470789719997589,3003.45908355427
-0.0524668920431906,3003.46908355427
-0.057687888952482,3003.47908355427
-0.0628509310675502,3003.48908355427
-0.0679301710910029,3003.49908355427
-0.0725636300596078,3003.50908355427
-0.0767212311029481,3003.51908355427
-0.0808339661595473,3003.52908355427
-0.0838155765001909,3003.53908355427
-0.083811642720998,3003.54908355427
-0.0791117002267186,3003.55908355427
-0.0667706580837402,3003.56908355427
-0.0460736106700182,3003.57908355427
-0.0168521545873989,3003.58908355427
0.0183829799656153,3003.59908355427
0.0567901556263888,3003.60908355427
0.094250178851087,3003.61908355427
0.127384744610281,3003.62908355427
0.154191461262729,3003.63908355427
0.173898233581449,3003.64908355427
0.186998191457896,3003.65908355427
0.194236467544659,3003.66908355427
0.196909637235347,3003.67908355427
0.196370442377688,3003.68908355427
0.193515454871465,3003.69908355427
0.190125656400578,3003.70908355427
0.186613228798001,3003.71908355427
0.184006299177446,3003.72908355427
0.182950885808209,3003.73908355427
0.184409145609781,3003.74908355427
0.187654303434261,3003.75908355427
0.192172741452031,3003.76908355427
0.197959278344269,3003.77908355427
0.20392825213125,3003.78908355427
0.209950283106515,3003.79908355427
0.215521770659399,3003.80908355427
0.220719692719799,3003.81908355427
0.223985556085789,3003.82908355427
0.22586175394621,3003.83908355427
0.225257025231087,3003.84908355427
0.222473419434264,3003.85908355427
0.217421974419731,3003.86908355427
0.211232456203956,3003.87908355427
0.204115978578652,3003.88908355427
0.1981113002924,3003.89908355427
0.193293232447693,3003.90908355427
0.190508676201138,3003.91908355427
0.189405129857032,3003.92908355427
0.189769111304373,3003.93908355427
0.190921860632849,3003.94908355427
0.19261514797172,3003.95908355427
0.194937192189607,3003.96908355427
0.196913732097771,3003.97908355427
0.198294679860281,3003.98908355427
0.199478802511041,3003.99908355427
0.199427562341938,3004.00908355427
0.199070987211465,3004.01908355427
0.197740469505717,3004.02908355427
0.194917679398881,3004.03908355427
0.190936489668844,3004.04908355427
0.186338027243667,3004.05908355427
0.18068755169696,3004.06908355427
0.173978392895987,3004.07908355427
0.167463958638862,3004.08908355427
0.160481460338312,3004.09908355427
0.153703229960855,3004.10908355427
0.147509857469075,3004.11908355427
0.141154207919265,3004.12908355427
0.134545917430304,3004.13908355427
0.127666989334208,3004.14908355427
0.120116269581173,3004.15908355427
0.112821134537593,3004.16908355427
0.105603324439768,3004.17908355427
0.0989033917759951,3004.18908355427
0.0931408229431024,3004.19908355427
0.0880175639677554,3004.20908355427
0.0835659692898057,3004.21908355427
0.0791476057014851,3004.22908355427
0.0744876044006504,3004.23908355427
0.0696769294203252,3004.24908355427
0.0645003354878744,3004.25908355427
0.0596679611369236,3004.26908355427
0.0546021845033338,3004.27908355427
0.0497286896973632,3004.28908355427
0.0451739957855428,3004.29908355427
0.0405671343415178,3004.30908355427
0.0364230946296443,3004.31908355427
0.0316260063834413,3004.32908355427
0.026339276420486,3004.33908355427
0.0204515480357319,3004.34908355427
0.0138799194462425,3004.35908355427
0.00794088718706459,3004.36908355427
0.00274269162904261,3004.37908355427
-0.00179370081728586,3004.38908355427
-0.00598776966223394,3004.39908355427
-0.00990738798598788,3004.40908355427
-0.0135650870552596,3004.41908355427
-0.0180218734163735,3004.42908355427
-0.0225844040911348,3004.43908355427
-0.0274660120437645,3004.44908355427
-0.0319026243501848,3004.45908355427
-0.0359953152232296,3004.46908355427
-0.0398999595008259,3004.47908355427
-0.0438190957943754,3004.48908355427
-0.0482737899832613,3004.49908355427
-0.0523958445658084,3004.50908355427
-0.055943974788669,3004.51908355427
-0.0596668799889322,3004.52908355427
-0.0639780940120703,3004.53908355427
-0.069960102287552,3004.54908355427
-0.0767450968806517,3004.55908355427
-0.0833608533901873,3004.56908355427
-0.0890530066712861,3004.57908355427
-0.0923087048013142,3004.58908355427
-0.0943208644937942,3004.59908355427
-0.0948038713374134,3004.60908355427
-0.0933335315803694,3004.61908355427
-0.0881403364616845,3004.62908355427
-0.0761881880030694,3004.63908355427
-0.0559204672773632,3004.64908355427
-0.0270610443568549,3004.65908355427
0.00785296029802277,3004.66908355427
0.0441731881338421,3004.67908355427
0.0776398359508205,3004.68908355427
0.106388634415294,3004.69908355427
0.128640373192067,3004.70908355427
0.144550098057616,3004.71908355427
0.155415943691671,3004.72908355427
0.161179489772333,3004.73908355427
0.16159463692602,3004.74908355427
0.157574137382995,3004.75908355427
0.151952957580191,3004.76908355427
0.146410383672673,3004.77908355427
0.142637766381957,3004.78908355427
0.14183681795933,3004.79908355427
0.143952782910449,3004.80908355427
0.146730492922736,3004.81908355427
0.1502546373981,3004.82908355427
0.153535175447042,3004.83908355427
0.157854687432377,3004.84908355427
0.163203747008844,3004.85908355427
0.169694673338046,3004.86908355427
0.176564071372621,3004.87908355427
0.181804826431556,3004.88908355427
0.184680715299431,3004.89908355427
0.184482836375279,3004.90908355427
0.18220784491052,3004.91908355427
0.178267334843241,3004.92908355427
0.173998303098546,3004.93908355427
0.169176319332611,3004.94908355427
0.163249582744986,3004.95908355427
0.157279879406739,3004.96908355427
0.15141007938961,3004.97908355427
0.147360407946077,3004.98908355427
0.145726938124713,3004.99908355427
0.146968098381367,3005.00908355427
0.150196395544793,3005.01908355427
0.15409797117014,3005.02908355427
0.157340177723741,3005.03908355427
0.158910489070428,3005.04908355427
0.159782482505631,3005.05908355427
0.160231338123382,3005.06908355427
0.16135381546931,3005.07908355427
0.161963846490604,3005.08908355427
0.160678919958673,3005.09908355427
0.157429617866677,3005.10908355427
0.152737545340641,3005.11908355427
0.146965416491227,3005.12908355427
0.142070284011973,3005.13908355427
0.137695834499568,3005.14908355427
0.133498023738007,3005.15908355427
0.128486565188285,3005.16908355427
0.121993465187036,3005.17908355427
0.113820313661481,3005.18908355427
0.105888583170767,3005.19908355427
0.0978502745172966,3005.20908355427
0.0916518947370686,3005.21908355427
0.0858283533227746,3005.22908355427
0.0796062782551579,3005.23908355427
0.0721992296911145,3005.24908355427
0.0639543442098184,3005.25908355427
0.0564859962647475,3005.26908355427
0.0497691277900421,3005.27908355427
0.04548283437585,3005.28908355427
0.0424065351019989,3005.29908355427
0.0388146161106937,3005.30908355427
0.0343261011385561,3005.31908355427
0.0293289309328559,3005.32908355427
0.0240609806433289,3005.33908355427
0.0191553098604888,3005.34908355427
0.0156292751710148,3005.35908355427
0.0123026001962529,3005.36908355427
0.00858585327203256,3005.37908355427
0.00336647494915346,3005.38908355427
-0.00264451097511298,3005.39908355427
-0.00942115398366498,3005.40908355427
-0.0148077534792064,3005.41908355427
-0.0188371192360349,3005.42908355427
-0.0222526170414521,3005.43908355427
-0.025833699032331,3005.44908355427
-0.0305246025949337,3005.45908355427
-0.0360905383873283,3005.46908355427
-0.0419117743292397,3005.47908355427
-0.0472856790489836,3005.48908355427
-0.0510804592951078,3005.49908355427
-0.0541111047049128,3005.50908355427
-0.0578011774669159,3005.51908355427
-0.0623205743488118,3005.52908355427
-0.0675515959843501,3005.53908355427
-0.0730203464653977,3005.54908355427
-0.0777858996463349,3005.55908355427
-0.0812871419002754,3005.56908355427
-0.0841581786536649,3005.57908355427
-0.0881180007501363,3005.58908355427
-0.0934164733599986,3005.59908355427
-0.0999020048563326,3005.60908355427
-0.107275533367068,3005.61908355427
-0.113691264876685,3005.62908355427
-0.118693579083325,3005.63908355427
-0.122414734529216,3005.64908355427
-0.125296987782547,3005.65908355427
-0.126292427658826,3005.66908355427
-0.123357162335221,3005.67908355427
-0.11395368404123,3005.68908355427
-0.0963709002385039,3005.69908355427
-0.069344790018256,3005.70908355427
-0.0351350430799663,3005.71908355427
0.00130300735774867,3005.72908355427
0.0367223287510113,3005.73908355427
0.0678351091161176,3005.74908355427
0.0930296529077886,3005.75908355427
0.111807225658732,3005.76908355427
0.125347365815136,3005.77908355427
0.133120348743096,3005.78908355427
0.13504017654935,3005.79908355427
0.132221448588346,3005.80908355427
0.127295420063128,3005.81908355427
0.121324334031626,3005.82908355427
0.116815795749574,3005.83908355427
0.114071015296237,3005.84908355427
0.114077917759692,3005.85908355427
0.115023766242132,3005.86908355427
0.116594182920868,3005.87908355427
0.119488986800186,3005.88908355427
0.122846222055449,3005.89908355427
0.127556119596385,3005.90908355427
0.133312718606453,3005.91908355427
0.139154379566324,3005.92908355427
0.143296281524761,3005.93908355427
0.144655193872247,3005.94908355427
0.143959254447572,3005.95908355427
0.14094816647244,3005.96908355427
0.136010193143841,3005.97908355427
0.131491708831582,3005.98908355427
0.127136717286738,3005.99908355427
0.123402886841954,3006.00908355427
0.12041928799552,3006.01908355427
0.118650484845315,3006.02908355427
0.119002389720289,3006.03908355427
0.121264846224638,3006.04908355427
0.1256153539416,3006.05908355427
0.131632002778899,3006.06908355427
0.13728266419888,3006.07908355427
0.141287893182342,3006.08908355427
0.142863369578718,3006.09908355427
0.142960014684142,3006.10908355427
0.142717590369337,3006.11908355427
0.14290847273563,3006.12908355427
0.142794259174835,3006.13908355427
0.141792489593166,3006.14908355427
0.138486744152287,3006.15908355427
0.133666513186393,3006.16908355427
0.127655340884308,3006.17908355427
0.121752371276301,3006.18908355427
0.117089224110031,3006.19908355427
0.113071465138335,3006.20908355427
0.10886058141225,3006.21908355427
0.103338286367559,3006.22908355427
0.0970749483546997,3006.23908355427
0.0910035552382944,3006.24908355427
0.0852876841467551,3006.25908355427
0.0811840232401624,3006.26908355427
0.0770594188644468,3006.27908355427
0.072128978068296,3006.28908355427
0.065395500389606,3006.29908355427
0.0583577990555754,3006.30908355427
0.0519940588110859,3006.31908355427
0.0470006858534415,3006.32908355427
0.0440406149241219,3006.33908355427
0.0418018711954438,3006.34908355427
