PPG,time
0.203465833285538,1914.04264604145
0.406668520835661,1914.05264604145
0.366004669813574,1914.06264604145
0.400481319844462,1914.07264604145
0.392815450237204,1914.08264604145
0.409908135476333,1914.09264604145
0.408832099391155,1914.10264604145
0.415657697849231,1914.11264604145
0.412855331921206,1914.12264604145
0.410267297349627,1914.13264604145
0.403507785692687,1914.14264604145
0.394265531189698,1914.15264604144
0.383129070851526,1914.16264604144
0.370646636415511,1914.17264604145
0.35723482328238,1914.18264604145
0.343958370374066,1914.19264604145
0.330874289483033,1914.20264604145
0.317047012572058,1914.21264604145
0.302413416075654,1914.22264604145
0.287515879935729,1914.23264604145
0.271463758936118,1914.24264604145
0.255419653826329,1914.25264604145
0.238635385419513,1914.26264604145
0.221912287117897,1914.27264604145
0.205653983316848,1914.28264604145
0.189750706662462,1914.29264604145
0.174481745225991,1914.30264604145
0.160020059425472,1914.31264604145
0.145784606556717,1914.32264604145
0.132223924220659,1914.33264604145
0.118723947223555,1914.34264604145
0.105854731128303,1914.35264604145
0.0928939302646762,1914.36264604145
0.0800739722368498,1914.37264604145
0.0671888250657273,1914.38264604145
0.0539575233925793,1914.39264604145
0.0413369397222405,1914.40264604144
0.02881853653699,1914.41264604144
0.0168676291985536,1914.42264604145
0.00526584828949558,1914.43264604145
-0.00587367228134047,1914.44264604145
-0.0166421125455423,1914.45264604145
-0.0275151018906084,1914.46264604145
-0.0384602222956942,1914.47264604145
-0.0494508145906217,1914.48264604145
-0.0604670588800122,1914.49264604145
-0.0707127255670335,1914.50264604145
-0.0811775989322409,1914.51264604145
-0.0906618410736887,1914.52264604145
-0.0982962134911838,1914.53264604145
-0.101539614778479,1914.54264604145
-0.095751874403922,1914.55264604145
-0.0767998794187745,1914.56264604145
-0.0410941679182284,1914.57264604145
0.0131281191605279,1914.58264604145
0.0844720649847261,1914.59264604145
0.169187525004959,1914.60264604145
0.261727763998521,1914.61264604145
0.354841606978742,1914.62264604145
0.442547998554765,1914.63264604145
0.519336771168404,1914.64264604145
0.581561827502464,1914.65264604144
0.627895542810644,1914.66264604144
0.658349550709512,1914.67264604145
0.67434327970036,1914.68264604145
0.678311913822079,1914.69264604145
0.672735071808463,1914.70264604145
0.659910985089664,1914.71264604145
0.642274643980854,1914.72264604145
0.620786483482242,1914.73264604145
0.597398098038922,1914.74264604145
0.572527483032143,1914.75264604145
0.546775287144284,1914.76264604145
0.520042534356654,1914.77264604145
0.492968494870996,1914.78264604145
0.465229621725709,1914.79264604145
0.437311370121378,1914.80264604145
0.406943569088557,1914.81264604145
0.376937556919973,1914.82264604145
0.347893809897301,1914.83264604145
0.319585332090523,1914.84264604145
0.292116757713285,1914.85264604145
0.266796615995096,1914.86264604145
0.24455277469908,1914.87264604145
0.227320829433441,1914.88264604145
0.215709630308141,1914.89264604145
0.210285092134898,1914.90264604144
0.210602676139889,1914.91264604144
0.215326634848944,1914.92264604145
0.224572920052223,1914.93264604145
0.237373248104726,1914.94264604145
0.252453611325152,1914.95264604145
0.267729406289193,1914.96264604145
0.282727200466819,1914.97264604145
0.295613899165195,1914.98264604145
0.306651625841052,1914.99264604145
0.314508096237115,1915.00264604145
0.319318588468653,1915.01264604145
0.321097949466899,1915.02264604145
0.320148176961375,1915.03264604145
0.317286421011603,1915.04264604145
0.311717204107079,1915.05264604145
0.304567230488602,1915.06264604145
0.295718852774997,1915.07264604145
0.28522399189947,1915.08264604145
0.273100938698673,1915.09264604145
0.259702820575707,1915.10264604145
0.24546000657547,1915.11264604145
0.230309860598543,1915.12264604145
0.215121587623396,1915.13264604145
0.200209132662027,1915.14264604145
0.185554515587417,1915.15264604144
0.171475688324618,1915.16264604144
0.157809281358694,1915.17264604145
0.144395166613696,1915.18264604145
0.132068730335212,1915.19264604145
0.120326289140412,1915.20264604145
0.108952849211514,1915.21264604145
0.0984410519772448,1915.22264604145
0.0877653959302842,1915.23264604145
0.0775005182016039,1915.24264604145
0.0675033916584794,1915.25264604145
0.0575752071558607,1915.26264604145
0.0484414152930222,1915.27264604145
0.0403604305150787,1915.28264604145
0.0333656562360251,1915.29264604145
0.026412278932839,1915.30264604145
0.0193907332607237,1915.31264604145
0.0117813009339801,1915.32264604145
0.0033791224072073,1915.33264604145
-0.00560591430978832,1915.34264604145
-0.0148782404379113,1915.35264604145
-0.0226287560421588,1915.36264604145
-0.025918028902227,1915.37264604145
-0.0204051372214497,1915.38264604145
-0.000684598859339571,1915.39264604145
0.0370422435188091,1915.40264604144
0.0941481610871144,1915.41264604144
0.169600574832828,1915.42264604145
0.260034451240594,1915.43264604145
0.358879143914094,1915.44264604145
0.458434207473515,1915.45264604145
0.551128321868957,1915.46264604145
0.631838122301016,1915.47264604145
0.696662162430217,1915.48264604145
0.743672352176473,1915.49264604145
0.77358810164418,1915.50264604145
0.788988402313968,1915.51264604145
0.791347629307681,1915.52264604145
0.784138724204741,1915.53264604145
0.769736289114617,1915.54264604145
0.750354451366226,1915.55264604145
0.728098653599529,1915.56264604145
0.70380441777303,1915.57264604145
0.678874127892069,1915.58264604145
0.653604254240605,1915.59264604145
0.628816758257002,1915.60264604145
0.604020892129037,1915.61264604145
0.578989793243506,1915.62264604145
0.552990369015831,1915.63264604145
0.526496075757155,1915.64264604145
0.4992337355792,1915.65264604144
0.471735623945958,1915.66264604144
0.445491286237095,1915.67264604145
0.421451878874582,1915.68264604145
0.400411236688533,1915.69264604145
0.383170144678047,1915.70264604145
0.370078311803082,1915.71264604145
0.362640017902947,1915.72264604145
0.360035742272671,1915.73264604145
0.362654936432939,1915.74264604145
0.369320083896246,1915.75264604145
0.379158748330958,1915.76264604145
0.391528839676553,1915.77264604145
0.404846549633337,1915.78264604145
0.418312848591846,1915.79264604145
0.430904094554125,1915.80264604145
0.441143077420161,1915.81264604145
0.44835646661952,1915.82264604145
0.45233570025079,1915.83264604145
0.453284238514847,1915.84264604145
0.451064578583619,1915.85264604145
0.446235362524376,1915.86264604145
0.439473760637815,1915.87264604145
0.430430827789596,1915.88264604145
0.420382494674513,1915.89264604145
0.409192567398976,1915.90264604144
0.397496315440035,1915.91264604144
0.384955640048533,1915.92264604145
0.371688667295146,1915.93264604145
0.357910379787227,1915.94264604145
0.343152615328795,1915.95264604145
0.327700206823541,1915.96264604145
0.311659418666256,1915.97264604145
0.295318989415152,1915.98264604145
0.278801908724261,1915.99264604145
0.262406260995911,1916.00264604145
0.245729717288827,1916.01264604145
0.229082560775998,1916.02264604145
0.212459257263434,1916.03264604145
0.195882399578402,1916.04264604145
0.17946296940408,1916.05264604145
0.163619999296582,1916.06264604145
0.148649647448064,1916.07264604145
0.13447342331461,1916.08264604145
0.121525196831496,1916.09264604145
0.109294576548627,1916.10264604145
0.0980973015483541,1916.11264604145
0.0879463461630898,1916.12264604145
0.0784004889406955,1916.13264604145
0.0687011882455299,1916.14264604145
0.0588632713994129,1916.15264604144
0.0485471514420726,1916.16264604144
0.037442505038661,1916.17264604145
0.027792576146997,1916.18264604145
0.020849818756691,1916.19264604145
0.0217002175264131,1916.20264604145
0.0345795817948531,1916.21264604145
0.0635351928977915,1916.22264604145
0.111914144108541,1916.23264604145
0.179613034361522,1916.24264604145
0.262783232820426,1916.25264604145
0.355897362860025,1916.26264604145
0.451291563138338,1916.27264604145
0.540731520709312,1916.28264604145
0.616816708021734,1916.29264604145
0.675753904568851,1916.30264604145
0.715587118437274,1916.31264604145
0.736961343372716,1916.32264604145
0.742772582807591,1916.33264604145
0.73537444397207,1916.34264604145
0.717183731450061,1916.35264604145
0.691304830914532,1916.36264604145
0.658687006477453,1916.37264604145
0.621857350293799,1916.38264604145
0.582184699168158,1916.39264604145
0.541773948606278,1916.40264604144
0.501866995485183,1916.41264604144
0.463350455369897,1916.42264604145
0.426667888282872,1916.43264604145
0.392033570835602,1916.44264604145
0.358467784691336,1916.45264604145
0.325258440942263,1916.46264604145
0.291309979930834,1916.47264604145
0.258277767264282,1916.48264604145
0.225222515711668,1916.49264604145
0.193769275639281,1916.50264604145
0.163986317560808,1916.51264604145
0.136998302218955,1916.52264604145
0.113501354168351,1916.53264604145
0.0940980430970187,1916.54264604145
0.0799259064797258,1916.55264604145
0.0706902910311037,1916.56264604145
0.0650236817066131,1916.57264604145
0.0623544148770134,1916.58264604145
0.0624638615860896,1916.59264604145
0.063875911220897,1916.60264604145
0.0660284997210676,1916.61264604145
0.067716449473459,1916.62264604145
0.0683722478064599,1916.63264604145
0.0670290994942937,1916.64264604145
0.0639306006753102,1916.65264604144
0.0583212405033599,1916.66264604144
0.0500834903801483,1916.67264604145
0.0394250088430392,1916.68264604145
0.026263706293313,1916.69264604145
0.0105233957100673,1916.70264604145
-0.00782838368443961,1916.71264604145
-0.0277909498064457,1916.72264604145
-0.0492351111541181,1916.73264604145
-0.071472164146889,1916.74264604145
-0.0936834443651688,1916.75264604145
-0.115320088802386,1916.76264604145
-0.136403529284547,1916.77264604145
-0.157087136368095,1916.78264604145
-0.177550976499312,1916.79264604145
-0.196997159695922,1916.80264604145
-0.216196240948334,1916.81264604145
-0.234398618829578,1916.82264604145
-0.251209934393477,1916.83264604145
-0.268153644225453,1916.84264604145
-0.284453100540845,1916.85264604145
-0.300437833180902,1916.86264604145
-0.315015297208892,1916.87264604145
-0.32720443197083,1916.88264604145
-0.336155218080175,1916.89264604145
-0.341433322294781,1916.90264604144
-0.342458196248817,1916.91264604144
-0.338817501645665,1916.92264604145
-0.331379675247556,1916.93264604145
-0.320895019721322,1916.94264604145
-0.308486192469059,1916.95264604145
-0.2950417547066,1916.96264604145
-0.281305025469019,1916.97264604145
-0.266885315571412,1916.98264604145
-0.25255629177442,1916.99264604145
-0.238588907682452,1917.00264604145
-0.225342459968206,1917.01264604145
-0.213174933546859,1917.02264604145
-0.201433021040141,1917.03264604145
-0.188284665309198,1917.04264604145
-0.170677493156374,1917.05264604145
-0.143588108604429,1917.06264604145
-0.101743779822984,1917.07264604145
-0.0404469499794475,1917.08264604145
0.0427175729979103,1917.09264604145
0.14670927367286,1917.10264604145
0.266538155270673,1917.11264604145
0.395057934452807,1917.12264604145
0.523635504337719,1917.13264604145
0.642382104282425,1917.14264604145
0.744292375709878,1917.15264604144
0.825180253605734,1917.16264604144
0.883118880810832,1917.17264604145
0.919393489844068,1917.18264604145
0.937655005156036,1917.19264604145
0.941260690013362,1917.20264604145
0.933574151063937,1917.21264604145
0.9185031902482,1917.22264604145
0.898858412788847,1917.23264604145
0.876862570542847,1917.24264604145
0.85426825489456,1917.25264604145
0.832116608132322,1917.26264604145
0.810618591519239,1917.27264604145
0.789760985493131,1917.28264604145
0.769388718070728,1917.29264604145
0.748651688918264,1917.30264604145
0.726819511609074,1917.31264604145
0.703491550887162,1917.32264604145
0.678696885308007,1917.33264604145
0.652841058427997,1917.34264604145
0.627228636844581,1917.35264604145
0.601989402087114,1917.36264604145
0.579627952518448,1917.37264604145
0.561286838560471,1917.38264604145
0.547857688938121,1917.39264604145
0.539550099374889,1917.40264604144
0.536860604088156,1917.41264604144
0.538449201432539,1917.42264604145
0.543657081351125,1917.43264604145
0.551885428179918,1917.44264604145
0.561216810535674,1917.45264604145
0.571445779108565,1917.46264604145
0.581040648562309,1917.47264604145
0.589376094264286,1917.48264604145
0.595883739045711,1917.49264604145
0.600508617857524,1917.50264604145
0.601822889546464,1917.51264604145
0.60034145960285,1917.52264604145
0.595842759873702,1917.53264604145
0.589204216595687,1917.54264604145
0.579892016482006,1917.55264604145
0.568787165296714,1917.56264604145
0.556196243776479,1917.57264604145
0.54147935282468,1917.58264604145
0.525301890897215,1917.59264604145
0.508144863380792,1917.60264604145
0.489973704575348,1917.61264604145
0.471352285315423,1917.62264604145
0.452372309391654,1917.63264604145
0.434171625884735,1917.64264604145
0.415479015512823,1917.65264604144
0.397690080521054,1917.66264604144
0.380348045989237,1917.67264604145
0.363559586596075,1917.68264604145
0.347403320504735,1917.69264604145
0.33285968564072,1917.70264604145
0.319005600533689,1917.71264604145
0.306032567055817,1917.72264604145
0.294519169823965,1917.73264604145
0.283946306188222,1917.74264604145
0.274047347275993,1917.75264604145
0.264777763053737,1917.76264604145
0.255799052110885,1917.77264604145
0.246791926602077,1917.78264604145
0.237495709716473,1917.79264604145
0.227609066507434,1917.80264604145
0.21706218818053,1917.81264604145
0.206614411379985,1917.82264604145
0.195861831042344,1917.83264604145
0.185471500994726,1917.84264604145
0.175548588659565,1917.85264604145
0.165900369263234,1917.86264604145
0.156172763673565,1917.87264604145
0.145786318767269,1917.88264604145
0.135084021522004,1917.89264604145
0.123254812199392,1917.90264604144
0.111325005528412,1917.91264604144
0.100071955578223,1917.92264604145
0.0919871268585617,1917.93264604145
0.0904797310458206,1917.94264604145
0.100885427300517,1917.95264604145
0.129153647776646,1917.96264604145
0.179425937267203,1917.97264604145
0.252622719069313,1917.98264604145
0.346261383853697,1917.99264604145
0.4540299505161,1918.00264604145
0.566070046417254,1918.01264604145
0.673530102599621,1918.02264604145
0.767346092209458,1918.03264604145
0.841713405213942,1918.04264604145
0.894304305744352,1918.05264604145
0.925239411810597,1918.06264604145
0.937726978870459,1918.07264604145
0.93501210204985,1918.08264604145
0.920877846754886,1918.09264604145
0.89899206757308,1918.10264604145
0.872550280721529,1918.11264604145
0.843270069849958,1918.12264604145
0.812991432444965,1918.13264604145
0.783601232060544,1918.14264604145
0.755777543819612,1918.15264604144
0.730397308859774,1918.16264604144
0.706265838907336,1918.17264604145
0.682934831712301,1918.18264604145
0.657816581034299,1918.19264604145
0.631176313292009,1918.20264604145
0.602832719620872,1918.21264604145
0.573222159020494,1918.22264604145
0.543854783269373,1918.23264604145
0.515391881020517,1918.24264604145
0.489587265245263,1918.25264604145
0.467600448393943,1918.26264604145
0.450563799263212,1918.27264604145
0.438836812334907,1918.28264604145
0.432023339642396,1918.29264604145
0.430241867420481,1918.30264604145
0.432050623168595,1918.31264604145
0.437106775618496,1918.32264604145
0.444122453709286,1918.33264604145
0.453010265755623,1918.34264604145
0.461694294221198,1918.35264604145
0.469333499845711,1918.36264604145
0.475415996007816,1918.37264604145
0.478805325544321,1918.38264604145
0.479902575488751,1918.39264604145
0.477890586471403,1918.40264604144
0.473723769403301,1918.41264604144
0.466174710618488,1918.42264604145
0.4561513945765,1918.43264604145
0.443783713644931,1918.44264604145
0.429180237810381,1918.45264604145
0.413100258736739,1918.46264604145
0.395480557068255,1918.47264604145
0.376931279601817,1918.48264604145
0.357168860045352,1918.49264604145
0.337583618859247,1918.50264604145
0.317876072746807,1918.51264604145
0.298088613681619,1918.52264604145
0.278424832790305,1918.53264604145
0.259332338556672,1918.54264604145
0.240472461804087,1918.55264604145
0.222186078226149,1918.56264604145
0.205050007690602,1918.57264604145
0.188065990122908,1918.58264604145
0.171945738176939,1918.59264604145
0.156521947096351,1918.60264604145
0.141968229624781,1918.61264604145
0.128187245789549,1918.62264604145
0.114960012193171,1918.63264604145
0.102122942116722,1918.64264604145
0.0896658280173719,1918.65264604144
0.0781416324532726,1918.66264604144
0.0663832065550745,1918.67264604145
0.054395670147894,1918.68264604145
0.0434674088222977,1918.69264604145
0.0331746260590354,1918.70264604145
0.0224269740701893,1918.71264604145
0.0115543525078919,1918.72264604145
0.000551204750476819,1918.73264604145
-0.0106524215486786,1918.74264604145
-0.0218782708668387,1918.75264604145
-0.0325115732997043,1918.76264604145
-0.0431489011244918,1918.77264604145
-0.0541354701289693,1918.78264604145
-0.0651716680078266,1918.79264604145
-0.0760952180209719,1918.80264604145
-0.0877528557984394,1918.81264604145
-0.0989837828146249,1918.82264604145
-0.108704726443381,1918.83264604145
-0.115075980574731,1918.84264604145
-0.114480199517845,1918.85264604145
-0.10211686604066,1918.86264604145
-0.0730013975228647,1918.87264604145
-0.0228629727748786,1918.88264604145
0.0492289992206569,1918.89264604145
0.140705864494971,1918.90264604144
0.24679175259829,1918.91264604144
0.358732288365018,1918.92264604145
0.467415183016817,1918.93264604145
0.564301522813003,1918.94264604145
0.643153589411842,1918.95264604145
0.701758522241822,1918.96264604145
0.739269437257125,1918.97264604145
0.757382824941936,1918.98264604145
0.758663203445568,1918.99264604145
0.74724925836477,1919.00264604145
0.726628414946804,1919.01264604145
0.699859102416613,1919.02264604145
0.668889774669114,1919.03264604145
0.635350409083716,1919.04264604145
0.601271674449343,1919.05264604145
0.56808183687286,1919.06264604145
0.53619976097257,1919.07264604145
0.506080986414988,1919.08264604145
0.476891217264907,1919.09264604145
0.448158677939972,1919.10264604145
0.418807120481474,1919.11264604145
0.388758209807599,1919.12264604145
0.357905748146161,1919.13264604145
0.327841364625369,1919.14264604145
0.299693363560753,1919.15264604144
0.275529275965597,1919.16264604144
0.25690478334925,1919.17264604145
0.244332146811878,1919.18264604145
0.237945101239669,1919.19264604145
0.238220135078347,1919.20264604145
0.243581971842805,1919.21264604145
0.253536054057825,1919.22264604145
0.266987985864731,1919.23264604145
0.282054087049664,1919.24264604145
0.298547468310168,1919.25264604145
0.314506798468183,1919.26264604145
0.328694152111149,1919.27264604145
0.340819051012751,1919.28264604145
0.348993338418204,1919.29264604145
0.352807158854612,1919.30264604145
0.352568444737993,1919.31264604145
0.348162177122814,1919.32264604145
0.340802487086746,1919.33264604145
0.329930082902871,1919.34264604145
0.315615201143471,1919.35264604145
0.299281434363064,1919.36264604145
0.281427976592247,1919.37264604145
0.263335689053722,1919.38264604145
0.244673424744706,1919.39264604145
0.225324269974787,1919.40264604144
0.206021351075052,1919.41264604144
0.186618006841362,1919.42264604145
0.16874560479036,1919.43264604145
0.151487413972826,1919.44264604145
0.135657466816064,1919.45264604145
0.120758007368099,1919.46264604145
0.106803887004768,1919.47264604145
0.0932761278630426,1919.48264604145
0.0799874567569303,1919.49264604145
0.0679192773045709,1919.50264604145
0.0559020289927735,1919.51264604145
0.0447366767900748,1919.52264604145
0.0340418656639957,1919.53264604145
0.0232987527951834,1919.54264604145
0.0126195355847985,1919.55264604145
0.00283393928308447,1919.56264604145
-0.00667964290364408,1919.57264604145
-0.0152515964550733,1919.58264604145
-0.0239723706365886,1919.59264604145
-0.0317941430351731,1919.60264604145
-0.0402007561378057,1919.61264604145
-0.0488140573916813,1919.62264604145
-0.0582456581540901,1919.63264604145
-0.0683629320478211,1919.64264604145
-0.0792420462131552,1919.65264604144
-0.0897964782284909,1919.66264604144
-0.0979574700932511,1919.67264604145
-0.100859923917342,1919.68264604145
-0.0939014799473465,1919.69264604145
-0.0723061074998764,1919.70264604145
-0.0313062456350911,1919.71264604145
0.0329620155841249,1919.72264604145
0.119162766430794,1919.73264604145
0.223437935047068,1919.74264604145
0.337748798790445,1919.75264604145
0.451928819018842,1919.76264604145
0.556959197942724,1919.77264604145
0.644943902544483,1919.78264604145
0.711354955341416,1919.79264604145
0.755126694082482,1919.80264604145
0.778660455903193,1919.81264604145
0.784671341371028,1919.82264604145
0.777417089589747,1919.83264604145
0.760149158241076,1919.84264604145
0.736217162593118,1919.85264604145
0.708215452954772,1919.86264604145
0.678098458623094,1919.87264604145
0.648331359349405,1919.88264604145
0.620179441234815,1919.89264604145
0.594406337889728,1919.90264604144
0.570178447724133,1919.91264604144
0.546612833965259,1919.92264604145
0.52272925493758,1919.93264604145
0.498162567047812,1919.94264604145
0.471705736543973,1919.95264604145
0.443713479175017,1919.96264604145
0.415007308787616,1919.97264604145
0.387484616979097,1919.98264604145
0.361829152682616,1919.99264604145
0.339779845627431,1920.00264604145
0.321858658533607,1920.01264604145
0.307833068679064,1920.02264604145
0.29976415425795,1920.03264604145
0.297174172754258,1920.04264604145
0.300001859248093,1920.05264604145
0.307404771405947,1920.06264604145
0.318422805722285,1920.07264604145
0.330431118036695,1920.08264604145
0.343138653678534,1920.09264604145
0.354426030587646,1920.10264604145
0.364101452631741,1920.11264604145
0.371170106612209,1920.12264604145
0.374491270388128,1920.13264604145
0.373540734179037,1920.14264604145
0.369504815980046,1920.15264604144
0.361985083754634,1920.16264604144
0.351701422378435,1920.17264604145
0.339086188611155,1920.18264604145
0.324473099171249,1920.19264604145
0.308777856921714,1920.20264604145
0.292124427168343,1920.21264604145
0.274842550572346,1920.22264604145
0.256858158451051,1920.23264604145
0.238122913041315,1920.24264604145
0.219177702342296,1920.25264604145
0.200602571071548,1920.26264604145
0.182173253528186,1920.27264604145
0.164236481401203,1920.28264604145
0.147054057167411,1920.29264604145
0.130414813287827,1920.30264604145
0.114129415366855,1920.31264604145
0.0981434863840103,1920.32264604145
0.0827172587006353,1920.33264604145
0.0677486988864215,1920.34264604145
0.0535124333247907,1920.35264604145
0.0400682260161861,1920.36264604145
0.0269825448435614,1920.37264604145
0.0147800914656237,1920.38264604145
0.00343654462449623,1920.39264604145
-0.00718466561878972,1920.40264604144
-0.0178309327974223,1920.41264604144
-0.0287242732347113,1920.42264604145
-0.0398477706098873,1920.43264604145
-0.0514403299063455,1920.44264604145
-0.0622263388484491,1920.45264604145
-0.0728344809818529,1920.46264604145
-0.0834555797151135,1920.47264604145
-0.094172695368995,1920.48264604145
-0.104700027663827,1920.49264604145
-0.11517116363248,1920.50264604145
-0.125776126575461,1920.51264604145
-0.136357571767936,1920.52264604145
-0.147352403996809,1920.53264604145
-0.157890734405894,1920.54264604145
-0.167118684405477,1920.55264604145
-0.172278690376107,1920.56264604145
-0.169221444237647,1920.57264604145
-0.152154977553444,1920.58264604145
-0.115571030257784,1920.59264604145
-0.0546995469988401,1920.60264604145
0.0299863177320882,1920.61264604145
0.13572125045871,1920.62264604145
0.255271173171224,1920.63264604145
0.37845593860433,1920.64264604145
0.4948722450422,1920.65264604144
0.595728118752273,1920.66264604144
0.675024799401207,1920.67264604145
0.730530338137515,1920.68264604145
0.763281349087193,1920.69264604145
0.776464070604581,1920.70264604145
0.773386381593195,1920.71264604145
0.758338261845146,1920.72264604145
0.735119126825084,1920.73264604145
0.707062979231006,1920.74264604145
0.676884366803583,1920.75264604145
0.646703333565579,1920.76264604145
0.617570491771127,1920.77264604145
0.590874219625636,1920.78264604145
0.567178377305252,1920.79264604145
0.545157668442227,1920.80264604145
0.524667611033626,1920.81264604145
0.504095946413148,1920.82264604145
0.482127563592137,1920.83264604145
0.458421702227034,1920.84264604145
0.433417840694384,1920.85264604145
0.40712338815579,1920.86264604145
0.380948607406697,1920.87264604145
0.356186890443689,1920.88264604145
0.3350215165123,1920.89264604145
0.318006781452252,1920.90264604144
0.305293929600862,1920.91264604144
0.297896027134463,1920.92264604145
0.29595336813556,1920.93264604145
0.299205043083413,1920.94264604145
0.306004475901369,1920.95264604145
0.316237691486972,1920.96264604145
0.327066019419947,1920.97264604145
0.338065838967639,1920.98264604145
0.347773601581071,1920.99264604145
0.355736829691125,1921.00264604145
0.360964142010766,1921.01264604145
0.363247031232307,1921.02264604145
0.361914396119879,1921.03264604145
0.357077817407769,1921.04264604145
0.348637081989578,1921.05264604145
0.33708742331987,1921.06264604145
0.323204838165597,1921.07264604145
0.307819730096555,1921.08264604145
0.29175267781749,1921.09264604145
0.27467687740111,1921.10264604145
0.256741104256581,1921.11264604145
0.238292120127187,1921.12264604145
0.218890583088288,1921.13264604145
0.198609049683428,1921.14264604145
0.178965895092053,1921.15264604144
0.160040361022366,1921.16264604144
0.141039910413495,1921.17264604145
0.122401343629564,1921.18264604145
0.103571178810829,1921.19264604145
0.0854472411618905,1921.20264604145
0.0677544715336277,1921.21264604145
0.0505373247630142,1921.22264604145
0.0346149198229955,1921.23264604145
0.018893126504363,1921.24264604145
0.00398604694658836,1921.25264604145
-0.0105259329189429,1921.26264604145
-0.0243467039196006,1921.27264604145
-0.0373522093514862,1921.28264604145
-0.0496679439554923,1921.29264604145
-0.0620947552113677,1921.30264604145
-0.0743554812982979,1921.31264604145
-0.0865563846399271,1921.32264604145
-0.0986046201379387,1921.33264604145
-0.110676157431482,1921.34264604145
-0.122502912779064,1921.35264604145
-0.134176200397298,1921.36264604145
-0.145421984488493,1921.37264604145
-0.155948730471438,1921.38264604145
-0.165991104510375,1921.39264604145
-0.175459049663555,1921.40264604144
-0.18442638992631,1921.41264604144
-0.19318029860413,1921.42264604145
-0.202313925156232,1921.43264604145
-0.211749519018281,1921.44264604145
-0.221906719026972,1921.45264604145
-0.232588574064206,1921.46264604145
-0.242576446783712,1921.47264604145
-0.251367941970439,1921.48264604145
-0.256094790230201,1921.49264604145
-0.252814953423817,1921.50264604145
-0.236424683381664,1921.51264604145
-0.201540377057147,1921.52264604145
-0.144558884131895,1921.53264604145
-0.0636515814856229,1921.54264604145
0.037949325181084,1921.55264604145
0.154281206846709,1921.56264604145
0.277236019950025,1921.57264604145
0.3962675952676,1921.58264604145
0.502346301883035,1921.59264604145
0.588100501654232,1921.60264604145
0.651017620599821,1921.61264604145
0.690989616096726,1921.62264604145
0.710031772148038,1921.63264604145
0.711027550382857,1921.64264604145
0.698845274388715,1921.65264604144
0.677088040364044,1921.66264604144
0.649299849184851,1921.67264604145
0.618041203129222,1921.68264604145
0.586281536722325,1921.69264604145
0.555585003415664,1921.70264604145
0.527138924511246,1921.71264604145
0.501685780322807,1921.72264604145
0.478660310464544,1921.73264604145
0.457176140300834,1921.74264604145
0.436094117063375,1921.75264604145
0.414293769767837,1921.76264604145
0.391060622739484,1921.77264604145
0.365639611727287,1921.78264604145
0.339830758866798,1921.79264604145
0.31429669371065,1921.80264604145
0.290425847862511,1921.81264604145
0.270443968533681,1921.82264604145
0.254533723641335,1921.83264604145
0.243924322719951,1921.84264604145
0.238414168964161,1921.85264604145
0.237717476320633,1921.86264604145
0.241085113276805,1921.87264604145
0.24799870874298,1921.88264604145
0.257965751156323,1921.89264604145
0.269042175960876,1921.90264604144
0.28056746289292,1921.91264604144
0.291277317146962,1921.92264604145
0.300051685969305,1921.93264604145
0.306336593771556,1921.94264604145
0.30972818542944,1921.95264604145
0.310037305801137,1921.96264604145
0.306786302158768,1921.97264604145
0.300060166748518,1921.98264604145
0.290274152261288,1921.99264604145
0.277644444110144,1922.00264604145
0.262838869803481,1922.01264604145
0.246095468609939,1922.02264604145
0.228249114366345,1922.03264604145
0.209342618439612,1922.04264604145
0.190123794518686,1922.05264604145
0.17090752808401,1922.06264604145
0.15162297764457,1922.07264604145
0.133309411424936,1922.08264604145
0.115196678821434,1922.09264604145
0.0978211604755187,1922.10264604145
0.0802173342565787,1922.11264604145
0.0636005491674762,1922.12264604145
0.0466383636766682,1922.13264604145
0.029929614457691,1922.14264604145
0.0138595158250263,1922.15264604144
-0.00175676313381794,1922.16264604144
-0.0163838412237672,1922.17264604145
-0.0307091328687522,1922.18264604145
-0.0437766641271823,1922.19264604145
-0.0563085602275961,1922.20264604145
-0.0688595690692213,1922.21264604145
-0.081604898152968,1922.22264604145
-0.0942775470189897,1922.23264604145
-0.107570214432527,1922.24264604145
-0.121268149599941,1922.25264604145
-0.134700926565943,1922.26264604145
-0.14879073876356,1922.27264604145
-0.162449547760671,1922.28264604145
-0.176033024601155,1922.29264604145
-0.188922781132602,1922.30264604145
-0.201283054708712,1922.31264604145
-0.213031587193568,1922.32264604145
-0.224190320919354,1922.33264604145
-0.235563664556982,1922.34264604145
-0.247288551465001,1922.35264604145
-0.259974673184002,1922.36264604145
-0.273226874454599,1922.37264604145
-0.286774204353986,1922.38264604145
-0.299596962625462,1922.39264604145
-0.309054573007729,1922.40264604144
-0.311767512196869,1922.41264604144
-0.303269956359076,1922.42264604145
-0.277705450507294,1922.43264604145
-0.23049816886625,1922.44264604145
-0.159184900285163,1922.45264604145
-0.0665698800506609,1922.46264604145
0.0429144179867203,1922.47264604145
0.160838282475018,1922.48264604145
0.278054405308571,1922.49264604145
0.385828037655584,1922.50264604145
0.476738631132035,1922.51264604145
0.546381596165578,1922.52264604145
0.593674232406796,1922.53264604145
0.620126880371284,1922.54264604145
0.628131562250954,1922.55264604145
0.621497719973705,1922.56264604145
0.603912497747231,1922.57264604145
0.579371200099005,1922.58264604145
0.549926272863287,1922.59264604145
0.518321827669048,1922.60264604145
0.485782453477507,1922.61264604145
0.453659651163466,1922.62264604145
0.423166248903625,1922.63264604145
0.394964040068532,1922.64264604145
0.367936321051712,1922.65264604144
0.342009150318185,1922.66264604144
0.315530704832953,1922.67264604145
0.287143638743751,1922.68264604145
0.256573884154909,1922.69264604145
0.225110974907559,1922.70264604145
0.193529625706837,1922.71264604145
0.164092137072638,1922.72264604145
0.138412608243485,1922.73264604145
0.117580860784631,1922.74264604145
0.102452056774871,1922.75264604145
0.0929667850629701,1922.76264604145
0.0886618853881842,1922.77264604145
0.0892233976923575,1922.78264604145
0.0941715147542213,1922.79264604145
0.102809201392392,1922.80264604145
0.113961889617904,1922.81264604145
0.126315400098832,1922.82264604145
0.138657551037453,1922.83264604145
0.149859756261587,1922.84264604145
0.159103243583302,1922.85264604145
0.166230282361386,1922.86264604145
0.169160265444176,1922.87264604145
0.168299627745508,1922.88264604145
0.163969223290612,1922.89264604145
0.156235784657167,1922.90264604144
0.145281328122684,1922.91264604144
0.131942579113106,1922.92264604145
0.117281211433569,1922.93264604145
0.100958562399253,1922.94264604145
0.083408663421033,1922.95264604145
0.0646143405874883,1922.96264604145
0.0445873895027091,1922.97264604145
0.0241577979524009,1922.98264604145
0.00385951803784794,1922.99264604145
-0.0164880809757784,1923.00264604145
-0.0364020670223038,1923.01264604145
-0.0561899055539618,1923.02264604145
-0.0749356718831912,1923.03264604145
-0.0935152321374385,1923.04264604145
-0.110882602552206,1923.05264604145
-0.127813980695387,1923.06264604145
-0.144526046323774,1923.07264604145
-0.1601898534055,1923.08264604145
-0.175104181986562,1923.09264604145
-0.18891888926527,1923.10264604145
-0.202177845768684,1923.11264604145
-0.214618641076285,1923.12264604145
-0.226357425945628,1923.13264604145
-0.237570718780285,1923.14264604145
-0.24843187867268,1923.15264604144
-0.259037973871733,1923.16264604144
-0.269728661241677,1923.17264604145
-0.279836964968929,1923.18264604145
-0.289589899708228,1923.19264604145
-0.298429975000403,1923.20264604145
-0.307308437216378,1923.21264604145
-0.315518246777491,1923.22264604145
-0.324054998251617,1923.23264604145
-0.332763265737959,1923.24264604145
-0.341772378670619,1923.25264604145
-0.350670712275608,1923.26264604145
-0.35977486369951,1923.27264604145
-0.36887206018277,1923.28264604145
-0.37718962890788,1923.29264604145
-0.383573687909459,1923.30264604145
-0.385585768826252,1923.31264604145
-0.377757004079871,1923.32264604145
-0.354862844073887,1923.33264604145
-0.31241601297528,1923.34264604145
-0.247134942685638,1923.35264604145
-0.159707977242336,1923.36264604145
-0.0543912143860287,1923.37264604145
0.0619212624653971,1923.38264604145
0.179703809180212,1923.39264604145
0.290766137072428,1923.40264604144
0.387122119273211,1923.41264604144
0.464254367169721,1923.42264604145
0.519447165337199,1923.43264604145
0.553792353184664,1923.44264604145
0.568806467178492,1923.45264604145
0.567634024329092,1923.46264604145
0.554416998715706,1923.47264604145
0.532138093157683,1923.48264604145
0.504910965297952,1923.49264604145
0.474459381846782,1923.50264604145
0.442616156183791,1923.51264604145
0.410753619781929,1923.52264604145
0.378800133499258,1923.53264604145
0.346369664595546,1923.54264604145
0.314336979010682,1923.55264604145
0.282236923681666,1923.56264604145
0.250438572531439,1923.57264604145
0.21784591001061,1923.58264604145
0.185515300533634,1923.59264604145
0.153889790912825,1923.60264604145
0.123618804588229,1923.61264604145
0.0960443006693645,1923.62264604145
0.0718700516972026,1923.63264604145
0.0518013996372928,1923.64264604145
0.0374241948695641,1923.65264604144
0.0296850322754478,1923.66264604144
0.0284430241099301,1923.67264604145
0.0333875971227096,1923.68264604145
0.0432155393138229,1923.69264604145
0.0567072502376976,1923.70264604145
0.072448940600782,1923.71264604145
0.0896407896215667,1923.72264604145
0.105908659728109,1923.73264604145
0.120167707368428,1923.74264604145
0.131468437293065,1923.75264604145
0.139048430918161,1923.76264604145
0.14300500360746,1923.77264604145
0.142899421038515,1923.78264604145
0.139562216139804,1923.79264604145
0.133376545354132,1923.80264604145
0.123464314825017,1923.81264604145
0.111051472045042,1923.82264604145
0.0959887951485216,1923.83264604145
0.0805851479790815,1923.84264604145
0.0642363954953378,1923.85264604145
0.0475132167295532,1923.86264604145
0.0304117965327626,1923.87264604145
0.0129076881092771,1923.88264604145
-0.00513886051362368,1923.89264604145
-0.0238916251341268,1923.90264604144
-0.0427308834095922,1923.91264604144
-0.0614301548548033,1923.92264604145
-0.0792972332057567,1923.93264604145
-0.0961882525229703,1923.94264604145
-0.111653200320963,1923.95264604145
-0.126006269693903,1923.96264604145
-0.139567305048433,1923.97264604145
-0.152459885491325,1923.98264604145
-0.164698072475925,1923.99264604145
-0.177114437650308,1924.00264604145
-0.188721057011273,1924.01264604145
-0.200222537852931,1924.02264604145
-0.211653453274497,1924.03264604145
-0.222370854125586,1924.04264604145
-0.23292751786642,1924.05264604145
-0.242660497869393,1924.06264604145
-0.251548398416759,1924.07264604145
-0.260164380682294,1924.08264604145
-0.268354756395102,1924.09264604145
-0.276738362121729,1924.10264604145
-0.285011104342504,1924.11264604145
-0.293275020040337,1924.12264604145
-0.301935151217953,1924.13264604145
-0.31025914038305,1924.14264604145
-0.319105832957891,1924.15264604144
-0.325639894031455,1924.16264604144
-0.3267593261481,1924.17264604145
-0.316535621059966,1924.18264604145
-0.289497864637657,1924.19264604145
-0.240673967843334,1924.20264604145
-0.16758211929307,1924.21264604145
-0.0719296826105491,1924.22264604145
0.0407556131547247,1924.23264604145
0.163002713547487,1924.24264604145
0.285851225766976,1924.25264604145
0.399314224940841,1924.26264604145
0.49635899588185,1924.27264604145
0.571921960315307,1924.28264604145
0.62489937935376,1924.29264604145
0.65642051281615,1924.30264604145
0.669184108477053,1924.31264604145
0.666033178297986,1924.32264604145
0.651465272970955,1924.33264604145
0.629653311254135,1924.34264604145
0.603242212985557,1924.35264604145
0.574702508809869,1924.36264604145
0.544948333408419,1924.37264604145
0.514879189611039,1924.38264604145
0.485499543645122,1924.39264604145
0.457489232759325,1924.40264604144
0.430580925886653,1924.41264604144
0.404594604040789,1924.42264604145
0.378472264616105,1924.43264604145
0.351325168156331,1924.44264604145
0.323238390464828,1924.45264604145
0.294659044149413,1924.46264604145
0.266245939146018,1924.47264604145
0.238760414037947,1924.48264604145
0.213782136496178,1924.49264604145
0.193332785585672,1924.50264604145
0.177497071151775,1924.51264604145
0.167174209460384,1924.52264604145
0.163418432215818,1924.53264604145
0.165191333819499,1924.54264604145
0.17127924694722,1924.55264604145
0.180433303777029,1924.56264604145
0.191471102450003,1924.57264604145
0.203687092616266,1924.58264604145
0.215696930566501,1924.59264604145
0.226520424170983,1924.60264604145
0.235643281173225,1924.61264604145
0.241563512716306,1924.62264604145
0.244321054783335,1924.63264604145
0.244063071715625,1924.64264604145
0.239508082361991,1924.65264604144
0.231963726679622,1924.66264604144
0.221322786407121,1924.67264604145
0.20792342095952,1924.68264604145
0.192714645072948,1924.69264604145
0.175366625169548,1924.70264604145
0.15706935978661,1924.71264604145
0.138111846243067,1924.72264604145
0.118660681064988,1924.73264604145
0.0992511644663606,1924.74264604145
0.079825624305069,1924.75264604145
0.0605527141595071,1924.76264604145
0.0415369948920616,1924.77264604145
0.0232758419008953,1924.78264604145
0.00519802866400509,1924.79264604145
-0.011959474250222,1924.80264604145
-0.0282100135776109,1924.81264604145
-0.0434800307761171,1924.82264604145
-0.0580734090538775,1924.83264604145
-0.0725374120151139,1924.84264604145
-0.0871521896359499,1924.85264604145
-0.101051194369102,1924.86264604145
-0.114227134535041,1924.87264604145
-0.126640524254218,1924.88264604145
-0.13815127001092,1924.89264604145
-0.148719792775464,1924.90264604144
-0.158810449872484,1924.91264604144
-0.168852657344823,1924.92264604145
-0.179039500122789,1924.93264604145
-0.189308485536558,1924.94264604145
-0.199632718829097,1924.95264604145
-0.210126114797918,1924.96264604145
-0.22084921853056,1924.97264604145
-0.231072614970791,1924.98264604145
-0.241093671439421,1924.99264604145
-0.25029720512819,1925.00264604145
-0.258573204952975,1925.01264604145
-0.267006617642374,1925.02264604145
-0.275503739917541,1925.03264604145
-0.284430447100862,1925.04264604145
-0.293084998322062,1925.05264604145
-0.301424924323726,1925.06264604145
-0.30622864322193,1925.07264604145
-0.303603046722672,1925.08264604145
-0.287850175816437,1925.09264604145
-0.251616858826858,1925.10264604145
-0.191260831032972,1925.11264604145
-0.105132821116543,1925.12264604145
0.00382377869471174,1925.13264604145
0.1274155599918,1925.14264604145
0.256606142080949,1925.15264604144
0.380669287337339,1925.16264604144
0.491218677219037,1925.17264604145
0.581966324767593,1925.18264604145
0.650009920102301,1925.19264604145
0.694300697923142,1925.20264604145
0.716980249760055,1925.21264604145
0.721102633383105,1925.22264604145
0.71186908190502,1925.23264604145
0.692659527724145,1925.24264604145
0.666782012931153,1925.25264604145
0.637078776265007,1925.26264604145
0.605112624716228,1925.27264604145
0.572403207624994,1925.28264604145
0.540893105395014,1925.29264604145
0.511016526060606,1925.30264604145
0.483901199549435,1925.31264604145
0.458711605741849,1925.32264604145
0.434347835740561,1925.33264604145
0.410324203581607,1925.34264604145
0.385448274130496,1925.35264604145
0.35887388497321,1925.36264604145
0.331348164786999,1925.37264604145
0.304244904531408,1925.38264604145
0.278346644979233,1925.39264604145
0.255609444410076,1925.40264604144
0.236450572837266,1925.41264604144
0.221684810300235,1925.42264604145
0.212707482263921,1925.43264604145
0.208788208746855,1925.44264604145
0.210468753436838,1925.45264604145
0.216208310584721,1925.46264604145
0.225933259245033,1925.47264604145
0.237474925152441,1925.48264604145
0.249563361841458,1925.49264604145
0.261513564914664,1925.50264604145
0.271963526339408,1925.51264604145
0.28050500398154,1925.52264604145
0.286434500359261,1925.53264604145
0.288881498871574,1925.54264604145
0.287717184253794,1925.55264604145
0.283357327304496,1925.56264604145
0.275468830035997,1925.57264604145
0.26423059284851,1925.58264604145
0.250779407584454,1925.59264604145
0.234896685876976,1925.60264604145
0.217339276400498,1925.61264604145
0.199224146244288,1925.62264604145
0.180460957059877,1925.63264604145
0.161707333363557,1925.64264604145
0.142999446928903,1925.65264604144
0.124590996485748,1925.66264604144
0.105829465203647,1925.67264604145
0.0867557597938703,1925.68264604145
0.0674198594508051,1925.69264604145
0.0480445447823156,1925.70264604145
0.0291443987369476,1925.71264604145
0.0111075145817069,1925.72264604145
-0.00536445421567381,1925.73264604145
-0.020657332508664,1925.74264604145
-0.0351971992935742,1925.75264604145
-0.0493348063487643,1925.76264604145
-0.0627134887033219,1925.77264604145
-0.0752067224962656,1925.78264604145
-0.0877010977537365,1925.79264604145
-0.0987690275478769,1925.80264604145
-0.10980283182779,1925.81264604145
-0.120137593792711,1925.82264604145
-0.130214904045376,1925.83264604145
-0.14070804805811,1925.84264604145
-0.15145261671819,1925.85264604145
-0.162170940906654,1925.86264604145
-0.172762662175894,1925.87264604145
-0.183128345116829,1925.88264604145
-0.193310833855662,1925.89264604145
-0.202982108715172,1925.90264604144
-0.21257580558898,1925.91264604144
-0.222118842611138,1925.92264604145
-0.231953005022468,1925.93264604145
-0.242512614936353,1925.94264604145
-0.253842582699318,1925.95264604145
-0.264788686482906,1925.96264604145
-0.273769288011034,1925.97264604145
-0.276341653154894,1925.98264604145
-0.266380831439206,1925.99264604145
-0.23786348943651,1926.00264604145
-0.185432712020959,1926.01264604145
-0.108072571702184,1926.02264604145
-0.00828985041269563,1926.03264604145
0.107583872288011,1926.04264604145
0.231162352345781,1926.05264604145
0.352276331421376,1926.06264604145
0.462652696778402,1926.07264604145
0.555483140261852,1926.08264604145
0.62720160623473,1926.09264604145
0.676758074533431,1926.10264604145
0.704685495441922,1926.11264604145
0.714125685212356,1926.12264604145
0.707704477227291,1926.13264604145
0.689642346026159,1926.14264604145
0.664092657348638,1926.15264604144
0.633681657638365,1926.16264604144
0.600275762405077,1926.17264604145
0.566661417195391,1926.18264604145
0.532963425060589,1926.19264604145
0.500093915823488,1926.20264604145
0.468391102222752,1926.21264604145
0.437859092789196,1926.22264604145
0.408643151856998,1926.23264604145
0.379594523819299,1926.24264604145
0.34955202114873,1926.25264604145
0.318515440000449,1926.26264604145
0.287133574099828,1926.27264604145
0.256113374619878,1926.28264604145
0.226613395241413,1926.29264604145
0.200309827436746,1926.30264604145
0.177943041522269,1926.31264604145
0.160838350718165,1926.32264604145
0.149267382726437,1926.33264604145
0.143972872151094,1926.34264604145
0.143915955393875,1926.35264604145
0.148639457129443,1926.36264604145
0.156952532087008,1926.37264604145
0.167808695908592,1926.38264604145
0.179665153036326,1926.39264604145
0.19167282783942,1926.40264604144
0.202310200422564,1926.41264604144
0.211284913639004,1926.42264604145
0.218155862459643,1926.43264604145
0.221884353170586,1926.44264604145
0.222362956214932,1926.45264604145
0.219391990458656,1926.46264604145
0.212721198498337,1926.47264604145
0.202756741746093,1926.48264604145
0.189901192077831,1926.49264604145
0.174641117865929,1926.50264604145
0.156838138718545,1926.51264604145
0.137510741855028,1926.52264604145
0.117219169569257,1926.53264604145
0.0964307492281716,1926.54264604145
0.0753352013411975,1926.55264604145
0.054578470597079,1926.56264604145
0.0333963211469846,1926.57264604145
0.0127966707482812,1926.58264604145
-0.00772134276605044,1926.59264604145
-0.0273348932032797,1926.60264604145
-0.0466453666234761,1926.61264604145
-0.0650638533041574,1926.62264604145
-0.0831662221557678,1926.63264604145
-0.100509001744003,1926.64264604145
-0.116770348453999,1926.65264604144
-0.132230048623263,1926.66264604144
-0.146912793929657,1926.67264604145
-0.160877462948902,1926.68264604145
-0.174186177532113,1926.69264604145
-0.186656986365181,1926.70264604145
-0.198042828984388,1926.71264604145
-0.209283631733971,1926.72264604145
-0.220473497677967,1926.73264604145
-0.232215423695428,1926.74264604145
-0.244274642927619,1926.75264604145
-0.256122224339062,1926.76264604145
-0.268064459957483,1926.77264604145
-0.279022136476229,1926.78264604145
-0.289337756560355,1926.79264604145
-0.299543412183303,1926.80264604145
-0.30979718991106,1926.81264604145
-0.319592802748132,1926.82264604145
-0.329973602160095,1926.83264604145
-0.340513079003001,1926.84264604145
-0.350960124824277,1926.85264604145
-0.361036657811529,1926.86264604145
-0.369916781651193,1926.87264604145
-0.375326016038026,1926.88264604145
-0.37299477688372,1926.89264604145
-0.356472790080686,1926.90264604144
-0.320071601229364,1926.91264604144
-0.259412072881815,1926.92264604145
-0.173938881139204,1926.93264604145
-0.0669733102775436,1926.94264604145
0.0545563855759393,1926.95264604145
0.181086015386539,1926.96264604145
0.304091373964761,1926.97264604145
0.414379636095409,1926.98264604145
0.506040852525629,1926.99264604145
0.575846999840992,1927.00264604145
0.62281909973046,1927.01264604145
0.647865990574462,1927.02264604145
0.6545890484079,1927.03264604145
0.646185731990842,1927.04264604145
0.626277996942464,1927.05264604145
0.598941840087787,1927.06264604145
0.567010176731964,1927.07264604145
0.532137986646271,1927.08264604145
0.495411844146074,1927.09264604145
0.458135817984248,1927.10264604145
0.420657230015838,1927.11264604145
0.383378524027315,1927.12264604145
0.346470577731747,1927.13264604145
0.309726405878354,1927.14264604145
0.273387816561944,1927.15264604144
0.237089882416378,1927.16264604144
0.201350094528191,1927.17264604145
0.167543775166629,1927.18264604145
0.136697450189958,1927.19264604145
0.109952046364473,1927.20264604145
0.0885941771802699,1927.21264604145
0.0727943909044916,1927.22264604145
0.0632873875139127,1927.23264604145
0.060347092329587,1927.24264604145
0.0639449534687838,1927.25264604145
0.0737133705665175,1927.26264604145
0.087884998371497,1927.27264604145
0.106236661002103,1927.28264604145
0.125993510349125,1927.29264604145
0.146124467635778,1927.30264604145
0.164685363079602,1927.31264604145
0.180884665880121,1927.32264604145
0.193874254130454,1927.33264604145
0.202706258104862,1927.34264604145
0.206626930133482,1927.35264604145
0.205982227187588,1927.36264604145
0.200694133440752,1927.37264604145
0.191707187145222,1927.38264604145
0.179626300726135,1927.39264604145
0.165083739740273,1927.40264604144
0.148615776193859,1927.41264604144
0.1308747192991,1927.42264604145
0.112624340474472,1927.43264604145
0.0936789564256153,1927.44264604145
0.0744260544810003,1927.45264604145
0.0549076777683619,1927.46264604145
0.0347652108888062,1927.47264604145
0.0144265770216803,1927.48264604145
-0.0054671628295478,1927.49264604145
-0.0250169045958219,1927.50264604145
-0.044258427947442,1927.51264604145
-0.0623223229378568,1927.52264604145
-0.0794540163503027,1927.53264604145
-0.0959503544333241,1927.54264604145
-0.110963618370675,1927.55264604145
-0.125050717255906,1927.56264604145
-0.138333974846319,1927.57264604145
-0.150346921627584,1927.58264604145
-0.161675878841091,1927.59264604145
-0.172505772930285,1927.60264604145
-0.183039638244721,1927.61264604145
-0.192608178677705,1927.62264604145
-0.202106349736531,1927.63264604145
-0.211913092295152,1927.64264604145
-0.221019145030487,1927.65264604144
-0.229478365550507,1927.66264604144
-0.237830708845351,1927.67264604145
-0.245621045115773,1927.68264604145
-0.253308882518048,1927.69264604145
-0.261955372887042,1927.70264604145
-0.270952109399845,1927.71264604145
-0.279969637507073,1927.72264604145
-0.28796643143951,1927.73264604145
-0.292800120574763,1927.74264604145
-0.289134659538707,1927.75264604145
-0.271370624221488,1927.76264604145
-0.233127576157154,1927.77264604145
-0.170954318153964,1927.78264604145
-0.0834846915191301,1927.79264604145
0.0263282046744468,1927.80264604145
0.150890941838585,1927.81264604145
0.282111751601826,1927.82264604145
0.409095986015738,1927.83264604145
0.522981706733651,1927.84264604145
0.616429563644651,1927.85264604145
0.686806962417699,1927.86264604145
0.732503013655915,1927.87264604145
0.756111465191195,1927.88264604145
0.760791175998867,1927.89264604145
0.751139968867439,1927.90264604144
0.731522687509557,1927.91264604144
0.704959722752358,1927.92264604145
0.673940365620728,1927.93264604145
0.640505474891948,1927.94264604145
0.60626728495633,1927.95264604145
0.572558378943908,1927.96264604145
0.540336703066344,1927.97264604145
0.510254348687649,1927.98264604145
0.481554140760942,1927.99264604145
0.453430132389486,1928.00264604145
0.42484387936375,1928.01264604145
0.395612989986008,1928.02264604145
0.364655905395096,1928.03264604145
0.333008392350658,1928.04264604145
0.302107685033627,1928.05264604145
0.273170296384909,1928.06264604145
0.248237064858609,1928.07264604145
0.228641873070641,1928.08264604145
0.216001461865157,1928.09264604145
0.209778296490198,1928.10264604145
0.210024517200686,1928.11264604145
0.215768431687957,1928.12264604145
0.226040919190417,1928.13264604145
0.240120656708267,1928.14264604145
0.255464524614538,1928.15264604144
0.271351867115262,1928.16264604144
0.285922308275131,1928.17264604145
0.298196166289259,1928.18264604145
0.307604036475198,1928.19264604145
0.313377863261979,1928.20264604145
0.315685537840873,1928.21264604145
0.313554734175311,1928.22264604145
0.307683403648154,1928.23264604145
0.298432264653352,1928.24264604145
0.285604072264135,1928.25264604145
0.270348378829838,1928.26264604145
0.253291064613333,1928.27264604145
0.234831216374094,1928.28264604145
0.215451979658691,1928.29264604145
0.195733295162966,1928.30264604145
0.175037019697695,1928.31264604145
0.154336495386873,1928.32264604145
0.133883336925783,1928.33264604145
0.112985138982188,1928.34264604145
0.0931746926316534,1928.35264604145
0.0740867727112815,1928.36264604145
0.0561760794717899,1928.37264604145
0.0392101146093086,1928.38264604145
0.023411850264382,1928.39264604145
0.00827162668877508,1928.40264604144
-0.00592208048680335,1928.41264604144
-0.0194285860224545,1928.42264604145
-0.0320812282460763,1928.43264604145
-0.0440701831740516,1928.44264604145
-0.0557538930242146,1928.45264604145
-0.0661547548224518,1928.46264604145
-0.0763600934262931,1928.47264604145
-0.0865470117792054,1928.48264604145
-0.0963575687119025,1928.49264604145
-0.10652880975783,1928.50264604145
-0.116921434287031,1928.51264604145
-0.127191217286508,1928.52264604145
-0.13720943905871,1928.53264604145
-0.146743706292937,1928.54264604145
-0.15636985048839,1928.55264604145
-0.165513679253439,1928.56264604145
-0.174738406857989,1928.57264604145
-0.184065489013368,1928.58264604145
-0.193202379050016,1928.59264604145
-0.201960754443291,1928.60264604145
-0.207262969727273,1928.61264604145
-0.204761769241504,1928.62264604145
-0.186624659727824,1928.63264604145
-0.147455664857108,1928.64264604145
-0.0823145340116317,1928.65264604144
0.00946182301725433,1928.66264604144
0.123665402372594,1928.67264604145
0.253756395123596,1928.68264604145
0.38928409952032,1928.69264604145
0.51904593829991,1928.70264604145
0.633897541991827,1928.71264604145
0.726774234109359,1928.72264604145
0.79457372444259,1928.73264604145
0.837300755004565,1928.74264604145
0.85724659459922,1928.75264604145
0.858114274579352,1928.76264604145
0.844647558590849,1928.77264604145
0.820973939537447,1928.78264604145
0.790366265055574,1928.79264604145
0.755989721744283,1928.80264604145
0.720438167331481,1928.81264604145
0.68581697526459,1928.82264604145
0.653927431258497,1928.83264604145
0.624997021892354,1928.84264604145
0.59923795041995,1928.85264604145
0.57471418123521,1928.86264604145
0.5503897636806,1928.87264604145
0.524814901092098,1928.88264604145
0.497021294013156,1928.89264604145
0.467864049747889,1928.90264604144
0.437859104919064,1928.91264604144
0.408494662413217,1928.92264604145
0.381378952833829,1928.93264604145
0.357533214050444,1928.94264604145
0.338177098181094,1928.95264604145
0.32431509944984,1928.96264604145
0.316385588013672,1928.97264604145
0.313427954134185,1928.98264604145
0.315423743043827,1928.99264604145
0.320982878539041,1929.00264604145
0.329355052796732,1929.01264604145
0.339714662041579,1929.02264604145
0.350942061378269,1929.03264604145
0.362001581524509,1929.04264604145
0.37168875229512,1929.05264604145
0.379038112264927,1929.06264604145
0.383475644314732,1929.07264604145
0.384144995190308,1929.08264604145
0.381905007031441,1929.09264604145
0.375829948451442,1929.10264604145
0.367156503573907,1929.11264604145
0.355308924022609,1929.12264604145
0.340574868392209,1929.13264604145
0.323729742441018,1929.14264604145
0.304986943165227,1929.15264604144
0.285137515023064,1929.16264604144
0.264381480782975,1929.17264604145
0.243442643135239,1929.18264604145
0.22222675738924,1929.19264604145
0.201132949730579,1929.20264604145
0.180064429006121,1929.21264604145
0.159153661725535,1929.22264604145
0.138737895225854,1929.23264604145
0.119133757813358,1929.24264604145
0.100945461155174,1929.25264604145
0.0839512651643539,1929.26264604145
0.068233861341771,1929.27264604145
0.0532625287782364,1929.28264604145
0.0395668984757768,1929.29264604145
0.0267184137332305,1929.30264604145
0.0138103294891708,1929.31264604145
0.00103599156290394,1929.32264604145
-0.011718542629871,1929.33264604145
-0.0252053615240084,1929.34264604145
-0.0376761882286588,1929.35264604145
-0.0497961055858169,1929.36264604145
-0.0610133708836847,1929.37264604145
-0.0715230535187965,1929.38264604145
-0.0823440788954668,1929.39264604145
-0.0931955932517432,1929.40264604144
-0.10393683828545,1929.41264604144
-0.114593674894916,1929.42264604145
-0.125900919483759,1929.43264604145
-0.135921006984507,1929.44264604145
-0.14595062052217,1929.45264604145
-0.156324354781785,1929.46264604145
-0.166970173919833,1929.47264604145
-0.17672809024152,1929.48264604145
-0.184041164714403,1929.49264604145
-0.184330430331174,1929.50264604145
-0.171463096417248,1929.51264604145
-0.139335527405037,1929.52264604145
-0.0821336819504716,1929.53264604145
0.00178342066520225,1929.54264604145
0.110104223057149,1929.55264604145
0.236602956679732,1929.56264604145
0.371677014821861,1929.57264604145
0.503848925116295,1929.58264604145
0.623419627142902,1929.59264604145
0.722055449826953,1929.60264604145
0.796044250877615,1929.61264604145
0.844427217281779,1929.62264604145
0.868633750167938,1929.63264604145
0.873029463389689,1929.64264604145
0.862096531940114,1929.65264604144
0.839498643099025,1929.66264604144
0.809390822617773,1929.67264604145
0.774528997569284,1929.68264604145
0.738514944579972,1929.69264604145
0.703353152940318,1929.70264604145
0.67073744539871,1929.71264604145
0.641469672629793,1929.72264604145
0.614165921937135,1929.73264604145
0.588064839950193,1929.74264604145
0.561906011745354,1929.75264604145
0.534413721352082,1929.76264604145
0.505370690663498,1929.77264604145
0.474275697082264,1929.78264604145
0.442083754985204,1929.79264604145
0.409480504555873,1929.80264604145
0.378748110853615,1929.81264604145
0.351005436163846,1929.82264604145
0.328006100593434,1929.83264604145
0.310515347087185,1929.84264604145
0.298257522858259,1929.85264604145
0.291738900789597,1929.86264604145
0.28983883784257,1929.87264604145
0.292807188188498,1929.88264604145
0.299003198591097,1929.89264604145
0.308036531203455,1929.90264604144
0.318873366462443,1929.91264604144
0.329438676381804,1929.92264604145
0.338902392284969,1929.93264604145
0.345242026257234,1929.94264604145
0.348718639656752,1929.95264604145
0.348950763696211,1929.96264604145
0.345869192162378,1929.97264604145
0.339050276587774,1929.98264604145
0.328951874875081,1929.99264604145
0.315911161832031,1930.00264604145
0.299799119113548,1930.01264604145
0.282119190599937,1930.02264604145
0.262640124394691,1930.03264604145
0.241945841579876,1930.04264604145
0.220056261604884,1930.05264604145
0.197778405250522,1930.06264604145
0.175525867014538,1930.07264604145
0.153147152019885,1930.08264604145
0.131261112286612,1930.09264604145
0.109998818691546,1930.10264604145
0.0890549408760878,1930.11264604145
0.0686255982769165,1930.12264604145
0.0482782102846924,1930.13264604145
0.0288725289238601,1930.14264604145
0.0099169490488975,1930.15264604144
-0.00816730746652298,1930.16264604144
-0.0252216070103849,1930.17264604145
-0.0415200531760159,1930.18264604145
-0.0563165124687973,1930.19264604145
-0.0699874797466207,1930.20264604145
-0.0833381519204663,1930.21264604145
-0.0962624633371544,1930.22264604145
-0.108797694820037,1930.23264604145
-0.12216449394563,1930.24264604145
-0.134647241457236,1930.25264604145
-0.147440686855873,1930.26264604145
-0.159921929622992,1930.27264604145
-0.171920468466294,1930.28264604145
-0.184392729760485,1930.29264604145
-0.196785192859661,1930.30264604145
-0.209139649706827,1930.31264604145
-0.221298892403695,1930.32264604145
-0.233608397401275,1930.33264604145
-0.24622215682063,1930.34264604145
-0.257820414885472,1930.35264604145
-0.268036347812587,1930.36264604145
-0.273231987912921,1930.37264604145
-0.269705449454087,1930.38264604145
-0.251187995705678,1930.39264604145
-0.211737791872945,1930.40264604144
-0.147558876246142,1930.41264604144
-0.0577085653138983,1930.42264604145
0.0529899877030732,1930.43264604145
0.178708658741478,1930.44264604145
0.309387819959002,1930.45264604145
0.434863156152607,1930.46264604145
0.546037629585236,1930.47264604145
0.635045064171998,1930.48264604145
0.699692968009828,1930.49264604145
0.738949114926113,1930.50264604145
0.75531225495593,1930.51264604145
0.75230994757996,1930.52264604145
0.734014942163791,1930.53264604145
0.704415575570518,1930.54264604145
0.66735372592505,1930.55264604145
0.626186824578259,1930.56264604145
0.584288556675201,1930.57264604145
0.543439555519376,1930.58264604145
0.504655002685288,1930.59264604145
0.468068396515924,1930.60264604145
0.432286428999864,1930.61264604145
0.397285486024847,1930.62264604145
0.361853254261256,1930.63264604145
0.325548051253812,1930.64264604145
0.288341074807311,1930.65264604144
0.251897948548224,1930.66264604144
0.216356142597143,1930.67264604145
0.183577396256212,1930.68264604145
0.154926520818595,1930.69264604145
0.131446110921459,1930.70264604145
0.114048169184614,1930.71264604145
0.103825212936733,1930.72264604145
0.101151343806988,1930.73264604145
0.105197207280756,1930.74264604145
0.115353728900954,1930.75264604145
0.130707373288355,1930.76264604145
0.149015701620663,1930.77264604145
0.169403819160319,1930.78264604145
0.189820780440561,1930.79264604145
0.208287153890832,1930.80264604145
0.224347918144406,1930.81264604145
0.236240109538846,1930.82264604145
0.243943288318753,1930.83264604145
0.246193643623284,1930.84264604145
0.243875050289824,1930.85264604145
0.23699863969539,1930.86264604145
0.226506100079717,1930.87264604145
0.213159172492703,1930.88264604145
0.197277159704006,1930.89264604145
0.179439478681156,1930.90264604144
0.160149172717816,1930.91264604144
0.140382611857922,1930.92264604145
0.1205708605171,1930.93264604145
0.100762378388677,1930.94264604145
0.081736926539628,1930.95264604145
0.0627540700573267,1930.96264604145
0.0435597938139946,1930.97264604145
0.0242457142353341,1930.98264604145
0.00518706068159446,1930.99264604145
-0.0127806794834638,1931.00264604145
-0.029574217622261,1931.01264604145
-0.0454625449195132,1931.02264604145
-0.0602463159745218,1931.03264604145
-0.0740879801773599,1931.04264604145
-0.0873527709703973,1931.05264604145
-0.0997791122854632,1931.06264604145
-0.111323643015216,1931.07264604145
-0.122649503934763,1931.08264604145
-0.133479332736479,1931.09264604145
-0.144029743861267,1931.10264604145
-0.15399413520107,1931.11264604145
-0.163479306168513,1931.12264604145
-0.172321466545883,1931.13264604145
-0.181073988731631,1931.14264604145
-0.189641310891087,1931.15264604144
-0.19848831748067,1931.16264604144
-0.208318572369402,1931.17264604145
-0.218531178999879,1931.18264604145
-0.22951590161562,1931.19264604145
-0.239870326395982,1931.20264604145
-0.247463903126522,1931.21264604145
-0.24885120180127,1931.22264604145
-0.239054102333374,1931.23264604145
-0.210695175677138,1931.24264604145
-0.159053890373583,1931.25264604145
-0.0806942476987574,1931.26264604145
0.0222189893658617,1931.27264604145
0.144532376099417,1931.28264604145
0.278042730196468,1931.29264604145
0.41077097985707,1931.30264604145
0.532189626659747,1931.31264604145
0.633602533602422,1931.32264604145
0.710087753855505,1931.33264604145
0.760214138687518,1931.34264604145
0.785495228314233,1931.35264604145
0.789000075019799,1931.36264604145
0.775986698202603,1931.37264604145
0.74942656234793,1931.38264604145
0.714938511411788,1931.39264604145
0.676622593782762,1931.40264604144
0.637712495125971,1931.41264604144
0.600649359365185,1931.42264604145
0.566375731740901,1931.43264604145
0.534606461071425,1931.44264604145
0.50407782307408,1931.45264604145
0.475235611021756,1931.46264604145
0.445853916359734,1931.47264604145
0.416085696719273,1931.48264604145
0.385336331993971,1931.49264604145
0.35342309234569,1931.50264604145
0.32108521937865,1931.51264604145
0.289623979920367,1931.52264604145
0.260987349824158,1931.53264604145
0.236792627147183,1931.54264604145
0.217885476563921,1931.55264604145
0.205339940593181,1931.56264604145
0.198772456021708,1931.57264604145
0.198203832615365,1931.58264604145
0.203017324931492,1931.59264604145
0.212875322918542,1931.60264604145
0.226127008194957,1931.61264604145
0.241856152500356,1931.62264604145
0.257799453159912,1931.63264604145
0.272393122554432,1931.64264604145
0.284580130665241,1931.65264604144
0.293757190650004,1931.66264604144
0.298768134441803,1931.67264604145
0.299282818114321,1931.68264604145
0.295773940805124,1931.69264604145
0.288558747303594,1931.70264604145
0.278009623170971,1931.71264604145
0.26486544737246,1931.72264604145
0.249512589589929,1931.73264604145
0.232070860067163,1931.74264604145
0.213243881650758,1931.75264604145
0.193666599127437,1931.76264604145
0.173352492722146,1931.77264604145
0.152996471932724,1931.78264604145
0.132492994942516,1931.79264604145
0.112014146278798,1931.80264604145
0.0918348910943031,1931.81264604145
0.0723476759213603,1931.82264604145
0.0536535627904626,1931.83264604145
0.0355197208064405,1931.84264604145
0.0179727921844419,1931.85264604145
0.000762306890325066,1931.86264604145
-0.0162971046372099,1931.87264604145
-0.0331012381467786,1931.88264604145
-0.0484648354798987,1931.89264604145
-0.0622647865858787,1931.90264604144
-0.0748600241808624,1931.91264604144
-0.0861245575035849,1931.92264604145
-0.0965939259833435,1931.93264604145
-0.106902795971954,1931.94264604145
-0.117200392792695,1931.95264604145
-0.12781341155952,1931.96264604145
-0.138489702258737,1931.97264604145
-0.149464933957756,1931.98264604145
-0.160550065126416,1931.99264604145
-0.171334812274139,1932.00264604145
-0.181466878052676,1932.01264604145
-0.191477487176931,1932.02264604145
-0.201062214363567,1932.03264604145
-0.211454879153336,1932.04264604145
-0.222030255643505,1932.05264604145
-0.233489786896087,1932.06264604145
-0.245059144444936,1932.07264604145
-0.255278452669125,1932.08264604145
-0.262956864369789,1932.09264604145
-0.263676153047539,1932.10264604145
-0.252079432757614,1932.11264604145
-0.220973433112426,1932.12264604145
-0.165361766064931,1932.13264604145
-0.0820195217193048,1932.14264604145
0.026879001293092,1932.15264604144
0.155815503504469,1932.16264604144
0.29541331590408,1932.17264604145
0.433043562678934,1932.18264604145
0.557325701547342,1932.19264604145
0.659460385686317,1932.20264604145
0.734137298370189,1932.21264604145
0.780872444080761,1932.22264604145
0.801382457069902,1932.23264604145
0.800500906509647,1932.24264604145
0.78289371478813,1932.25264604145
0.754105834546494,1932.26264604145
0.719476599732608,1932.27264604145
0.683234727617052,1932.28264604145
0.647614069579138,1932.29264604145
0.613882007034728,1932.30264604145
0.581880167532537,1932.31264604145
0.552374065210877,1932.32264604145
0.525162749931125,1932.33264604145
0.499655032013359,1932.34264604145
0.475497453595977,1932.35264604145
0.450904901152741,1932.36264604145
0.425093912235896,1932.37264604145
0.397485115920849,1932.38264604145
0.368229817194512,1932.39264604145
0.339561115653223,1932.40264604144
0.312204531434793,1932.41264604144
0.288338047568053,1932.42264604145
0.26861888299045,1932.43264604145
0.254527069023089,1932.44264604145
0.246397207824023,1932.45264604145
0.244140648152625,1932.46264604145
0.247164865272268,1932.47264604145
0.254564616483184,1932.48264604145
0.264968312986353,1932.49264604145
0.277192391411679,1932.50264604145
0.289598793153515,1932.51264604145
0.30114853482127,1932.52264604145
0.310903498215916,1932.53264604145
0.317576523996537,1932.54264604145
0.320862990745167,1932.55264604145
0.320755832523987,1932.56264604145
0.317074685062021,1932.57264604145
0.309811032861976,1932.58264604145
0.299089781069349,1932.59264604145
0.285584093107776,1932.60264604145
0.269449074479496,1932.61264604145
0.251386444599397,1932.62264604145
0.231679392692544,1932.63264604145
0.210775478529655,1932.64264604145
0.189125611146176,1932.65264604144
0.167361030104093,1932.66264604144
0.14566730560796,1932.67264604145
0.124007155625997,1932.68264604145
0.102543379254113,1932.69264604145
0.0809161684610536,1932.70264604145
0.0591852212495225,1932.71264604145
0.0372222124717166,1932.72264604145
0.0164365023716094,1932.73264604145
-0.00402690180127117,1932.74264604145
-0.0235656764216994,1932.75264604145
-0.0424611690141816,1932.76264604145
-0.0610003505461422,1932.77264604145
-0.0794336865643866,1932.78264604145
-0.0971124629915916,1932.79264604145
-0.113866414019384,1932.80264604145
-0.129887497080197,1932.81264604145
-0.145057121267249,1932.82264604145
-0.159835573524928,1932.83264604145
-0.173754104930834,1932.84264604145
-0.187225662263299,1932.85264604145
-0.200396912944594,1932.86264604145
-0.213027363428746,1932.87264604145
-0.225774751422094,1932.88264604145
-0.238483074761929,1932.89264604145
-0.251268423329073,1932.90264604144
-0.263940846160126,1932.91264604144
-0.275451272413137,1932.92264604145
-0.287264875735812,1932.93264604145
-0.298352342327935,1932.94264604145
-0.309636502953944,1932.95264604145
-0.320650543554607,1932.96264604145
-0.33078579550749,1932.97264604145
-0.337840782939703,1932.98264604145
-0.337500223542426,1932.99264604145
-0.323449453480909,1933.00264604145
-0.289058989422768,1933.01264604145
-0.229654032248473,1933.02264604145
-0.142627799147792,1933.03264604145
-0.0306895360222775,1933.04264604145
0.0991264533608092,1933.05264604145
0.237479528198177,1933.06264604145
0.372341859563756,1933.07264604145
0.492181045997381,1933.08264604145
0.588630098689686,1933.09264604145
0.657890934512019,1933.10264604145
0.699458831828529,1933.11264604145
0.71572536562251,1933.12264604145
0.710920292902078,1933.13264604145
0.690462170859707,1933.14264604145
0.658772372028999,1933.15264604144
0.620990159907668,1933.16264604144
0.58085545540172,1933.17264604145
0.540852638210745,1933.18264604145
0.502926907753998,1933.19264604145
0.467637064945043,1933.20264604145
0.433948311933023,1933.21264604145
0.402490573409628,1933.22264604145
0.372467806081753,1933.23264604145
0.342903377003999,1933.24264604145
0.313112860405774,1933.25264604145
0.282570871682205,1933.26264604145
0.251428126272317,1933.27264604145
0.219333795796128,1933.28264604145
0.188817938277437,1933.29264604145
0.160604401912124,1933.30264604145
0.135899670866678,1933.31264604145
0.116174910585033,1933.32264604145
0.102690173645215,1933.33264604145
0.0955758860241329,1933.34264604145
0.0945940308847558,1933.35264604145
0.0995487322579951,1933.36264604145
0.108941522849371,1933.37264604145
0.121797291472698,1933.38264604145
0.137227221592976,1933.39264604145
0.153493716488598,1933.40264604144
0.169244386091312,1933.41264604144
0.182811861258459,1933.42264604145
0.192952072006055,1933.43264604145
0.199264480940345,1933.44264604145
0.201337688681096,1933.45264604145
0.199010445562097,1933.46264604145
0.192455755915393,1933.47264604145
0.182123841348802,1933.48264604145
0.167282020965691,1933.49264604145
0.149630729332643,1933.50264604145
0.130010560822107,1933.51264604145
0.109224612133553,1933.52264604145
0.0874857001479339,1933.53264604145
0.0655901471175246,1933.54264604145
0.0429572099368995,1933.55264604145
0.0206269002094752,1933.56264604145
-0.00111722629264772,1933.57264604145
-0.0229301385595776,1933.58264604145
-0.0446930671765459,1933.59264604145
-0.0660995357703814,1933.60264604145
-0.0871850148763309,1933.61264604145
-0.107367108363433,1933.62264604145
-0.127119482919033,1933.63264604145
-0.145937130787013,1933.64264604145
-0.163906926857027,1933.65264604144
-0.181521639886189,1933.66264604144
-0.198929076590469,1933.67264604145
-0.215954438515319,1933.68264604145
-0.234083047830454,1933.69264604145
-0.253092203101901,1933.70264604145
-0.273477511343884,1933.71264604145
-0.296453599727742,1933.72264604145
-0.321193535250822,1933.73264604145
-0.349883693182479,1933.74264604145
-0.383230035217642,1933.75264604145
-0.424590639451802,1933.76264604145
-0.475503326056418,1933.77264604145
-0.538559432491204,1933.78264604145
-0.615948064618819,1933.79264604145
-0.706916878294339,1933.80264604145
-0.809060871281479,1933.81264604145
-0.917313829436005,1933.82264604145
-1.02729622425685,1933.83264604145
-1.13116860481325,1933.84264604145
-1.22147980751302,1933.85264604145
-1.2887798948916,1933.86264604145
-1.32526207093978,1933.87264604145
-1.32569819496856,1933.88264604145
-1.29069121502788,1933.89264604145
-1.22784964665386,1933.90264604144
-1.14761691264404,1933.91264604144
-1.06205184605169,1933.92264604145
-0.982509015162308,1933.93264604145
-0.91688498832236,1933.94264604145
-0.868259223280474,1933.95264604145
-0.837314142479744,1933.96264604145
-0.821031155882221,1933.97264604145
-0.814719923042554,1933.98264604145
-0.814403581185871,1933.99264604145
-0.814624592516188,1934.00264604145
-0.811287206448991,1934.01264604145
-0.800961466431253,1934.02264604145
-0.782376966126127,1934.03264604145
-0.754187617743389,1934.04264604145
-0.716064976840087,1934.05264604145
-0.666855533192526,1934.06264604145
-0.603797243290947,1934.07264604145
-0.521573553534298,1934.08264604145
-0.415514747835811,1934.09264604145
-0.282650036930891,1934.10264604145
-0.124743613343852,1934.11264604145
0.0500792824789178,1934.12264604145
0.23007961941468,1934.13264604145
0.402757429774985,1934.14264604145
0.558462091702535,1934.15264604144
0.6932838959065,1934.16264604144
0.808858150359353,1934.17264604145
0.909753092838433,1934.18264604145
0.999242089107625,1934.19264604145
1.08114598768199,1934.20264604145
1.15697059890947,1934.21264604145
1.22827174057258,1934.22264604145
1.29489911246785,1934.23264604145
1.35592931802293,1934.24264604145
1.41179067910432,1934.25264604145
1.46189755756517,1934.26264604145
1.5058671345375,1934.27264604145
1.54344194405326,1934.28264604145
1.57470043619715,1934.29264604145
1.59969698740092,1934.30264604145
1.61866194733726,1934.31264604145
1.63233704952633,1934.32264604145
1.64116466167682,1934.33264604145
1.64570401708559,1934.34264604145
1.64609050258535,1934.35264604145
1.64323682048095,1934.36264604145
1.63724993342098,1934.37264604145
1.62911378760484,1934.38264604145
1.61945899721132,1934.39264604145
1.60829868667319,1934.40264604144
1.59569847536139,1934.41264604144
1.58235482113408,1934.42264604145
1.56776111842539,1934.43264604145
1.55124334329377,1934.44264604145
1.53342904612459,1934.45264604145
1.51345815797254,1934.46264604145
1.4910280129462,1934.47264604145
1.46641689225574,1934.48264604145
1.43909442317252,1934.49264604145
1.41036162663037,1934.50264604145
1.38060510099621,1934.51264604145
1.35092699078347,1934.52264604145
1.32068781209123,1934.53264604145
1.29141885788753,1934.54264604145
1.26205856849034,1934.55264604145
1.23263680707643,1934.56264604145
1.20266509425531,1934.57264604145
1.17292723648782,1934.58264604145
1.14373784191111,1934.59264604145
1.11518069496404,1934.60264604145
1.08788345224494,1934.61264604145
1.0620876374945,1934.62264604145
1.03797793864374,1934.63264604145
1.01549176361293,1934.64264604145
0.995319011391355,1934.65264604144
0.977841293199785,1934.66264604144
0.963899369009699,1934.67264604145
0.954310187050969,1934.68264604145
0.949395712245146,1934.69264604145
0.95225174205686,1934.70264604145
0.965860961524939,1934.71264604145
0.995764791647286,1934.72264604145
1.0466740322106,1934.73264604145
1.12046593457318,1934.74264604145
1.21628388571423,1934.75264604145
1.32730577496384,1934.76264604145
1.44482619507547,1934.77264604145
1.55745126582291,1934.78264604145
1.65543331920222,1934.79264604145
1.73163218487096,1934.80264604145
1.78371925531653,1934.81264604145
1.81211541267448,1934.82264604145
1.82010369510479,1934.83264604145
1.81252988115643,1934.84264604145
1.79408542994826,1934.85264604145
1.7682603220433,1934.86264604145
1.73780463139679,1934.87264604145
1.70519142883389,1934.88264604145
1.67349825705183,1934.89264604145
1.64434227496229,1934.90264604144
1.6175981795434,1934.91264604144
1.5938477422676,1934.92264604145
1.57241626322688,1934.93264604145
1.55243481727801,1934.94264604145
1.53291093159525,1934.95264604145
1.512973423341,1934.96264604145
1.49036779582566,1934.97264604145
1.46575648834548,1934.98264604145
1.43880550125121,1934.99264604145
1.40992300971838,1935.00264604145
1.38006716806808,1935.01264604145
1.35091712845056,1935.02264604145
1.32388398922387,1935.03264604145
1.29998550313255,1935.04264604145
1.27873527207211,1935.05264604145
1.26033531163259,1935.06264604145
1.24410998165933,1935.07264604145
1.22930736363277,1935.08264604145
1.21556985812347,1935.09264604145
1.20234438083514,1935.10264604145
1.18889179729317,1935.11264604145
1.17599637698206,1935.12264604145
1.16251738986927,1935.13264604145
1.14869803517011,1935.14264604145
1.13326937735061,1935.15264604144
1.11546991858681,1935.16264604144
1.09471505816041,1935.17264604145
1.07183855942842,1935.18264604145
1.04752173440387,1935.19264604145
1.02142109068362,1935.20264604145
0.994483065713208,1935.21264604145
0.967326923448851,1935.22264604145
0.939947674709512,1935.23264604145
0.913131808739407,1935.24264604145
0.886828561131708,1935.25264604145
0.860826310443193,1935.26264604145
0.835406840723512,1935.27264604145
0.810704888862848,1935.28264604145
0.786852531670214,1935.29264604145
0.764297169928328,1935.30264604145
0.74281787175169,1935.31264604145
0.722553429865264,1935.32264604145
0.703725931664576,1935.33264604145
0.685350137652268,1935.34264604145
0.66827892228779,1935.35264604145
0.652193259841035,1935.36264604145
0.636403758494774,1935.37264604145
0.620805141342453,1935.38264604145
0.60511554662918,1935.39264604145
0.588770567060568,1935.40264604144
0.5717618893915,1935.41264604144
0.554059489301822,1935.42264604145
0.535248701385201,1935.43264604145
0.515121808108912,1935.44264604145
0.494298476353326,1935.45264604145
0.471869395999446,1935.46264604145
0.448376996742994,1935.47264604145
0.424139870962556,1935.48264604145
0.398637495712074,1935.49264604145
0.371453037329559,1935.50264604145
0.342163292859416,1935.51264604145
0.310896870884897,1935.52264604145
0.277636260926272,1935.53264604145
0.244765379311486,1935.54264604145
0.214541038397572,1935.55264604145
0.19181480361332,1935.56264604145
0.183203279564064,1935.57264604145
0.195095700507388,1935.58264604145
0.232022070826704,1935.59264604145
0.294966887908082,1935.60264604145
0.380033304191674,1935.61264604145
0.478936846018802,1935.62264604145
0.580819140435554,1935.63264604145
0.673679488794065,1935.64264604145
0.748525710237397,1935.65264604144
0.799309243938017,1935.66264604144
0.824713042938654,1935.67264604145
0.826637503222342,1935.68264604145
0.81008705723482,1935.69264604145
0.779103851468507,1935.70264604145
0.739254003726846,1935.71264604145
0.694084443045313,1935.72264604145
0.645226407978853,1935.73264604145
0.59543917279932,1935.74264604145
0.546015505004728,1935.75264604145
0.499552773793547,1935.76264604145
0.456342038458626,1935.77264604145
0.416799826324369,1935.78264604145
0.379758211366471,1935.79264604145
0.344581717587576,1935.80264604145
0.309529071405486,1935.81264604145
0.273910207905786,1935.82264604145
0.238338466302017,1935.83264604145
0.202938730273387,1935.84264604145
0.168907142194183,1935.85264604145
0.13727697573176,1935.86264604145
0.109274187257855,1935.87264604145
0.0857818828824266,1935.88264604145
0.067458940063321,1935.89264604145
0.0551785740655762,1935.90264604144
0.0484522112083552,1935.91264604144
0.0468752199513908,1935.92264604145
0.0506378179569491,1935.93264604145
0.0577162075126376,1935.94264604145
0.0678325360290929,1935.95264604145
0.078768686155515,1935.96264604145
0.0893945557269999,1935.97264604145
0.0996637024231418,1935.98264604145
0.107026801884705,1935.99264604145
0.111235847894694,1936.00264604145
0.111577777204336,1936.01264604145
0.108338366667704,1936.02264604145
0.101007571001904,1936.03264604145
0.0901344476160194,1936.04264604145
0.0764503726689786,1936.05264604145
0.0601673931282789,1936.06264604145
0.0423865664807651,1936.07264604145
0.0234797555579559,1936.08264604145
0.00365117976117514,1936.09264604145
-0.0162725885748057,1936.10264604145
-0.0363949011963044,1936.11264604145
-0.0559794551012817,1936.12264604145
-0.0746635562897425,1936.13264604145
-0.0928790602694716,1936.14264604145
-0.110376907902889,1936.15264604144
-0.127817121378269,1936.16264604144
-0.145231786973696,1936.17264604145
-0.16262110719677,1936.18264604145
-0.179939871649432,1936.19264604145
-0.196798940749219,1936.20264604145
-0.213128594637339,1936.21264604145
-0.22875665011493,1936.22264604145
-0.244009932291333,1936.23264604145
-0.257890919134636,1936.24264604145
-0.271564967377999,1936.25264604145
-0.284415050423886,1936.26264604145
-0.296745977052445,1936.27264604145
-0.30867389937143,1936.28264604145
-0.320979359091057,1936.29264604145
-0.333499677636252,1936.30264604145
-0.346775166839628,1936.31264604145
-0.360881732040018,1936.32264604145
-0.374959752412811,1936.33264604145
-0.386250103120045,1936.34264604145
-0.390942137823249,1936.35264604145
-0.382736901955698,1936.36264604145
-0.354595812107965,1936.37264604145
-0.301772015822125,1936.38264604145
-0.222798789123416,1936.39264604145
-0.120645785977528,1936.40264604144
-0.00303958622624059,1936.41264604144
0.118983531596327,1936.42264604145
0.235206935472642,1936.43264604145
0.334709836975002,1936.44264604145
0.410494559544053,1936.45264604145
0.4591061469516,1936.46264604145
0.480399603568879,1936.47264604145
0.478623096251461,1936.48264604145
0.458855295422799,1936.49264604145
0.426678445920895,1936.50264604145
0.387512078835961,1936.51264604145
0.344028602418752,1936.52264604145
0.300063429027421,1936.53264604145
0.257207928585903,1936.54264604145
0.216887782205449,1936.55264604145
0.179471511672267,1936.56264604145
0.145390213466781,1936.57264604145
0.114465970861275,1936.58264604145
0.0858166254941849,1936.59264604145
0.0580640533545822,1936.60264604145
0.029554475801759,1936.61264604145
0.00147915718234068,1936.62264604145
-0.0255176422870102,1936.63264604145
-0.0504703423842973,1936.64264604145
-0.0710522352944914,1936.65264604144
-0.0858005364700239,1936.66264604144
-0.0931275422473035,1936.67264604145
-0.0928247460624321,1936.68264604145
-0.084891715973801,1936.69264604145
-0.0706143775201434,1936.70264604145
-0.0505087336865026,1936.71264604145
-0.0258914442326455,1936.72264604145
0.000924999022620945,1936.73264604145
0.0282043720838383,1936.74264604145
0.0542305585746715,1936.75264604145
0.0763924938714303,1936.76264604145
0.094059306781024,1936.77264604145
0.106180404235224,1936.78264604145
0.112556717209689,1936.79264604145
0.114225944650042,1936.80264604145
0.111775105547586,1936.81264604145
0.106628909877852,1936.82264604145
0.0992652179511389,1936.83264604145
0.0904029118981336,1936.84264604145
0.0799860186085634,1936.85264604145
0.0676895557393656,1936.86264604145
0.0529037015434382,1936.87264604145
0.0355932998666487,1936.88264604145
0.0170179405287107,1936.89264604145
-0.00260363756906647,1936.90264604144
-0.0224834327545395,1936.91264604144
-0.0427580619989762,1936.92264604145
-0.0636565817038843,1936.93264604145
-0.0847523839719058,1936.94264604145
-0.105981587852074,1936.95264604145
-0.127399215762891,1936.96264604145
-0.148414887223022,1936.97264604145
-0.169054925783661,1936.98264604145
-0.189533189645663,1936.99264604145
-0.209313458455277,1937.00264604145
-0.22829034634211,1937.01264604145
-0.246638729097495,1937.02264604145
-0.264062247643576,1937.03264604145
-0.280186054064473,1937.04264604145
-0.296002652846131,1937.05264604145
-0.312838780066868,1937.06264604145
-0.329910613332212,1937.07264604145
-0.347627172492522,1937.08264604145
-0.362928160358121,1937.09264604145
-0.372561004128439,1937.10264604145
-0.370783224690147,1937.11264604145
-0.351429725252044,1937.12264604145
-0.310201553317407,1937.13264604145
-0.243705407010399,1937.14264604145
-0.153848652659337,1937.15264604144
-0.0466411149226232,1937.16264604144
0.0681360301215061,1937.17264604145
0.179260155639969,1937.18264604145
0.277255345030576,1937.19264604145
0.353816611582523,1937.20264604145
0.406027164293807,1937.21264604145
0.432775041065542,1937.22264604145
0.436222582717251,1937.23264604145
0.421467967903311,1937.24264604145
0.39358462581052,1937.25264604145
0.356741868860489,1937.26264604145
0.315500385123761,1937.27264604145
0.272277239915212,1937.28264604145
0.228874066192335,1937.29264604145
0.186044385320995,1937.30264604145
0.144096977664421,1937.31264604145
0.103503100515774,1937.32264604145
0.0640218677930796,1937.33264604145
0.0246139034118736,1937.34264604145
-0.0146607280179094,1937.35264604145
-0.053557373532344,1937.36264604145
-0.0915423014185835,1937.37264604145
-0.128033395456106,1937.38264604145
-0.162177349047527,1937.39264604145
-0.192721054118105,1937.40264604144
-0.21928550658794,1937.41264604144
-0.240532619810786,1937.42264604145
-0.25569933281972,1937.43264604145
-0.265131858119005,1937.44264604145
-0.268523242603152,1937.45264604145
-0.266031837440987,1937.46264604145
-0.258883677460867,1937.47264604145
-0.246963189204027,1937.48264604145
-0.232183938157909,1937.49264604145
-0.215644909356744,1937.50264604145
-0.199103890427107,1937.51264604145
-0.183924279100629,1937.52264604145
-0.171222528263882,1937.53264604145
-0.162111773354899,1937.54264604145
-0.157131291483346,1937.55264604145
-0.156599506017236,1937.56264604145
-0.160046843229452,1937.57264604145
-0.167209589944248,1937.58264604145
-0.177475835453265,1937.59264604145
-0.190210608640858,1937.60264604145
-0.204639785683546,1937.61264604145
-0.220256124171293,1937.62264604145
-0.236191955681232,1937.63264604145
-0.251708954144107,1937.64264604145
-0.266762086519004,1937.65264604144
-0.281220237037256,1937.66264604144
-0.29574306797512,1937.67264604145
-0.309924104791994,1937.68264604145
-0.323725145114619,1937.69264604145
-0.336891049420254,1937.70264604145
-0.349905224146902,1937.71264604145
-0.362676218106957,1937.72264604145
-0.375355806089361,1937.73264604145
-0.387674785622372,1937.74264604145
-0.400813029290169,1937.75264604145
-0.4140278273026,1937.76264604145
-0.428209495901259,1937.77264604145
-0.443283322164066,1937.78264604145
-0.458102968218132,1937.79264604145
-0.472396638462933,1937.80264604145
-0.48359767587207,1937.81264604145
-0.48747255209457,1937.82264604145
-0.479298741557765,1937.83264604145
-0.453728401371539,1937.84264604145
-0.407077142634539,1937.85264604145
-0.337958475893688,1937.86264604145
-0.250463585969666,1937.87264604145
-0.150282127016888,1937.88264604145
-0.0463928930113983,1937.89264604145
0.0508769458296456,1937.90264604144
0.134079978669388,1937.91264604144
0.197590283211318,1937.92264604145
0.239165759427867,1937.93264604145
0.259015479098099,1937.94264604145
0.259640690655469,1937.95264604145
0.244473850531246,1937.96264604145
0.218143451753858,1937.97264604145
0.184689066576714,1937.98264604145
0.147306981392866,1937.99264604145
0.109275930185358,1938.00264604145
0.0722204964637198,1938.01264604145
0.0360089108066794,1938.02264604145
0.00116220823584889,1938.03264604145
-0.0338491915628334,1938.04264604145
-0.0701249098872562,1938.05264604145
-0.108095992277222,1938.06264604145
-0.148771072786833,1938.07264604145
-0.190838360556755,1938.08264604145
-0.234432591154382,1938.09264604145
-0.278208030578085,1938.10264604145
-0.319706136631265,1938.11264604145
-0.358694204729853,1938.12264604145
-0.394200957484321,1938.13264604145
-0.424716112198276,1938.14264604145
-0.449903463302945,1938.15264604144
-0.469369173766876,1938.16264604144
-0.483654366342237,1938.17264604145
-0.493703866742402,1938.18264604145
-0.500471753126876,1938.19264604145
-0.503984809423301,1938.20264604145
-0.505447080909946,1938.21264604145
-0.505887890107663,1938.22264604145
-0.506666922431116,1938.23264604145
-0.508094978920147,1938.24264604145
-0.511440942026397,1938.25264604145
-0.516971733067943,1938.26264604145
-0.525672040998093,1938.27264604145
-0.537893856569689,1938.28264604145
-0.553241376389275,1938.29264604145
-0.571091583059868,1938.30264604145
-0.590747764782413,1938.31264604145
-0.611118285005128,1938.32264604145
-0.6319855212252,1938.33264604145
-0.65235461990844,1938.34264604145
-0.67220222685873,1938.35264604145
-0.69100069460504,1938.36264604145
-0.709031098654704,1938.37264604145
-0.72542360716735,1938.38264604145
-0.739463428834815,1938.39264604145
-0.751646884740732,1938.40264604144
-0.761231150683242,1938.41264604144
-0.768839094901336,1938.42264604145
-0.774100840364873,1938.43264604145
-0.777633783154558,1938.44264604145
-0.779575601647788,1938.45264604145
-0.780743759168682,1938.46264604145
-0.781902697426292,1938.47264604145
-0.78334665004913,1938.48264604145
-0.785193679206916,1938.49264604145
-0.785707873818268,1938.50264604145
-0.781204074059095,1938.51264604145
-0.766986280725335,1938.52264604145
-0.73756556526207,1938.53264604145
-0.690400213711559,1938.54264604145
-0.624992551852003,1938.55264604145
-0.543718234011529,1938.56264604145
-0.452896040177146,1938.57264604145
-0.360873180104039,1938.58264604145
-0.27570444597823,1938.59264604145
-0.205119903250487,1938.60264604145
-0.153127325261514,1938.61264604145
-0.121291734551957,1938.62264604145
-0.108363365089402,1938.63264604145
-0.11072528884597,1938.64264604145
-0.124946669126954,1938.65264604144
-0.146712776172529,1938.66264604144
-0.173357011533706,1938.67264604145
-0.203154238291167,1938.68264604145
-0.234224336792168,1938.69264604145
-0.265893389062111,1938.70264604145
-0.296767265842891,1938.71264604145
-0.326388394475257,1938.72264604145
-0.354240015542832,1938.73264604145
-0.380587596872694,1938.74264604145
-0.406596379238334,1938.75264604145
-0.432837049434224,1938.76264604145
-0.459803541615447,1938.77264604145
-0.487146243984453,1938.78264604145
-0.51475094394069,1938.79264604145
-0.541567534265685,1938.80264604145
-0.566157986244638,1938.81264604145
-0.58800400235371,1938.82264604145
-0.605766266848075,1938.83264604145
-0.619145771763566,1938.84264604145
-0.627813853634407,1938.85264604145
-0.632724353745743,1938.86264604145
-0.634123737721644,1938.87264604145
-0.633093283822293,1938.88264604145
-0.630727231299776,1938.89264604145
-0.628354652264785,1938.90264604144
-0.626654685569404,1938.91264604144
-0.625250673448404,1938.92264604145
-0.625113947822601,1938.93264604145
-0.626881711761342,1938.94264604145
-0.630316694668582,1938.95264604145
-0.636283955997235,1938.96264604145
-0.644329132156578,1938.97264604145
-0.655481949937303,1938.98264604145
-0.66832856140534,1938.99264604145
-0.68211578868832,1939.00264604145
-0.696478171206986,1939.01264604145
-0.710556967966251,1939.02264604145
-0.724095772428055,1939.03264604145
-0.737028174128979,1939.04264604145
-0.749183874065166,1939.05264604145
-0.761010098795768,1939.06264604145
-0.77281111987144,1939.07264604145
-0.784298383648488,1939.08264604145
-0.795707603689242,1939.09264604145
-0.806629262298238,1939.10264604145
-0.817681217890756,1939.11264604145
-0.828431251718721,1939.12264604145
-0.838888909965099,1939.13264604145
-0.849480556230926,1939.14264604145
-0.860071594094366,1939.15264604144
-0.870081172106713,1939.16264604144
-0.880391617913071,1939.17264604145
-0.889815242868663,1939.18264604145
-0.89713918336918,1939.19264604145
-0.89994982288428,1939.20264604145
-0.894573492732505,1939.21264604145
-0.877057835926632,1939.22264604145
-0.844598893383769,1939.23264604145
-0.797652298757064,1939.24264604145
-0.738045753056735,1939.25264604145
-0.670030960914398,1939.26264604145
-0.600878244421919,1939.27264604145
-0.536398825325691,1939.28264604145
-0.482667497771942,1939.29264604145
-0.443251489058765,1939.30264604145
-0.419065493377877,1939.31264604145
-0.409442251511711,1939.32264604145
-0.41184757165191,1939.33264604145
-0.423185591278154,1939.34264604145
-0.439596898975427,1939.35264604145
-0.459135867725869,1939.36264604145
-0.47916381248505,1939.37264604145
-0.500111135697152,1939.38264604145
-0.520510674336698,1939.39264604145
-0.540801322184319,1939.40264604144
-0.560937305914239,1939.41264604144
-0.581215337591014,1939.42264604145
-0.601864633268967,1939.43264604145
-0.623875856365994,1939.44264604145
-0.646850597441952,1939.45264604145
-0.671102252749225,1939.46264604145
-0.695688702320764,1939.47264604145
-0.720083493073378,1939.48264604145
-0.743825732914774,1939.49264604145
-0.765867717590053,1939.50264604145
-0.785755441200447,1939.51264604145
-0.803859186614325,1939.52264604145
-0.819921371617508,1939.53264604145
-0.833794432072013,1939.54264604145
-0.845551867984379,1939.55264604145
-0.855612612820392,1939.56264604145
-0.863632427035921,1939.57264604145
-0.870206264414309,1939.58264604145
-0.875409362482536,1939.59264604145
-0.880627405840141,1939.60264604145
-0.886193960689967,1939.61264604145
-0.892670259383149,1939.62264604145
-0.900700894986947,1939.63264604145
-0.91003659865617,1939.64264604145
-0.920626134794883,1939.65264604144
-0.932354361240776,1939.66264604144
-0.945673757902119,1939.67264604145
-0.960085036951297,1939.68264604145
-0.975032026418793,1939.69264604145
-0.990044771557336,1939.70264604145
-1.00553583374715,1939.71264604145
-1.02109791810217,1939.72264604145
-1.03715308347973,1939.73264604145
-1.05297089588449,1939.74264604145
-1.06841513788598,1939.75264604145
-1.08321453247024,1939.76264604145
-1.09771354015038,1939.77264604145
-1.11114566550228,1939.78264604145
-1.12392092281181,1939.79264604145
-1.13699603590652,1939.80264604145
-1.14972873337471,1939.81264604145
-1.16268284563691,1939.82264604145
-1.1752002765464,1939.83264604145
-1.18759093729556,1939.84264604145
-1.19924099923132,1939.85264604145
-1.21061293687621,1939.86264604145
-1.22145332859751,1939.87264604145
-1.22933316716588,1939.88264604145
-1.23195644818484,1939.89264604145
-1.22604698754004,1939.90264604144
-1.20947040917297,1939.91264604144
-1.1806383119432,1939.92264604145
-1.14047794185963,1939.93264604145
-1.09150004242156,1939.94264604145
-1.03835498735108,1939.95264604145
-0.985762415643722,1939.96264604145
-0.939262804379385,1939.97264604145
-0.902138570578671,1939.98264604145
-0.875062210000701,1939.99264604145
-0.85777037070728,1940.00264604145
-0.849880884527776,1940.01264604145
-0.849812528503249,1940.02264604145
-0.855246653274832,1940.03264604145
-0.865125711106984,1940.04264604145
-0.877894834141859,1940.05264604145
-0.891193975491531,1940.06264604145
-0.904492265279304,1940.07264604145
-0.917384229729747,1940.08264604145
-0.928795276914643,1940.09264604145
-0.939980144281936,1940.10264604145
-0.949821963404968,1940.11264604145
-0.960198515718978,1940.12264604145
-0.970799756087901,1940.13264604145
-0.981519380461315,1940.14264604145
-0.99364043098936,1940.15264604144
-1.00569882928438,1940.16264604144
-1.01848082699839,1940.17264604145
-1.03086223914054,1940.18264604145
-1.04183927438861,1940.19264604145
-1.05113891084352,1940.20264604145
-1.05889584082646,1940.21264604145
-1.06480447691777,1940.22264604145
-1.06896668128937,1940.23264604145
-1.07234655890246,1940.24264604145
-1.07460568421521,1940.25264604145
-1.07660768510998,1940.26264604145
-1.07799855565915,1940.27264604145
-1.07994769131758,1940.28264604145
-1.08195445644263,1940.29264604145
-1.08529319746538,1940.30264604145
-1.08889383851568,1940.31264604145
-1.0931379264051,1940.32264604145
-1.09810065574091,1940.33264604145
-1.1038587317149,1940.34264604145
-1.1110041310693,1940.35264604145
-1.11859752815757,1940.36264604145
-1.12743734173212,1940.37264604145
-1.13669601725482,1940.38264604145
-1.14579578203259,1940.39264604145
-1.15582007367944,1940.40264604144
-1.16578290890485,1940.41264604144
-1.17607762584627,1940.42264604145
-1.18666627261194,1940.43264604145
-1.19756634028526,1940.44264604145
-1.2088090132616,1940.45264604145
-1.22012350218447,1940.46264604145
-1.2313551903017,1940.47264604145
-1.24180873148259,1940.48264604145
-1.25188951080652,1940.49264604145
-1.26131625211876,1940.50264604145
-1.27016767510455,1940.51264604145
-1.2783686902778,1940.52264604145
-1.28649846425887,1940.53264604145
-1.29507527240514,1940.54264604145
-1.30410911340169,1940.55264604145
-1.31360288148023,1940.56264604145
-1.32231208978343,1940.57264604145
-1.32879871606983,1940.58264604145
-1.33028514148957,1940.59264604145
-1.32455959598055,1940.60264604145
-1.30995942614553,1940.61264604145
-1.28690924054575,1940.62264604145
-1.25754384153567,1940.63264604145
-1.22442544897154,1940.64264604145
-1.19151241109617,1940.65264604144
-1.16152760208836,1940.66264604144
-1.13746569990432,1940.67264604145
-1.11964478017904,1940.68264604145
-1.10860250019202,1940.69264604145
-1.10352591597389,1940.70264604145
-1.1036699787834,1940.71264604145
-1.10691303029995,1940.72264604145
-1.11212511633268,1940.73264604145
-1.11823904986107,1940.74264604145
-1.12543759487309,1940.75264604145
-1.1326526767822,1940.76264604145
-1.14029469204795,1940.77264604145
-1.14806652997858,1940.78264604145
-1.15613613045689,1940.79264604145
-1.16452011204612,1940.80264604145
-1.17263394136479,1940.81264604145
-1.18108550982699,1940.82264604145
-1.19061685184884,1940.83264604145
-1.20096235446824,1940.84264604145
-1.21195765637131,1940.85264604145
-1.22360216967622,1940.86264604145
-1.23449914076142,1940.87264604145
-1.2444127486043,1940.88264604145
-1.25356222192034,1940.89264604145
-1.26115910377991,1940.90264604144
-1.26769716337511,1940.91264604144
-1.27274688726999,1940.92264604145
-1.27697920616572,1940.93264604145
-1.28076642066518,1940.94264604145
-1.28341078010512,1940.95264604145
-1.28625721525479,1940.96264604145
-1.28880130513437,1940.97264604145
-1.29137503330474,1940.98264604145
-1.29387968546022,1940.99264604145
-1.2965427257901,1941.00264604145
-1.29918601170205,1941.01264604145
-1.30186322017018,1941.02264604145
-1.3044151710931,1941.03264604145
-1.30708713998419,1941.04264604145
-1.30977814542653,1941.05264604145
-1.31163675873568,1941.06264604145
-1.31369328782428,1941.07264604145
-1.31598277857085,1941.08264604145
-1.3178214888727,1941.09264604145
-1.31959403153824,1941.10264604145
-1.32126438585738,1941.11264604145
-1.32219151986809,1941.12264604145
-1.32243093660377,1941.13264604145
-1.32172745639035,1941.14264604145
-1.32042471999061,1941.15264604144
-1.31882518300139,1941.16264604144
-1.31744364147528,1941.17264604145
-1.31653629276194,1941.18264604145
-1.31555854197113,1941.19264604145
-1.31599824616387,1941.20264604145
-1.31678932158182,1941.21264604145
-1.31828804304134,1941.22264604145
-1.32139675201261,1941.23264604145
-1.32545572867096,1941.24264604145
-1.3311036781725,1941.25264604145
-1.33763205584714,1941.26264604145
-1.34329068353496,1941.27264604145
-1.34590199069975,1941.28264604145
-1.34312035296133,1941.29264604145
-1.33333661530272,1941.30264604145
-1.31601060441258,1941.31264604145
-1.29251517373684,1941.32264604145
-1.26447184348531,1941.33264604145
-1.23633188855349,1941.34264604145
-1.21091417522919,1941.35264604145
-1.19093221414396,1941.36264604145
-1.17756610439576,1941.37264604145
-1.17033360472788,1941.38264604145
-1.16829442863045,1941.39264604145
-1.16898357735019,1941.40264604144
-1.17117652619131,1941.41264604144
-1.17343167263752,1941.42264604145
-1.17525621649023,1941.43264604145
-1.17541605192565,1941.44264604145
-1.17461018196852,1941.45264604145
-1.17342761390658,1941.46264604145
-1.17130648603907,1941.47264604145
-1.17035523663743,1941.48264604145
-1.17030260158267,1941.49264604145
-1.1710421036098,1941.50264604145
-1.17283070268457,1941.51264604145
-1.17530740562874,1941.52264604145
-1.17878750257295,1941.53264604145
-1.18317797635421,1941.54264604145
-1.18817016252682,1941.55264604145
-1.19332798740165,1941.56264604145
-1.1981871239022,1941.57264604145
-1.2022296778799,1941.58264604145
-1.20491151899433,1941.59264604145
-1.20580703985264,1941.60264604145
-1.20558443469406,1941.61264604145
-1.20432606457325,1941.62264604145
-1.20273791357677,1941.63264604145
-1.20134321029647,1941.64264604145
-1.20053648323345,1941.65264604144
-1.20039153967814,1941.66264604144
-1.20032833673704,1941.67264604145
-1.2005508387652,1941.68264604145
-1.20083558793566,1941.69264604145
-1.20136535537218,1941.70264604145
-1.2024026116205,1941.71264604145
-1.2034171468602,1941.72264604145
-1.2047234614547,1941.73264604145
-1.20664270403492,1941.74264604145
-1.20922075398003,1941.75264604145
-1.2116380774611,1941.76264604145
-1.21448157232335,1941.77264604145
-1.21668216262227,1941.78264604145
-1.21843846647519,1941.79264604145
-1.22004329873344,1941.80264604145
-1.22186596403779,1941.81264604145
-1.22371463999786,1941.82264604145
-1.22598369006294,1941.83264604145
-1.22809366442485,1941.84264604145
-1.23033901953927,1941.85264604145
-1.23226720881713,1941.86264604145
-1.23409045510372,1941.87264604145
-1.23556342566299,1941.88264604145
-1.23737224787856,1941.89264604145
-1.23995789349835,1941.90264604144
-1.24268636544447,1941.91264604144
-1.24507515303263,1941.92264604145
-1.24650447825425,1941.93264604145
-1.24741864273126,1941.94264604145
-1.24792254691854,1941.95264604145
-1.2476993371239,1941.96264604145
-1.24781981317184,1941.97264604145
-1.24863632452497,1941.98264604145
-1.24937364393914,1941.99264604145
-1.24880803879787,1942.00264604145
-1.24516855415,1942.01264604145
-1.2361625369069,1942.02264604145
-1.22047996069902,1942.03264604145
-1.19878442025211,1942.04264604145
-1.17322597831309,1942.05264604145
-1.14664291535303,1942.06264604145
-1.12343077721919,1942.07264604145
-1.10563364833086,1942.08264604145
-1.09570276685455,1942.09264604145
-1.09270398958757,1942.10264604145
-1.09498816693357,1942.11264604145
-1.10116652824294,1942.12264604145
-1.10855451203399,1942.13264604145
-1.11531153371506,1942.14264604145
-1.12080085367405,1942.15264604144
-1.12432594731134,1942.16264604144
-1.12606483065549,1942.17264604145
-1.12636455947068,1942.18264604145
-1.12512205518388,1942.19264604145
-1.1230797832204,1942.20264604145
-1.12084999112121,1942.21264604145
-1.11868229708773,1942.22264604145
-1.11696534391108,1942.23264604145
-1.11525851494802,1942.24264604145
-1.11456517226099,1942.25264604145
-1.11513697720949,1942.26264604145
-1.11682744992361,1942.27264604145
-1.11970419228478,1942.28264604145
-1.12298551181784,1942.29264604145
-1.12544122900781,1942.30264604145
-1.12677238757631,1942.31264604145
-1.1266099551365,1942.32264604145
-1.12541082044294,1942.33264604145
-1.12263067560872,1942.34264604145
-1.11969814553113,1942.35264604145
-1.11696759405652,1942.36264604145
-1.11514248346267,1942.37264604145
-1.11374592779411,1942.38264604145
-1.11272763462849,1942.39264604145
-1.11173954586034,1942.40264604144
-1.11044750114369,1942.41264604144
-1.10966225121814,1942.42264604145
-1.10890449071548,1942.43264604145
-1.10817283338631,1942.44264604145
-1.10818109461926,1942.45264604145
-1.10760148829433,1942.46264604145
-1.10739146413592,1942.47264604145
-1.10716381252252,1942.48264604145
-1.10700984334329,1942.49264604145
-1.10663996225358,1942.50264604145
-1.10725722140513,1942.51264604145
-1.10782526333702,1942.52264604145
-1.10907287564181,1942.53264604145
-1.11068784496587,1942.54264604145
-1.11168128801359,1942.55264604145
-1.11201474162549,1942.56264604145
-1.11130019258639,1942.57264604145
-1.10986067441797,1942.58264604145
-1.10864068516814,1942.59264604145
-1.10742453424269,1942.60264604145
-1.10671203451724,1942.61264604145
-1.10608794606333,1942.62264604145
-1.10578586593366,1942.63264604145
-1.10575495028883,1942.64264604145
-1.10532487798978,1942.65264604144
-1.10543997370696,1942.66264604144
-1.10556382239489,1942.67264604145
-1.10627693945408,1942.68264604145
-1.1068976743608,1942.69264604145
-1.10794229905269,1942.70264604145
-1.10831781410722,1942.71264604145
-1.10854257531056,1942.72264604145
-1.10856474607359,1942.73264604145
-1.10815706049099,1942.74264604145
-1.10831793641712,1942.75264604145
-1.10856934508691,1942.76264604145
-1.10830904652216,1942.77264604145
-1.10653919525469,1942.78264604145
-1.10122545141824,1942.79264604145
-1.09155174030033,1942.80264604145
-1.07640987660743,1942.81264604145
-1.05716270101695,1942.82264604145
-1.03550152843835,1942.83264604145
-1.01443708851792,1942.84264604145
-0.997065866793858,1942.85264604145
-0.984963514515696,1942.86264604145
-0.978701188173955,1942.87264604145
-0.978138839203163,1942.88264604145
-0.981709897243581,1942.89264604145
-0.988024572031238,1942.90264604144
-0.995196278042779,1942.91264604144
-1.00199167153893,1942.92264604145
-1.00714327460714,1942.93264604145
-1.01010197712286,1942.94264604145
-1.01193888125284,1942.95264604145
-1.01176072726703,1942.96264604145
-1.01007582577389,1942.97264604145
-1.00791418642712,1942.98264604145
-1.00484713500281,1942.99264604145
-1.00230832527837,1943.00264604145
-1.00028124321427,1943.01264604145
-0.998929462791331,1943.02264604145
-0.998363254158167,1943.03264604145
-0.998223099541835,1943.04264604145
-0.998365587515776,1943.05264604145
-0.998932001912246,1943.06264604145
-0.999249690900492,1943.07264604145
-0.999817692828031,1943.08264604145
-1.00080562899114,1943.09264604145
-1.00098052107745,1943.10264604145
-1.00086330007995,1943.11264604145
-0.999130958484025,1943.12264604145
-0.996957354446751,1943.13264604145
-0.9947387040174,1943.14264604145
-0.992431198497512,1943.15264604144
-0.990417821504931,1943.16264604144
-0.988538997570956,1943.17264604145
-0.987373418715154,1943.18264604145
-0.986474729094971,1943.19264604145
-0.986129167013021,1943.20264604145
-0.985918341443595,1943.21264604145
-0.986172712215122,1943.22264604145
-0.986686155348293,1943.23264604145
-0.986340440297919,1943.24264604145
-0.985783551057252,1943.25264604145
-0.984944687647908,1943.26264604145
-0.984033346552868,1943.27264604145
-0.982835419857493,1943.28264604145
-0.982357435940835,1943.29264604145
-0.982058970472244,1943.30264604145
-0.982363227828251,1943.31264604145
-0.982448725148783,1943.32264604145
-0.98250234244123,1943.33264604145
-0.982785449213744,1943.34264604145
-0.982719132123578,1943.35264604145
-0.982465219878532,1943.36264604145
-0.982710265482019,1943.37264604145
-0.982783621734348,1943.38264604145
-0.982794046576701,1943.39264604145
-0.982572212612259,1943.40264604144
-0.982308880851119,1943.41264604144
-0.981699529211483,1943.42264604145
-0.98099816899152,1943.43264604145
-0.980218932396893,1943.44264604145
-0.979740963790542,1943.45264604145
-0.97878664094653,1943.46264604145
-0.977571846786344,1943.47264604145
-0.976038144113677,1943.48264604145
-0.974812006376092,1943.49264604145
-0.97387453102651,1943.50264604145
-0.973208359321604,1943.51264604145
-0.972272478184106,1943.52264604145
-0.971054382060007,1943.53264604145
-0.969653782967631,1943.54264604145
-0.968403805097001,1943.55264604145
-0.967186271549408,1943.56264604145
-0.966493482528348,1943.57264604145
-0.965766036637964,1943.58264604145
-0.965313764248423,1943.59264604145
-0.963440824594022,1943.60264604145
-0.958020637447059,1943.61264604145
-0.947674625116855,1943.62264604145
-0.931464934919647,1943.63264604145
-0.909250536448809,1943.64264604145
-0.883098955491053,1943.65264604144
-0.856202310185056,1943.66264604144
-0.831193137636786,1943.67264604145
-0.810603319523605,1943.68264604145
-0.795948342108705,1943.69264604145
-0.78735966631293,1943.70264604145
-0.783993863561098,1943.71264604145
-0.785449292514028,1943.72264604145
-0.789437545680156,1943.73264604145
-0.794732168097768,1943.74264604145
-0.799574160771585,1943.75264604145
-0.804024390959543,1943.76264604145
-0.806845567458508,1943.77264604145
-0.808170125923796,1943.78264604145
-0.808746757555615,1943.79264604145
-0.80792137985631,1943.80264604145
-0.806874853341759,1943.81264604145
-0.804946540694282,1943.82264604145
-0.803333498695452,1943.83264604145
-0.801624095849306,1943.84264604145
-0.799997347761456,1943.85264604145
-0.799133023884199,1943.86264604145
-0.798885213841137,1943.87264604145
-0.799576811023926,1943.88264604145
-0.801012714549497,1943.89264604145
-0.802644145348325,1943.90264604144
-0.803597951047546,1943.91264604144
-0.803798784556648,1943.92264604145
-0.802978681942778,1943.93264604145
-0.800823096278402,1943.94264604145
-0.798464273168126,1943.95264604145
-0.795413815975768,1943.96264604145
-0.792187782206316,1943.97264604145
-0.789401626698825,1943.98264604145
-0.786998965981402,1943.99264604145
-0.785100351742655,1944.00264604145
-0.78335608862043,1944.01264604145
-0.782029314385975,1944.02264604145
-0.780982152029394,1944.03264604145
-0.780257326525913,1944.04264604145
-0.780236535289826,1944.05264604145
-0.780116720197246,1944.06264604145
-0.779458068724747,1944.07264604145
-0.777758987484294,1944.08264604145
-0.776173427467063,1944.09264604145
-0.774052585302566,1944.10264604145
-0.772336067652409,1944.11264604145
-0.770888195576781,1944.12264604145
-0.76945233868609,1944.13264604145
-0.767968817948561,1944.14264604145
-0.76644728443245,1944.15264604144
-0.765573027832223,1944.16264604144
-0.76482446469501,1944.17264604145
-0.764205374386576,1944.18264604145
-0.763469197172745,1944.19264604145
-0.762035203952119,1944.20264604145
-0.76044564582167,1944.21264604145
-0.759591614106865,1944.22264604145
-0.759573606048826,1944.23264604145
-0.760399087208137,1944.24264604145
-0.761340927214972,1944.25264604145
-0.762627800350556,1944.26264604145
-0.763529900174002,1944.27264604145
-0.763822323508343,1944.28264604145
-0.764066389776176,1944.29264604145
-0.764268283179088,1944.30264604145
-0.764643655329752,1944.31264604145
-0.764853600212389,1944.32264604145
-0.764721082425578,1944.33264604145
-0.764374429553457,1944.34264604145
-0.763992353519007,1944.35264604145
-0.764060492689038,1944.36264604145
-0.764451357738032,1944.37264604145
-0.764561545522032,1944.38264604145
-0.764099965134153,1944.39264604145
-0.761288205125567,1944.40264604144
-0.754684764982882,1944.41264604144
-0.743122688873543,1944.42264604145
-0.725256164534189,1944.43264604145
-0.702218972819019,1944.44264604145
-0.674962233052594,1944.45264604145
-0.646826100361016,1944.46264604145
-0.619804396794341,1944.47264604145
-0.597243741599458,1944.48264604145
-0.579981394311735,1944.49264604145
-0.569048884808922,1944.50264604145
-0.564727406959808,1944.51264604145
-0.565791215371798,1944.52264604145
-0.570213959127498,1944.53264604145
-0.576019305765368,1944.54264604145
-0.581769708647193,1944.55264604145
-0.586144365327827,1944.56264604145
-0.588878326560484,1944.57264604145
-0.589476648033518,1944.58264604145
-0.588717159168326,1944.59264604145
-0.587194026159208,1944.60264604145
-0.584107511815501,1944.61264604145
-0.580429559733925,1944.62264604145
-0.57660341414437,1944.63264604145
-0.572793156143654,1944.64264604145
-0.569594856535705,1944.65264604144
-0.567659632879631,1944.66264604144
-0.566709827328457,1944.67264604145
-0.565899303155373,1944.68264604145
-0.565818790451001,1944.69264604145
-0.56500483779376,1944.70264604145
-0.563541090907809,1944.71264604145
-0.560321618733166,1944.72264604145
-0.556331155426257,1944.73264604145
-0.551592641765805,1944.74264604145
-0.54642458817207,1944.75264604145
-0.541483968346871,1944.76264604145
-0.537202146494135,1944.77264604145
-0.533589249307185,1944.78264604145
-0.530125020277628,1944.79264604145
-0.526877987775749,1944.80264604145
-0.523233146080465,1944.81264604145
-0.519627816153537,1944.82264604145
-0.516086907331525,1944.83264604145
-0.513252755132463,1944.84264604145
-0.511036686430815,1944.85264604145
-0.509301212766423,1944.86264604145
-0.508060235438316,1944.87264604145
-0.507185230411215,1944.88264604145
-0.507014572695666,1944.89264604145
-0.506947791414422,1944.90264604144
-0.507226798892236,1944.91264604144
-0.506752065610184,1944.92264604145
-0.506547533051045,1944.93264604145
-0.50613301731119,1944.94264604145
-0.505522455241631,1944.95264604145
-0.504567265047865,1944.96264604145
-0.503859678839854,1944.97264604145
-0.502984783282901,1944.98264604145
-0.50196653439578,1944.99264604145
-0.501190890349018,1945.00264604145
-0.500048925173595,1945.01264604145
-0.498688127812794,1945.02264604145
-0.497502366323945,1945.03264604145
-0.496304088881735,1945.04264604145
-0.495290106773121,1945.05264604145
-0.494425772743907,1945.06264604145
-0.49374526640854,1945.07264604145
-0.492245417456575,1945.08264604145
-0.491150649583585,1945.09264604145
-0.49003463458005,1945.10264604145
-0.489314341231113,1945.11264604145
-0.489119811231024,1945.12264604145
-0.489308450404933,1945.13264604145
-0.489649908828705,1945.14264604145
-0.489384145093403,1945.15264604144
-0.48870000801953,1945.16264604144
-0.488071192571942,1945.17264604145
-0.487522983870888,1945.18264604145
-0.487051858597523,1945.19264604145
-0.486414750361448,1945.20264604145
-0.484461378253778,1945.21264604145
-0.479421337422872,1945.22264604145
-0.469500278606856,1945.23264604145
-0.452975584252116,1945.24264604145
-0.429133145493075,1945.25264604145
-0.399078710095216,1945.26264604145
-0.365293905803167,1945.27264604145
-0.330845918379605,1945.28264604145
-0.298662122656202,1945.29264604145
-0.269835470955666,1945.30264604145
-0.247002852910219,1945.31264604145
-0.229917692567475,1945.32264604145
-0.21942049655084,1945.33264604145
-0.214412215073327,1945.34264604145
-0.212924215826677,1945.35264604145
-0.213992860251036,1945.36264604145
-0.215910721425466,1945.37264604145
-0.218431325668532,1945.38264604145
-0.2204242019592,1945.39264604145
-0.222245550829169,1945.40264604144
-0.223068326891099,1945.41264604144
-0.223839755431201,1945.42264604145
-0.224399581682115,1945.43264604145
-0.225037508524723,1945.44264604145
-0.225560338773673,1945.45264604145
-0.226297464719023,1945.46264604145
-0.227413084174726,1945.47264604145
-0.229246007247617,1945.48264604145
-0.231204244455965,1945.49264604145
-0.233039074022174,1945.50264604145
-0.234172889619609,1945.51264604145
-0.234892299629442,1945.52264604145
-0.235217988147677,1945.53264604145
-0.234338136849359,1945.54264604145
-0.232723639995144,1945.55264604145
-0.230965806402597,1945.56264604145
-0.228179692275146,1945.57264604145
-0.22512071371554,1945.58264604145
-0.221841997559285,1945.59264604145
-0.218607650672175,1945.60264604145
-0.215048576983395,1945.61264604145
-0.211454020027842,1945.62264604145
-0.207712910469621,1945.63264604145
-0.204374764467106,1945.64264604145
-0.201297182074699,1945.65264604144
-0.198582258550035,1945.66264604144
-0.196925183726422,1945.67264604145
-0.196358493576365,1945.68264604145
-0.196303637597128,1945.69264604145
-0.197157235336462,1945.70264604145
-0.198998211095397,1945.71264604145
-0.201099822436335,1945.72264604145
-0.203698924932162,1945.73264604145
-0.206931703325068,1945.74264604145
-0.210437526683529,1945.75264604145
-0.213662557725234,1945.76264604145
-0.217106762029717,1945.77264604145
-0.220190150487731,1945.78264604145
-0.223739736914059,1945.79264604145
-0.227155695149042,1945.80264604145
-0.230278833921824,1945.81264604145
-0.232798259681532,1945.82264604145
-0.234888307546065,1945.83264604145
-0.236703761950671,1945.84264604145
-0.238102365677541,1945.85264604145
-0.239975481994892,1945.86264604145
-0.241910993190921,1945.87264604145
-0.244661321025314,1945.88264604145
-0.247917832477584,1945.89264604145
-0.250908120255407,1945.90264604144
-0.254206200977039,1945.91264604144
-0.257025501899007,1945.92264604145
-0.259721316149403,1945.93264604145
-0.262229411235443,1945.94264604145
-0.264408658828668,1945.95264604145
-0.26677061856548,1945.96264604145
-0.269495703943695,1945.97264604145
-0.272909296887842,1945.98264604145
-0.276680285410126,1945.99264604145
-0.280551859515902,1946.00264604145
-0.284734454282663,1946.01264604145
-0.289367585646656,1946.02264604145
-0.292199602443669,1946.03264604145
-0.292525754762528,1946.04264604145
-0.28755212708327,1946.05264604145
-0.275300506078455,1946.06264604145
-0.253929719363245,1946.07264604145
-0.223531187088319,1946.08264604145
-0.185820150670586,1946.09264604145
-0.143093128474849,1946.10264604145
-0.0989442423724825,1946.11264604145
-0.0564865841488442,1946.12264604145
-0.0192602826726176,1946.13264604145
0.00993153227118202,1946.14264604145
0.0300134499981406,1946.15264604144
0.0404769002103749,1946.16264604144
0.0432588876223916,1946.17264604145
0.0402451657687259,1946.18264604145
0.0339273809648375,1946.19264604145
0.0263708798385102,1946.20264604145
0.0188610486427294,1946.21264604145
0.01164226162876,1946.22264604145
0.00513151740740689,1946.23264604145
-0.00131686826017721,1946.24264604145
-0.00731847672882482,1946.25264604145
-0.0129432675467291,1946.26264604145
-0.0181591229526915,1946.27264604145
-0.0239230018151057,1946.28264604145
-0.0308558919376931,1946.29264604145
-0.0380696411469741,1946.30264604145
-0.045891326807834,1946.31264604145
-0.053471220655664,1946.32264604145
-0.0600856495434192,1946.33264604145
-0.0656359417796293,1946.34264604145
-0.0698572026048583,1946.35264604145
-0.0733096210835447,1946.36264604145
-0.0749824668823518,1946.37264604145
-0.0748565079827636,1946.38264604145
-0.0731967632207905,1946.39264604145
-0.0696507774927142,1946.40264604144
-0.0646040323564557,1946.41264604144
-0.0580138613659944,1946.42264604145
-0.0511384246407079,1946.43264604145
-0.0437191339581739,1946.44264604145
-0.0362796905531909,1946.45264604145
-0.0286377296669487,1946.46264604145
-0.0215914353439337,1946.47264604145
-0.0158137794353472,1946.48264604145
-0.0116546922749004,1946.49264604145
-0.00873434987243415,1946.50264604145
-0.00754540619998994,1946.51264604145
-0.00738779581838117,1946.52264604145
-0.008400494307365,1946.53264604145
-0.00982073777439354,1946.54264604145
-0.0120271105509039,1946.55264604145
-0.0147621861352954,1946.56264604145
-0.0179728228460316,1946.57264604145
-0.0209869164656703,1946.58264604145
-0.0241790983196415,1946.59264604145
-0.0273689758656751,1946.60264604145
-0.0303775026473786,1946.61264604145
-0.0326352034066618,1946.62264604145
-0.0346476503581467,1946.63264604145
-0.0362723269929905,1946.64264604145
-0.03781969684824,1946.65264604144
-0.0403639596560801,1946.66264604144
-0.0433929201052663,1946.67264604145
-0.0467214376355726,1946.68264604145
-0.050590137721765,1946.69264604145
-0.0538989931220491,1946.70264604145
-0.0566489788762676,1946.71264604145
-0.0585925964508954,1946.72264604145
-0.0600244476526246,1946.73264604145
-0.0606239390651591,1946.74264604145
-0.0614422006305349,1946.75264604145
-0.0624050390990147,1946.76264604145
-0.0643536906451389,1946.77264604145
-0.0669705775275182,1946.78264604145
-0.0701787211170689,1946.79264604145
-0.072604096569224,1946.80264604145
-0.0729089093237257,1946.81264604145
-0.0682207505504396,1946.82264604145
-0.0563285637743134,1946.83264604145
-0.0342552443018305,1946.84264604145
-0.00195944419759644,1946.85264604145
0.0399926839773849,1946.86264604145
0.0897269237679862,1946.87264604145
0.142109359937935,1946.88264604145
0.192914353460869,1946.89264604145
0.237545985977561,1946.90264604144
0.272254337799119,1946.91264604144
0.296298241096545,1946.92264604145
0.310726218186121,1946.93264604145
0.31678001559098,1946.94264604145
0.316625295850275,1946.95264604145
0.312410622117607,1946.96264604145
0.30616445857889,1946.97264604145
0.298769656659076,1946.98264604145
0.29109997714628,1946.99264604145
0.283912838392243,1947.00264604145
0.276538294773535,1947.01264604145
0.269664931002836,1947.02264604145
0.262749244954632,1947.03264604145
0.256321619830319,1947.04264604145
0.249550972946712,1947.05264604145
0.242563462374389,1947.06264604145
0.235064500546641,1947.07264604145
0.227488011335731,1947.08264604145
0.22044438962521,1947.09264604145
0.21358191658554,1947.10264604145
0.207915131302487,1947.11264604145
0.203442165383562,1947.12264604145
0.200945046450334,1947.13264604145
0.200135859859457,1947.14264604145
0.200540130327891,1947.15264604144
0.202374930629429,1947.16264604144
0.205653964477786,1947.17264604145
0.210290399926506,1947.18264604145
0.216824018972083,1947.19264604145
0.224248333408615,1947.20264604145
0.232344642563212,1947.21264604145
0.240398788655124,1947.22264604145
0.247490972508854,1947.23264604145
0.254075402898624,1947.24264604145
0.258756055007977,1947.25264604145
0.26149441974347,1947.26264604145
0.261792394581013,1947.27264604145
0.259766707976694,1947.28264604145
0.256114639356302,1947.29264604145
0.251331232308238,1947.30264604145
0.245568041480651,1947.31264604145
0.239990833494776,1947.32264604145
0.23383151332967,1947.33264604145
0.227927814361406,1947.34264604145
0.221723330654117,1947.35264604145
0.215393403067315,1947.36264604145
0.208915545259629,1947.37264604145
0.203259975812206,1947.38264604145
0.198126920155578,1947.39264604145
0.193001014301974,1947.40264604144
0.187741163337192,1947.41264604144
0.182248658863867,1947.42264604145
0.176700069459695,1947.43264604145
0.171405971636607,1947.44264604145
0.165623731394722,1947.45264604145
0.160285306464905,1947.46264604145
0.154679216183097,1947.47264604145
0.149394954517184,1947.48264604145
0.144688380701468,1947.49264604145
0.140191688254231,1947.50264604145
0.136042518186038,1947.51264604145
0.131930403490352,1947.52264604145
0.127945624223165,1947.53264604145
0.123523171672479,1947.54264604145
0.118955981432963,1947.55264604145
0.114112579797283,1947.56264604145
0.110062033163719,1947.57264604145
0.108237722425328,1947.58264604145
0.111364930966581,1947.59264604145
0.123566478201836,1947.60264604145
0.146783252118358,1947.61264604145
0.183071828754245,1947.62264604145
0.230873911089924,1947.63264604145
0.286516515429065,1947.64264604145
0.345598761469807,1947.65264604144
0.402246241784697,1947.66264604144
0.451753908990943,1947.67264604145
0.491624679484,1947.68264604145
0.520172029987319,1947.69264604145
0.53763622442654,1947.70264604145
0.546032632632364,1947.71264604145
0.548089596001849,1947.72264604145
0.545390277350703,1947.73264604145
0.54015964689407,1947.74264604145
0.533397380813435,1947.75264604145
0.525836594400378,1947.76264604145
0.518043585421535,1947.77264604145
0.510136549315452,1947.78264604145
0.502473627668558,1947.79264604145
0.495119385016234,1947.80264604145
0.487899314248624,1947.81264604145
0.480688404809651,1947.82264604145
0.472754207127978,1947.83264604145
0.463311581324259,1947.84264604145
0.453340228705713,1947.85264604145
0.442824728719459,1947.86264604145
0.432363974925596,1947.87264604145
0.423039519313692,1947.88264604145
0.415882065482041,1947.89264604145
0.410884143088922,1947.90264604144
0.408089059034808,1947.91264604144
