PPG,time
-0.222981563095264,2423.12209375403
-0.446113155625948,2423.13209375403
-0.400608048694357,2423.14209375403
-0.43554549483282,2423.15209375403
-0.424693248707272,2423.16209375403
-0.4431476207716,2423.17209375403
-0.443117845513295,2423.18209375403
-0.455329328962024,2423.19209375403
-0.460658593554617,2423.20209375403
-0.469559776417259,2423.21209375403
-0.476348090988256,2423.22209375403
-0.483339610036474,2423.23209375403
-0.490297887392177,2423.24209375403
-0.497510465273677,2423.25209375403
-0.504768456073151,2423.26209375403
-0.512041956156562,2423.27209375403
-0.519248279328294,2423.28209375403
-0.526901917158542,2423.29209375403
-0.53441586986821,2423.30209375403
-0.541514478740733,2423.31209375403
-0.548878655563345,2423.32209375403
-0.555362042930635,2423.33209375403
-0.561407774829704,2423.34209375403
-0.568041095492855,2423.35209375403
-0.574526488672394,2423.36209375403
-0.581453526432856,2423.37209375403
-0.588762757537294,2423.38209375403
-0.595992112107619,2423.39209375403
-0.603511079004777,2423.40209375403
-0.611008993875028,2423.41209375403
-0.617765913211311,2423.42209375403
-0.624262965653267,2423.43209375403
-0.630123561600911,2423.44209375403
-0.635806069792249,2423.45209375403
-0.641485312282528,2423.46209375403
-0.647135573801142,2423.47209375403
-0.653709268301718,2423.48209375403
-0.660683127741097,2423.49209375403
-0.667740262000485,2423.50209375403
-0.675334992603978,2423.51209375403
-0.681436433473913,2423.52209375403
-0.685194870642282,2423.53209375403
-0.683955414134938,2423.54209375403
-0.676462299435842,2423.55209375403
-0.663308451184444,2423.56209375403
-0.643841370114793,2423.57209375403
-0.620569153098253,2423.58209375403
-0.594562574002076,2423.59209375403
-0.568289154758749,2423.60209375403
-0.543890602487582,2423.61209375403
-0.522630440976683,2423.62209375403
-0.505716561012438,2423.63209375403
-0.493155163015312,2423.64209375403
-0.4848642906838,2423.65209375403
-0.480688698060075,2423.66209375403
-0.479799733191696,2423.67209375403
-0.481523288716423,2423.68209375403
-0.485506204973034,2423.69209375403
-0.490019160507858,2423.70209375403
-0.49467041144145,2423.71209375403
-0.498376143025848,2423.72209375403
-0.5009723546496,2423.73209375403
-0.502589005057897,2423.74209375403
-0.502799109003739,2423.75209375403
-0.502672843926384,2423.76209375403
-0.501501800180485,2423.77209375403
-0.500628626749104,2423.78209375403
-0.500160964406778,2423.79209375403
-0.500581835400146,2423.80209375403
-0.502209818031459,2423.81209375403
-0.504943712249461,2423.82209375403
-0.508758689355259,2423.83209375403
-0.51315395124086,2423.84209375403
-0.517374989585908,2423.85209375403
-0.521362646996254,2423.86209375403
-0.524481175602356,2423.87209375403
-0.526664056500922,2423.88209375403
-0.527325633907197,2423.89209375403
-0.527167994272856,2423.90209375403
-0.526527328404679,2423.91209375403
-0.52564403439195,2423.92209375403
-0.524475347167289,2423.93209375403
-0.523028435202027,2423.94209375403
-0.521203966229956,2423.95209375403
-0.519941099600701,2423.96209375403
-0.518363286529004,2423.97209375403
-0.51747098587184,2423.98209375403
-0.517150007853931,2423.99209375403
-0.517502275312225,2424.00209375403
-0.518929174364643,2424.01209375403
-0.520667974651449,2424.02209375403
-0.523416608843338,2424.03209375403
-0.526442143600178,2424.04209375403
-0.530491533821562,2424.05209375403
-0.534600406714873,2424.06209375403
-0.539058456112458,2424.07209375403
-0.543750497326562,2424.08209375403
-0.548511018149045,2424.09209375403
-0.553115187543676,2424.10209375403
-0.55763299460946,2424.11209375403
-0.562364463892068,2424.12209375403
-0.566749843447946,2424.13209375403
-0.571400176644522,2424.14209375403
-0.576091736338933,2424.15209375403
-0.580994686887264,2424.16209375403
-0.586193093223388,2424.17209375403
-0.59152784017767,2424.18209375403
-0.596548655614501,2424.19209375403
-0.601245204382706,2424.20209375403
-0.605711235410243,2424.21209375403
-0.609300144537935,2424.22209375403
-0.612957175322548,2424.23209375403
-0.616862514657944,2424.24209375403
-0.621092003274666,2424.25209375403
-0.625515452846202,2424.26209375403
-0.62989798554322,2424.27209375403
-0.634317766596487,2424.28209375403
-0.638520316932909,2424.29209375403
-0.641909036208111,2424.30209375403
-0.645054663748804,2424.31209375403
-0.647933557411505,2424.32209375403
-0.651486670361322,2424.33209375403
-0.655633037708793,2424.34209375403
-0.661082305665963,2424.35209375403
-0.666224207584212,2424.36209375403
-0.671842432521898,2424.37209375403
-0.676966272377421,2424.38209375403
-0.682117045258225,2424.39209375403
-0.686866009074014,2424.40209375403
-0.691999663632365,2424.41209375403
-0.697402391261897,2424.42209375403
-0.702906238878259,2424.43209375403
-0.709000397212813,2424.44209375403
-0.714693766936133,2424.45209375403
-0.720071049746981,2424.46209375403
-0.725281739723354,2424.47209375403
-0.73026501634355,2424.48209375403
-0.735598819666341,2424.49209375403
-0.740682588471286,2424.50209375403
-0.745591322697896,2424.51209375403
-0.749866518176299,2424.52209375403
-0.753441538074916,2424.53209375403
-0.754689200862925,2424.54209375403
-0.752705218027451,2424.55209375403
-0.745686394176105,2424.56209375403
-0.733081385850529,2424.57209375403
-0.714574385585068,2424.58209375403
-0.690656960002641,2424.59209375403
-0.66339811247423,2424.60209375403
-0.634862611724065,2424.61209375403
-0.606961389367107,2424.62209375403
-0.580742359554272,2424.63209375403
-0.55781707835885,2424.64209375403
-0.538798438969088,2424.65209375403
-0.525241989913036,2424.66209375403
-0.516526521200689,2424.67209375403
-0.512109445284477,2424.68209375403
-0.51111987096808,2424.69209375403
-0.512251889305444,2424.70209375403
-0.514780404436528,2424.71209375403
-0.517693021087402,2424.72209375403
-0.520637401027049,2424.73209375403
-0.522779882852424,2424.74209375403
-0.524203391308731,2424.75209375403
-0.524987987099232,2424.76209375403
-0.524825499299686,2424.77209375403
-0.524240230035697,2424.78209375403
-0.522944208984522,2424.79209375403
-0.522015255246943,2424.80209375403
-0.521933524442845,2424.81209375403
-0.522806241182224,2424.82209375403
-0.524251158126715,2424.83209375403
-0.526550900475555,2424.84209375403
-0.529348283446409,2424.85209375403
-0.531917868985503,2424.86209375403
-0.533476634027101,2424.87209375403
-0.534193602127961,2424.88209375403
-0.533552569624504,2424.89209375403
-0.531653147351091,2424.90209375403
-0.529102744380191,2424.91209375403
-0.525731694794359,2424.92209375403
-0.521526094221211,2424.93209375403
-0.517100918135962,2424.94209375403
-0.51231466351679,2424.95209375403
-0.507259046333542,2424.96209375403
-0.502607822615563,2424.97209375403
-0.498910949686083,2424.98209375403
-0.495991439761115,2424.99209375403
-0.49444307917757,2425.00209375403
-0.493719168554278,2425.01209375403
-0.493928655598031,2425.02209375403
-0.494926971254793,2425.03209375403
-0.496928145670374,2425.04209375403
-0.499224952291175,2425.05209375403
-0.501550975863924,2425.06209375403
-0.504093735328074,2425.07209375403
-0.506661729279704,2425.08209375403
-0.509762434543674,2425.09209375403
-0.512692824885064,2425.10209375403
-0.515612959072599,2425.11209375403
-0.517818998898807,2425.12209375403
-0.5203019973075,2425.13209375403
-0.522406680692896,2425.14209375403
-0.524676692953253,2425.15209375403
-0.528209874318291,2425.16209375403
-0.531503404446495,2425.17209375403
-0.534973173573793,2425.18209375403
-0.53846198622244,2425.19209375403
-0.541791028050157,2425.20209375403
-0.545336595088049,2425.21209375403
-0.54907267735905,2425.22209375403
-0.553113289281206,2425.23209375403
-0.556091198480121,2425.24209375403
-0.559175326270501,2425.25209375403
-0.562056424567516,2425.26209375403
-0.56478769034334,2425.27209375403
-0.567785407579339,2425.28209375403
-0.571078857783834,2425.29209375403
-0.574396977528039,2425.30209375403
-0.57733534628002,2425.31209375403
-0.580356459474077,2425.32209375403
-0.583191140129723,2425.33209375403
-0.585453433295428,2425.34209375403
-0.588038935260499,2425.35209375403
-0.590875352110574,2425.36209375403
-0.594144000200794,2425.37209375403
-0.597393077864531,2425.38209375403
-0.60067964914518,2425.39209375403
-0.604378949214474,2425.40209375403
-0.607615879320761,2425.41209375403
-0.61067881016374,2425.42209375403
-0.613083402958184,2425.43209375403
-0.615305238865804,2425.44209375403
-0.617130985750114,2425.45209375403
-0.619259316677648,2425.46209375403
-0.621735934270612,2425.47209375403
-0.623753885015949,2425.48209375403
-0.625582766436152,2425.49209375403
-0.625147865784185,2425.50209375403
-0.621539922855541,2425.51209375403
-0.61227171656544,2425.52209375403
-0.596470782281842,2425.53209375403
-0.574383008649067,2425.54209375403
-0.545945184495791,2425.55209375403
-0.514128026432946,2425.56209375403
-0.479765700049907,2425.57209375403
-0.445832137512055,2425.58209375403
-0.413259770457258,2425.59209375403
-0.384327123379939,2425.60209375403
-0.35973025608975,2425.61209375403
-0.340385131507362,2425.62209375403
-0.325579382025919,2425.63209375403
-0.315420686796025,2425.64209375403
-0.309243241715957,2425.65209375403
-0.306073011567617,2425.66209375403
-0.30471334462502,2425.67209375403
-0.304708576895794,2425.68209375403
-0.304680030631102,2425.69209375403
-0.304815423889616,2425.70209375403
-0.30451814027208,2425.71209375403
-0.303806510448307,2425.72209375403
-0.301247784692257,2425.73209375403
-0.297995490623228,2425.74209375403
-0.294701581362536,2425.75209375403
-0.291137130109831,2425.76209375403
-0.288316636877593,2425.77209375403
-0.286607750072288,2425.78209375403
-0.285980436827802,2425.79209375403
-0.287113583470021,2425.80209375403
-0.288232133885993,2425.81209375403
-0.28911004903291,2425.82209375403
-0.289056434030603,2425.83209375403
-0.288243892164124,2425.84209375403
-0.286613078014893,2425.85209375403
-0.2835744369404,2425.86209375403
-0.279038393040675,2425.87209375403
-0.273286483083059,2425.88209375403
-0.266670786468741,2425.89209375403
-0.25947111779509,2425.90209375403
-0.252409287036182,2425.91209375403
-0.24532232480674,2425.92209375403
-0.238550601402489,2425.93209375403
-0.232722078746253,2425.94209375403
-0.227863249675446,2425.95209375403
-0.223837740075733,2425.96209375403
-0.220771544403142,2425.97209375403
-0.218502269028896,2425.98209375403
-0.217039622811689,2425.99209375403
-0.216357533147128,2426.00209375403
-0.216567906886456,2426.01209375403
-0.217425253548098,2426.02209375403
-0.219106451843387,2426.03209375403
-0.22099598028236,2426.04209375403
-0.223604109070808,2426.05209375403
-0.226522413108191,2426.06209375403
-0.229966243664314,2426.07209375403
-0.233503570130719,2426.08209375403
-0.2372361199449,2426.09209375403
-0.240392425728685,2426.10209375403
-0.243650454482763,2426.11209375403
-0.246731883416042,2426.12209375403
-0.249523585710012,2426.13209375403
-0.252072520310054,2426.14209375403
-0.254797086161255,2426.15209375403
-0.257722090650693,2426.16209375403
-0.261444855543912,2426.17209375403
-0.265376807960424,2426.18209375403
-0.269256641059254,2426.19209375403
-0.272707799844262,2426.20209375403
-0.276255870785715,2426.21209375403
-0.279678253449853,2426.22209375403
-0.282343662339624,2426.23209375403
-0.285103319385519,2426.24209375403
-0.287849123282006,2426.25209375403
-0.291401286593306,2426.26209375403
-0.294650790410629,2426.27209375403
-0.298377713705868,2426.28209375403
-0.301572420179589,2426.29209375403
-0.304728280013537,2426.30209375403
-0.308037905989615,2426.31209375403
-0.310678295538472,2426.32209375403
-0.313952612859701,2426.33209375403
-0.317236475663514,2426.34209375403
-0.3212799039749,2426.35209375403
-0.325773136743167,2426.36209375403
-0.330211891844737,2426.37209375403
-0.334609072630457,2426.38209375403
-0.338140436178657,2426.39209375403
-0.341374244052483,2426.40209375403
-0.344621401259863,2426.41209375403
-0.347766356125852,2426.42209375403
-0.351312396657814,2426.43209375403
-0.354802501383669,2426.44209375403
-0.35869339109302,2426.45209375403
-0.362880703847344,2426.46209375403
-0.366651429187278,2426.47209375403
-0.368783571246749,2426.48209375403
-0.367552744593755,2426.49209375403
-0.361409632971666,2426.50209375403
-0.34854328527756,2426.51209375403
-0.328596446183205,2426.52209375403
-0.301401635450929,2426.53209375403
-0.267783457350293,2426.54209375403
-0.229054934002281,2426.55209375403
-0.187680983586515,2426.56209375403
-0.145278778443037,2426.57209375403
-0.103870404062683,2426.58209375403
-0.065602342683666,2426.59209375403
-0.0316248852407193,2426.60209375403
-0.00285938748576579,2426.61209375403
0.0204834376058814,2426.62209375403
0.0390290823375961,2426.63209375403
0.052345441553725,2426.64209375403
0.0622855542004348,2426.65209375403
0.0687266388787815,2426.66209375403
0.0731952265833023,2426.67209375403
0.0764143447164633,2426.68209375403
0.0791667788055699,2426.69209375403
0.082394843620184,2426.70209375403
0.0865696178355913,2426.71209375403
0.0920126158098718,2426.72209375403
0.0988996061135723,2426.73209375403
0.105932484678473,2426.74209375403
0.112733701252286,2426.75209375403
0.11933164472093,2426.76209375403
0.12520138015399,2426.77209375403
0.129845624264036,2426.78209375403
0.133423869572985,2426.79209375403
0.135274470080847,2426.80209375403
0.136037129394996,2426.81209375403
0.136442997314155,2426.82209375403
0.136886800746309,2426.83209375403
0.138290379897266,2426.84209375403
0.140914522428681,2426.85209375403
0.144894661507329,2426.86209375403
0.14996260260941,2426.87209375403
0.155994572724864,2426.88209375403
0.162429011479632,2426.89209375403
0.169701093165179,2426.90209375403
0.177422558308899,2426.91209375403
0.184767780230167,2426.92209375403
0.191305989407155,2426.93209375403
0.197561975376868,2426.94209375403
0.202828362673435,2426.95209375403
0.20678904857724,2426.96209375403
0.210042767591679,2426.97209375403
0.21228000845803,2426.98209375403
0.213245070830838,2426.99209375403
0.213009624552761,2427.00209375403
0.212388199445357,2427.01209375403
0.211602874999987,2427.02209375403
0.210109475497058,2427.03209375403
0.208684941062634,2427.04209375403
0.207011141369166,2427.05209375403
0.205007337225053,2427.06209375403
0.203017215052032,2427.07209375403
0.201372509592322,2427.08209375403
0.199041568398885,2427.09209375403
0.196000276017424,2427.10209375403
0.192408616765017,2427.11209375403
0.188595703442276,2427.12209375403
0.184174026572312,2427.13209375403
0.180058648956404,2427.14209375403
0.175992001609533,2427.15209375403
0.171800230711992,2427.16209375403
0.168139136661288,2427.17209375403
0.164294846349355,2427.18209375403
0.159683387680257,2427.19209375403
0.155188236015969,2427.20209375403
0.150347417027646,2427.21209375403
0.146210045934401,2427.22209375403
0.142264881750101,2427.23209375403
0.138091202480194,2427.24209375403
0.133763029409598,2427.25209375403
0.129016502043724,2427.26209375403
0.123607587643802,2427.27209375403
0.117899453592294,2427.28209375403
0.111152178135473,2427.29209375403
0.10516059118376,2427.30209375403
0.0990293785374122,2427.31209375403
0.0930936984755901,2427.32209375403
0.0868319087686501,2427.33209375403
0.080904697042911,2427.34209375403
0.0752111031646921,2427.35209375403
0.0692294736846314,2427.36209375403
0.064144659814484,2427.37209375403
0.0583780532139828,2427.38209375403
0.0525148755642295,2427.39209375403
0.0469759051790537,2427.40209375403
0.0415651727763502,2427.41209375403
0.0363269179772829,2427.42209375403
0.0316011704735457,2427.43209375403
0.0259207554186041,2427.44209375403
0.0198007529472299,2427.45209375403
0.012768588902706,2427.46209375403
0.0059986063072512,2427.47209375403
-0.000553198680712588,2427.48209375403
-0.00593215857084785,2427.49209375403
-0.0105855560093877,2427.50209375403
-0.0124157946657533,2427.51209375403
-0.0100761841952872,2427.52209375403
-0.000724391848509007,2427.53209375403
0.0165788755536195,2427.54209375403
0.0425618268317708,2427.55209375403
0.0765194805696519,2427.56209375403
0.117411080759416,2427.57209375403
0.1636636779672,2427.58209375403
0.212428188684423,2427.59209375403
0.2615709925737,2427.60209375403
0.307845570929735,2427.61209375403
0.349998817080538,2427.62209375403
0.386440460501449,2427.63209375403
0.415809303216759,2427.64209375403
0.438375998084885,2427.65209375403
0.455659104868613,2427.66209375403
0.467661863183718,2427.67209375403
0.475845968862542,2427.68209375403
0.481087161812769,2427.69209375403
0.484854420582303,2427.70209375403
0.487977700704306,2427.71209375403
0.490913769454759,2427.72209375403
0.494644518551468,2427.73209375403
0.498896776353186,2427.74209375403
0.503416717247327,2427.75209375403
0.508559924307987,2427.76209375403
0.513474936889258,2427.77209375403
0.518413177958902,2427.78209375403
0.522557219599207,2427.79209375403
0.525261824361876,2427.80209375403
0.526497119675451,2427.81209375403
0.525828383917019,2427.82209375403
0.523963062595822,2427.83209375403
0.521087118092169,2427.84209375403
0.518668153778085,2427.85209375403
0.517053851176222,2427.86209375403
0.516219173707383,2427.87209375403
0.516770984748484,2427.88209375403
0.51804321640383,2427.89209375403
0.520478907659719,2427.90209375403
0.523412792990973,2427.91209375403
0.527301819411125,2427.92209375403
0.532323425826463,2427.93209375403
0.537982011168851,2427.94209375403
0.543979246683534,2427.95209375403
0.54967964801676,2427.96209375403
0.554501169644891,2427.97209375403
0.558579555791471,2427.98209375403
0.561817090195977,2427.99209375403
0.563704883977667,2428.00209375403
0.563669665841703,2428.01209375403
0.562588382831721,2428.02209375403
0.560616635416108,2428.03209375403
0.55754863142665,2428.04209375403
0.554095759694643,2428.05209375403
0.549888922864161,2428.06209375403
0.544844350820761,2428.07209375403
0.539138727359038,2428.08209375403
0.532596160139093,2428.09209375403
0.525282095114452,2428.10209375403
0.517718202211303,2428.11209375403
0.510196631876332,2428.12209375403
0.502425597139685,2428.13209375403
0.494855971338301,2428.14209375403
0.486794096297082,2428.15209375403
0.479170466970001,2428.16209375403
0.47138391955374,2428.17209375403
0.463498904404098,2428.18209375403
0.455879754737724,2428.19209375403
0.447552690592251,2428.20209375403
0.438580630135552,2428.21209375403
0.429311469941749,2428.22209375403
0.420112207051974,2428.23209375403
0.410472183252658,2428.24209375403
0.40177448780167,2428.25209375403
0.392588545781172,2428.26209375403
0.383569011768211,2428.27209375403
0.374873173975673,2428.28209375403
0.365539585339628,2428.29209375403
0.356741181649355,2428.30209375403
0.347406943845256,2428.31209375403
0.337829877210585,2428.32209375403
0.328344813562422,2428.33209375403
0.318458271968661,2428.34209375403
0.30836276250379,2428.35209375403
0.298606856711319,2428.36209375403
0.289032494295792,2428.37209375403
0.27994568357018,2428.38209375403
0.271003981016698,2428.39209375403
0.261986150596234,2428.40209375403
0.253164703495041,2428.41209375403
0.244281474840766,2428.42209375403
0.235044468197069,2428.43209375403
0.225878450706787,2428.44209375403
0.216816726249561,2428.45209375403
0.208532283061023,2428.46209375403
0.201686746857424,2428.47209375403
0.198006915095154,2428.48209375403
0.199890119405042,2428.49209375403
0.209362797435847,2428.50209375403
0.227929801190238,2428.51209375403
0.256342253357405,2428.52209375403
0.293531157712253,2428.53209375403
0.338180764459141,2428.54209375403
0.387384067203892,2428.55209375403
0.438220645091797,2428.56209375403
0.488001187709901,2428.57209375403
0.534371347979481,2428.58209375403
0.574984647874578,2428.59209375403
0.608706489099331,2428.60209375403
0.636236118226119,2428.61209375403
0.656350277139882,2428.62209375403
0.670544451347124,2428.63209375403
0.679332153090243,2428.64209375403
0.684304299192586,2428.65209375403
0.686850841149167,2428.66209375403
0.687398377914766,2428.67209375403
0.68677418898529,2428.68209375403
0.685932801610025,2428.69209375403
0.685231884245297,2428.70209375403
0.685157840766819,2428.71209375403
0.685688654920166,2428.72209375403
0.686384724089946,2428.73209375403
0.687285864604105,2428.74209375403
0.687987974730134,2428.75209375403
0.687781890304338,2428.76209375403
0.685972709917249,2428.77209375403
0.682729935169223,2428.78209375403
0.678427714330967,2428.79209375403
0.67413165609951,2428.80209375403
0.670653738620914,2428.81209375403
0.667896985988189,2428.82209375403
0.665937867937451,2428.83209375403
0.665161210673337,2428.84209375403
0.665039214316605,2428.85209375403
0.666170461454537,2428.86209375403
0.66886041086458,2428.87209375403
0.672693816562308,2428.88209375403
0.677743581724794,2428.89209375403
0.683238383182022,2428.90209375403
0.688775776390135,2428.91209375403
0.693342739567347,2428.92209375403
0.696720719713028,2428.93209375403
0.697846071296332,2428.94209375403
0.696924327191717,2428.95209375403
0.694087775893835,2428.96209375403
0.689762494963497,2428.97209375403
0.684006010027754,2428.98209375403
0.677518940798201,2428.99209375403
0.670067153721408,2429.00209375403
0.661869658361542,2429.01209375403
0.653269582329129,2429.02209375403
0.644323744984664,2429.03209375403
0.635230897556395,2429.04209375403
0.625917941972974,2429.05209375403
0.615790748977615,2429.06209375403
0.605321839809549,2429.07209375403
0.594350358340994,2429.08209375403
0.583594731151707,2429.09209375403
0.573375299049203,2429.10209375403
0.563609296345962,2429.11209375403
0.554714800794655,2429.12209375403
0.545228063485264,2429.13209375403
0.535572521719702,2429.14209375403
0.526431413066442,2429.15209375403
0.516847546687721,2429.16209375403
0.506999159393417,2429.17209375403
0.497080903614275,2429.18209375403
0.48653783377448,2429.19209375403
0.475970048176458,2429.20209375403
0.465409320875044,2429.21209375403
0.454925625784293,2429.22209375403
0.444661347713785,2429.23209375403
0.433953124275794,2429.24209375403
0.422821850898531,2429.25209375403
0.411244005959013,2429.26209375403
0.400209158077982,2429.27209375403
0.389047577865694,2429.28209375403
0.377733449881497,2429.29209375403
0.366453587108027,2429.30209375403
0.354764210577946,2429.31209375403
0.342787799215025,2429.32209375403
0.330799178202613,2429.33209375403
0.319264071694566,2429.34209375403
0.309399054800396,2429.35209375403
0.303541726492037,2429.36209375403
0.303442459574726,2429.37209375403
0.31157322531019,2429.38209375403
0.32944065810703,2429.39209375403
0.356639170316319,2429.40209375403
0.392915302878438,2429.41209375403
0.436925669819055,2429.42209375403
0.487281809459011,2429.43209375403
0.539921026884643,2429.44209375403
0.592150264586947,2429.45209375403
0.640813885590256,2429.46209375403
0.683777979944659,2429.47209375403
0.719000030222228,2429.48209375403
0.746980989729919,2429.49209375403
0.767253523167709,2429.50209375403
0.780658950170388,2429.51209375403
0.788035342807947,2429.52209375403
0.791155272227869,2429.53209375403
0.791094287871671,2429.54209375403
0.788476378723747,2429.55209375403
0.785734636154154,2429.56209375403
0.782456931461316,2429.57209375403
0.779651848870979,2429.58209375403
0.778277275252094,2429.59209375403
0.777868236926786,2429.60209375403
0.778016577182571,2429.61209375403
0.777960308862982,2429.62209375403
0.776733721371507,2429.63209375403
0.773886686949383,2429.64209375403
0.769155446638139,2429.65209375403
0.763037899036059,2429.66209375403
0.756262644260386,2429.67209375403
0.749253356768777,2429.68209375403
0.743022486198427,2429.69209375403
0.737750172174012,2429.70209375403
0.733859918984813,2429.71209375403
0.731645914041656,2429.72209375403
0.731140279631892,2429.73209375403
0.732526790037545,2429.74209375403
0.735524621491226,2429.75209375403
0.739409777147183,2429.76209375403
0.743709359995187,2429.77209375403
0.748231941961305,2429.78209375403
0.751801293500313,2429.79209375403
0.75443721189853,2429.80209375403
0.755665344135939,2429.81209375403
0.754886877757575,2429.82209375403
0.752284756094563,2429.83209375403
0.748134688370518,2429.84209375403
0.7430833938864,2429.85209375403
0.737707945243996,2429.86209375403
0.732404560455724,2429.87209375403
0.72587468891529,2429.88209375403
0.718270900944694,2429.89209375403
0.709565737716969,2429.90209375403
0.700260002119255,2429.91209375403
0.690746725802425,2429.92209375403
0.681277128550939,2429.93209375403
0.671538144491071,2429.94209375403
0.661529987639037,2429.95209375403
0.650446694248911,2429.96209375403
0.638582673802254,2429.97209375403
0.62600834134102,2429.98209375403
0.61297811996081,2429.99209375403
0.600009403626868,2430.00209375403
0.586839232153015,2430.01209375403
0.57400378756869,2430.02209375403
0.561933975613275,2430.03209375403
0.550145957521196,2430.04209375403
0.538343156594448,2430.05209375403
0.526977025013951,2430.06209375403
0.516013019029734,2430.07209375403
0.505380453939798,2430.08209375403
0.494965574972359,2430.09209375403
0.484538232521938,2430.10209375403
0.473932924800124,2430.11209375403
0.463849590186964,2430.12209375403
0.453229973034515,2430.13209375403
0.443697593141849,2430.14209375403
0.437131249963595,2430.15209375403
0.435990092928385,2430.16209375403
0.443764072201127,2430.17209375403
0.461876187269185,2430.18209375403
0.49112685450607,2430.19209375403
0.530621508679581,2430.20209375403
0.57918600125305,2430.21209375403
0.634029702319722,2430.22209375403
0.692756643465658,2430.23209375403
0.751453577660259,2430.24209375403
0.807179542673448,2430.25209375403
0.856776114603875,2430.26209375403
0.897456540503205,2430.27209375403
0.928501825695071,2430.28209375403
0.951090061058904,2430.29209375403
0.96582916803927,2430.30209375403
0.975041487397641,2430.31209375403
0.979716562060835,2430.32209375403
0.981263107309992,2430.33209375403
0.980583958048909,2430.34209375403
0.978847339551182,2430.35209375403
0.976595715920157,2430.36209375403
0.974440782432425,2430.37209375403
0.973073126007395,2430.38209375403
0.971958742566762,2430.39209375403
0.971066553531732,2430.40209375403
0.969194534108926,2430.41209375403
0.966288800053347,2430.42209375403
0.961674541151745,2430.43209375403
0.955343371589109,2430.44209375403
0.947084151437924,2430.45209375403
0.937534060545953,2430.46209375403
0.927146648180511,2430.47209375403
0.917110637904403,2430.48209375403
0.907403824910775,2430.49209375403
0.899998997113634,2430.50209375403
0.895335788317055,2430.51209375403
0.893534605537601,2430.52209375403
0.894277456805778,2430.53209375403
0.897548384545311,2430.54209375403
0.903249370583963,2430.55209375403
0.909678603020956,2430.56209375403
0.916620074570241,2430.57209375403
0.922516988182028,2430.58209375403
0.926470365885188,2430.59209375403
0.927966984547745,2430.60209375403
0.927040517120186,2430.61209375403
0.923999280991832,2430.62209375403
0.91913137239344,2430.63209375403
0.912915865982257,2430.64209375403
0.905935376918162,2430.65209375403
0.898831370631767,2430.66209375403
0.891512599245388,2430.67209375403
0.884059590771359,2430.68209375403
0.876442141549276,2430.69209375403
0.868942394694005,2430.70209375403
0.862095763740418,2430.71209375403
0.854387058109676,2430.72209375403
0.846798279428742,2430.73209375403
0.838721508372588,2430.74209375403
0.830007908115178,2430.75209375403
0.820935951687787,2430.76209375403
0.81169603871215,2430.77209375403
0.802636834816192,2430.78209375403
0.793413536034721,2430.79209375403
0.784240492211423,2430.80209375403
0.774812373894164,2430.81209375403
0.765595001234842,2430.82209375403
0.756066352742834,2430.83209375403
0.745972479782848,2430.84209375403
0.735242791094443,2430.85209375403
0.724318549882298,2430.86209375403
0.713527683771028,2430.87209375403
0.702938345735684,2430.88209375403
0.693277212180534,2430.89209375403
0.686756278555524,2430.90209375403
0.685335517260827,2430.91209375403
0.691538230253055,2430.92209375403
0.707928948146674,2430.93209375403
0.735600691944925,2430.94209375403
0.775089394712567,2430.95209375403
0.825008877564913,2430.96209375403
0.883431265392905,2430.97209375403
0.946206985230455,2430.98209375403
1.01016947793614,2430.99209375403
1.07093547804162,2431.00209375403
1.12493388507631,2431.01209375403
1.16977757547572,2431.02209375403
1.20475692322464,2431.03209375403
1.23030023185485,2431.04209375403
1.24732640809511,2431.05209375403
1.2572621107062,2431.06209375403
1.26185917188563,2431.07209375403
1.26278140803825,2431.08209375403
1.26143561079015,2431.09209375403
1.25911497976211,2431.10209375403
1.25647179002923,2431.11209375403
1.25379524097192,2431.12209375403
1.25137974887559,2431.13209375403
1.24927155708689,2431.14209375403
1.24755204850709,2431.15209375403
1.24572687849117,2431.16209375403
1.24308524724662,2431.17209375403
1.23839489333945,2431.18209375403
1.23082614295558,2431.19209375403
1.2213149221405,2431.20209375403
1.20966058226405,2431.21209375403
1.1973316643621,2431.22209375403
1.18482862897052,2431.23209375403
1.1732684854528,2431.24209375403
1.16310622644424,2431.25209375403
1.15507698804697,2431.26209375403
1.14899395523423,2431.27209375403
1.143963803538,2431.28209375403
1.14050506474799,2431.29209375403
1.13895277271591,2431.30209375403
1.13825464485702,2431.31209375403
1.1377310927014,2431.32209375403
1.13693155167204,2431.33209375403
1.13527680135412,2431.34209375403
1.1319320903975,2431.35209375403
1.12763148552256,2431.36209375403
1.12127357770315,2431.37209375403
1.11334841882293,2431.38209375403
1.10397668302352,2431.39209375403
1.09247491950733,2431.40209375403
1.07963682112938,2431.41209375403
1.0657206322973,2431.42209375403
1.0506640426101,2431.43209375403
1.03520718810482,2431.44209375403
1.01897786774608,2431.45209375403
1.00275440238157,2431.46209375403
0.986351723380437,2431.47209375403
0.969890371510464,2431.48209375403
0.953433786571236,2431.49209375403
0.936667699728474,2431.50209375403
0.919781043916609,2431.51209375403
0.90280685369744,2431.52209375403
0.885633299007954,2431.53209375403
0.868164026471655,2431.54209375403
0.851517669676286,2431.55209375403
0.835473159009437,2431.56209375403
0.819939780287706,2431.57209375403
0.805221760726082,2431.58209375403
0.790353394245442,2431.59209375403
0.775451603132096,2431.60209375403
0.760489187071093,2431.61209375403
0.744752414788412,2431.62209375403
0.729327415509852,2431.63209375403
0.712973585726214,2431.64209375403
0.696337460713206,2431.65209375403
0.679420922353205,2431.66209375403
0.662331525195087,2431.67209375403
0.645551215109166,2431.68209375403
0.630310565405234,2431.69209375403
0.618507387536787,2431.70209375403
0.612334594438166,2431.71209375403
0.614719755536516,2431.72209375403
0.628179558468194,2431.73209375403
0.653819455990167,2431.74209375403
0.691430019914606,2431.75209375403
0.740490566657708,2431.76209375403
0.798228831283042,2431.77209375403
0.859585570960019,2431.78209375403
0.921441994739255,2431.79209375403
0.978490015003086,2431.80209375403
1.02813227947203,2431.81209375403
1.06882210087867,2431.82209375403
1.0998644721656,2431.83209375403
1.12135132127148,2431.84209375403
1.1349383603846,2431.85209375403
1.14269443904103,2431.86209375403
1.14628145602728,2431.87209375403
1.14671949898482,2431.88209375403
1.14542701163025,2431.89209375403
1.1430800762914,2431.90209375403
1.14043330461106,2431.91209375403
1.13791665521738,2431.92209375403
1.13578864615408,2431.93209375403
1.13395830574216,2431.94209375403
1.13217019934304,2431.95209375403
1.13013737261766,2431.96209375403
1.12808665381245,2431.97209375403
1.12465944709279,2431.98209375403
1.11917239229086,2431.99209375403
1.11097749038999,2432.00209375403
1.09943078793922,2432.01209375403
1.08553993648442,2432.02209375403
1.07082244989851,2432.03209375403
1.05608496920248,2432.04209375403
1.04204684360671,2432.05209375403
1.02926182022781,2432.06209375403
1.01764162011672,2432.07209375403
1.00758617604111,2432.08209375403
0.999164157654394,2432.09209375403
0.992446287519605,2432.10209375403
0.98707482107956,2432.11209375403
0.982742469465679,2432.12209375403
0.97951924294776,2432.13209375403
0.976333686955521,2432.14209375403
0.973198929500341,2432.15209375403
0.96817921282506,2432.16209375403
0.96210995059317,2432.17209375403
0.954582958432916,2432.18209375403
0.944705809202059,2432.19209375403
0.933931901539091,2432.20209375403
0.922130945526662,2432.21209375403
0.908549019022657,2432.22209375403
0.893884859406674,2432.23209375403
0.878028252332794,2432.24209375403
0.861420540917423,2432.25209375403
0.844242838477698,2432.26209375403
0.82645295814333,2432.27209375403
0.808358869183669,2432.28209375403
0.790875070656386,2432.29209375403
0.772919422289831,2432.30209375403
0.755492367642409,2432.31209375403
0.738504469515301,2432.32209375403
0.72227565630442,2432.33209375403
0.70584132832266,2432.34209375403
0.689925478705685,2432.35209375403
0.673381379674802,2432.36209375403
0.65686125148891,2432.37209375403
0.640208527428925,2432.38209375403
0.623704232284992,2432.39209375403
0.607631239327121,2432.40209375403
0.591308849252718,2432.41209375403
0.575301187255244,2432.42209375403
0.559058096819239,2432.43209375403
0.543240813331888,2432.44209375403
0.527661298378055,2432.45209375403
0.511978890663067,2432.46209375403
0.496475787707054,2432.47209375403
0.481491708175021,2432.48209375403
0.466326999509019,2432.49209375403
0.450973025057582,2432.50209375403
0.436034322254351,2432.51209375403
0.421485610590373,2432.52209375403
0.407447423184822,2432.53209375403
0.393677054766886,2432.54209375403
0.379240573559673,2432.55209375403
0.364724129299769,2432.56209375403
0.350167573434031,2432.57209375403
0.335500930395095,2432.58209375403
0.321241787336529,2432.59209375403
0.306601079745783,2432.60209375403
0.2924667887586,2432.61209375403
0.277928341909038,2432.62209375403
0.263190815522734,2432.63209375403
0.248211825950582,2432.64209375403
0.233695202053835,2432.65209375403
0.21881755953542,2432.66209375403
0.204072893924948,2432.67209375403
0.189264846543874,2432.68209375403
0.173466496914926,2432.69209375403
0.158460916787832,2432.70209375403
0.143116237049894,2432.71209375403
0.128365930104587,2432.72209375403
0.113946232564488,2432.73209375403
0.0992358784715279,2432.74209375403
0.0846002579574432,2432.75209375403
0.0717622363443941,2432.76209375403
0.0631825057404461,2432.77209375403
0.0608378205068448,2432.78209375403
0.0677710137350957,2432.79209375403
0.0850371730534521,2432.80209375403
0.113787352499026,2432.81209375403
0.15342501447877,2432.82209375403
0.201703714708609,2432.83209375403
0.256217866902654,2432.84209375403
0.313526112005211,2432.85209375403
0.370283573566083,2432.86209375403
0.421889794999564,2432.87209375403
0.46634058051051,2432.88209375403
0.501653077739497,2432.89209375403
0.52822744513658,2432.90209375403
0.546498323817648,2432.91209375403
0.558193917868276,2432.92209375403
0.565142252762712,2432.93209375403
0.569300734077226,2432.94209375403
0.571413339288526,2432.95209375403
0.572343255967777,2432.96209375403
0.572427427340946,2432.97209375403
0.572434665149748,2432.98209375403
0.572631144071366,2432.99209375403
0.573642893025157,2433.00209375403
0.575916452465913,2433.01209375403
0.578524838812344,2433.02209375403
0.581244660802417,2433.03209375403
0.583579551530816,2433.04209375403
0.584468797833658,2433.05209375403
0.583533110515992,2433.06209375403
0.580618939412312,2433.07209375403
0.575313655611666,2433.08209375403
0.569065445763967,2433.09209375403
0.561499322220244,2433.10209375403
0.553673131179348,2433.11209375403
0.545960775003049,2433.12209375403
0.538241476034952,2433.13209375403
0.532042976890164,2433.14209375403
0.527572367477568,2433.15209375403
0.524337487111997,2433.16209375403
0.522252931375287,2433.17209375403
0.520836165043274,2433.18209375403
0.51926694880633,2433.19209375403
0.51702978312091,2433.20209375403
0.514559082163035,2433.21209375403
0.511901476568458,2433.22209375403
0.50914903850841,2433.23209375403
0.505599335942116,2433.24209375403
0.501216140776694,2433.25209375403
0.495489166049439,2433.26209375403
0.488247980966482,2433.27209375403
0.480151221272322,2433.28209375403
0.471627915261572,2433.29209375403
0.462485318441403,2433.30209375403
0.45231441900138,2433.31209375403
0.441309397840492,2433.32209375403
0.429604378001332,2433.33209375403
0.416705592679613,2433.34209375403
0.403775640209962,2433.35209375403
0.390583709265943,2433.36209375403
0.376882755296738,2433.37209375403
0.363623530774203,2433.38209375403
0.350508249241172,2433.39209375403
0.337974010638155,2433.40209375403
0.325583732925064,2433.41209375403
0.31305689791037,2433.42209375403
0.300363670556129,2433.43209375403
0.287906802983323,2433.44209375403
0.275443881902314,2433.45209375403
0.26304456877117,2433.46209375403
0.25076298696891,2433.47209375403
0.238270371764545,2433.48209375403
0.225686756190028,2433.49209375403
0.213142597500891,2433.50209375403
0.200963939589914,2433.51209375403
0.189340761615982,2433.52209375403
0.177740793227051,2433.53209375403
0.165970461494531,2433.54209375403
0.154313237357969,2433.55209375403
0.142598448246723,2433.56209375403
0.130660273691966,2433.57209375403
0.118589267948285,2433.58209375403
0.10618839800345,2433.59209375403
0.0936377561804348,2433.60209375403
0.080558182468259,2433.61209375403
0.0681118350229659,2433.62209375403
0.0556966403377497,2433.63209375403
0.0436221101432657,2433.64209375403
0.0314673916108317,2433.65209375403
0.0200823619653535,2433.66209375403
0.00872730904163685,2433.67209375403
-0.00215712519855411,2433.68209375403
-0.0128210575625211,2433.69209375403
-0.023434281070732,2433.70209375403
-0.0345376725721174,2433.71209375403
-0.0456942204751463,2433.72209375403
-0.056640455262952,2433.73209375403
-0.0678850401672736,2433.74209375403
-0.0792076406086099,2433.75209375403
-0.0906995399029606,2433.76209375403
-0.102422386489205,2433.77209375403
-0.113449741696559,2433.78209375403
-0.124783892967179,2433.79209375403
-0.136077715908252,2433.80209375403
-0.147269397889056,2433.81209375403
-0.157848269583746,2433.82209375403
-0.16719170117865,2433.83209375403
-0.174273216869727,2433.84209375403
-0.176575833228269,2433.85209375403
-0.171824321553192,2433.86209375403
-0.158221040780066,2433.87209375403
-0.134843997988436,2433.88209375403
-0.101718541054977,2433.89209375403
-0.0604305123514226,2433.90209375403
-0.0130984819230103,2433.91209375403
0.0377510912539574,2433.92209375403
0.0881505697802674,2433.93209375403
0.135434230809136,2433.94209375403
0.178050770123368,2433.95209375403
0.214224809757114,2433.96209375403
0.243144907039018,2433.97209375403
0.264836299736138,2433.98209375403
0.2798721481216,2433.99209375403
0.2898607917146,2434.00209375403
0.29621463446779,2434.01209375403
0.300542598750004,2434.02209375403
0.303633791969515,2434.03209375403
0.306716945269565,2434.04209375403
0.309487205293279,2434.05209375403
0.313121947813038,2434.06209375403
0.316793876856765,2434.07209375403
0.320453681701125,2434.08209375403
0.324773503296357,2434.09209375403
0.3290213461553,2434.10209375403
0.33387601431928,2434.11209375403
0.337190591378468,2434.12209375403
0.339145599089166,2434.13209375403
0.33924594961403,2434.14209375403
0.337347775675803,2434.15209375403
0.334171308662068,2434.16209375403
0.33054541611243,2434.17209375403
0.326748649557941,2434.18209375403
0.323771885795882,2434.19209375403
0.321441872237899,2434.20209375403
0.319817074255209,2434.21209375403
0.319124135511827,2434.22209375403
0.318636657821282,2434.23209375403
0.318990511568885,2434.24209375403
0.319448606414879,2434.25209375403
0.319983222691945,2434.26209375403
0.320543982326062,2434.27209375403
0.321284735346512,2434.28209375403
0.321007838274374,2434.29209375403
0.320416394485514,2434.30209375403
0.318282282445388,2434.31209375403
0.314876955997515,2434.32209375403
0.310916557666062,2434.33209375403
0.305817120858262,2434.34209375403
0.299934457171982,2434.35209375403
0.293297011744103,2434.36209375403
0.286187370250264,2434.37209375403
0.278000676964805,2434.38209375403
0.269295169813789,2434.39209375403
0.259630075264912,2434.40209375403
0.249100710762812,2434.41209375403
0.237409457693385,2434.42209375403
0.224570697027951,2434.43209375403
0.211418889467297,2434.44209375403
0.198904159953162,2434.45209375403
0.18616276773144,2434.46209375403
0.173816326744501,2434.47209375403
0.161644397105173,2434.48209375403
0.14941182079333,2434.49209375403
0.137295934259332,2434.50209375403
0.125698647322022,2434.51209375403
0.114227228996015,2434.52209375403
0.102867202744514,2434.53209375403
0.0916447043657696,2434.54209375403
0.0804060108312434,2434.55209375403
0.0689804530036172,2434.56209375403
0.057231830849369,2434.57209375403
0.0460200320623642,2434.58209375403
0.0346785480189607,2434.59209375403
0.0237074072556955,2434.60209375403
0.0128340377288873,2434.61209375403
0.00206583816472392,2434.62209375403
-0.00904738108027479,2434.63209375403
-0.0212836313998338,2434.64209375403
-0.0329208213929376,2434.65209375403
-0.0446110957127958,2434.66209375403
-0.0567325816609081,2434.67209375403
-0.0682976215417957,2434.68209375403
-0.0805370636238495,2434.69209375403
-0.0917449153495425,2434.70209375403
-0.102425773559695,2434.71209375403
-0.112601969502561,2434.72209375403
-0.122830183870066,2434.73209375403
-0.132788408484183,2434.74209375403
-0.143114467575102,2434.75209375403
-0.153014236530136,2434.76209375403
-0.162365650219202,2434.77209375403
-0.172095298768588,2434.78209375403
-0.18154637990534,2434.79209375403
-0.191132960093999,2434.80209375403
-0.200391096271226,2434.81209375403
-0.210045320512616,2434.82209375403
-0.219628470459839,2434.83209375403
-0.229982162321522,2434.84209375403
-0.240386077475785,2434.85209375403
-0.250452652594756,2434.86209375403
-0.260478316477954,2434.87209375403
-0.269771523145171,2434.88209375403
-0.278477113234107,2434.89209375403
-0.284702386893655,2434.90209375403
-0.287160537034817,2434.91209375403
-0.283550002144758,2434.92209375403
-0.271903014500919,2434.93209375403
-0.251523465833523,2434.94209375403
-0.221884912847845,2434.95209375403
-0.183469155457172,2434.96209375403
-0.138528137055803,2434.97209375403
-0.0890035951667801,2434.98209375403
-0.0381787100199139,2434.99209375403
0.0102070038984138,2435.00209375403
0.054256529176043,2435.01209375403
0.0925199263329923,2435.02209375403
0.123911959317116,2435.03209375403
0.148379843825715,2435.04209375403
0.166692727222085,2435.05209375403
0.179464955335401,2435.06209375403
0.187789802967481,2435.07209375403
0.192311083139185,2435.08209375403
0.195263666074231,2435.09209375403
0.197230790189443,2435.10209375403
0.19931807673235,2435.11209375403
0.202186597052277,2435.12209375403
0.204937478899488,2435.13209375403
0.208348747333211,2435.14209375403
0.211598706842512,2435.15209375403
0.21471783172469,2435.16209375403
0.21774253898906,2435.17209375403
0.220444119051298,2435.18209375403
0.222427197402147,2435.19209375403
0.223122488477384,2435.20209375403
0.22233579095844,2435.21209375403
0.220155976197182,2435.22209375403
0.217213806159844,2435.23209375403
0.214843934143673,2435.24209375403
0.213108171082126,2435.25209375403
0.212855648365393,2435.26209375403
0.213582167923449,2435.27209375403
0.215095526496281,2435.28209375403
0.217308542154246,2435.29209375403
0.220962498222371,2435.30209375403
0.225060331429191,2435.31209375403
0.230135454411629,2435.32209375403
0.235664162596764,2435.33209375403
0.240679878048389,2435.34209375403
0.244374953920668,2435.35209375403
0.247013656658559,2435.36209375403
0.248046721928792,2435.37209375403
0.247883832256681,2435.38209375403
0.246444702449053,2435.39209375403
0.24408981350495,2435.40209375403
0.24034243999267,2435.41209375403
0.235096605001705,2435.42209375403
0.228769500215068,2435.43209375403
0.221840909245665,2435.44209375403
0.214905759500707,2435.45209375403
0.207013311056119,2435.46209375403
0.199310938432462,2435.47209375403
0.190996180686461,2435.48209375403
0.182332635326611,2435.49209375403
0.173436055880625,2435.50209375403
0.163791081328261,2435.51209375403
0.153265503155607,2435.52209375403
0.142547562500766,2435.53209375403
0.131883516132096,2435.54209375403
0.120906467276436,2435.55209375403
0.109890449517698,2435.56209375403
0.0985543310006622,2435.57209375403
0.0870157593817843,2435.58209375403
0.0760219302836122,2435.59209375403
0.0657464933355675,2435.60209375403
0.056052751961314,2435.61209375403
0.0465141382980724,2435.62209375403
0.0367158984075027,2435.63209375403
0.0265324693506103,2435.64209375403
0.0162605231354844,2435.65209375403
0.00604782281514226,2435.66209375403
-0.00414790975961991,2435.67209375403
-0.0134803339695628,2435.68209375403
-0.0228979767388061,2435.69209375403
-0.0321014442354058,2435.70209375403
-0.04142418001662,2435.71209375403
-0.0511723664935405,2435.72209375403
-0.0610911896498037,2435.73209375403
-0.0711427908333541,2435.74209375403
-0.0805927549890625,2435.75209375403
-0.090155777758101,2435.76209375403
-0.0993650591935049,2435.77209375403
-0.108296100618102,2435.78209375403
-0.116847043769931,2435.79209375403
-0.125362581996759,2435.80209375403
-0.133565898119205,2435.81209375403
-0.142428163423983,2435.82209375403
-0.151864696046491,2435.83209375403
-0.160783589788088,2435.84209375403
-0.169615021528862,2435.85209375403
-0.178125546203776,2435.86209375403
-0.186427578469653,2435.87209375403
-0.194825158471213,2435.88209375403
-0.203292591768767,2435.89209375403
-0.212024526426244,2435.90209375403
-0.220001094876633,2435.91209375403
-0.226641997232149,2435.92209375403
-0.229290641796282,2435.93209375403
-0.226477909263893,2435.94209375403
-0.215823682178574,2435.95209375403
-0.196258815460128,2435.96209375403
-0.166900557334074,2435.97209375403
-0.128018134299378,2435.98209375403
-0.0809584176448486,2435.99209375403
-0.0278996391582425,2436.00209375403
0.0272881957799892,2436.01209375403
0.0825387026483264,2436.02209375403
0.134146352964831,2436.03209375403
0.180531224000923,2436.04209375403
0.220490455096872,2436.05209375403
0.253633733822879,2436.06209375403
0.279619143147693,2436.07209375403
0.299744422078434,2436.08209375403
0.314896609120955,2436.09209375403
0.325972021301032,2436.10209375403
0.334074833480871,2436.11209375403
0.340345886092052,2436.12209375403
0.345585666686519,2436.13209375403
0.350287174077218,2436.14209375403
0.355910653941863,2436.15209375403
0.362118067516143,2436.16209375403
0.369688257525162,2436.17209375403
0.377774541517125,2436.18209375403
0.386189967910992,2436.19209375403
0.393605549260979,2436.20209375403
0.399350695642726,2436.21209375403
0.402561154737762,2436.22209375403
0.403060363535747,2436.23209375403
0.401577031279776,2436.24209375403
0.398617080551995,2436.25209375403
0.395502831122371,2436.26209375403
0.392529366817467,2436.27209375403
0.390781934184216,2436.28209375403
0.389999400212341,2436.29209375403
0.390725451372662,2436.30209375403
0.392509653412241,2436.31209375403
0.395529840168835,2436.32209375403
0.39938391968273,2436.33209375403
0.403610080214807,2436.34209375403
0.408255342014469,2436.35209375403
0.412311892020028,2436.36209375403
0.414943226265229,2436.37209375403
0.416579185334071,2436.38209375403
0.416452659822422,2436.39209375403
0.414821056338939,2436.40209375403
0.412183826644179,2436.41209375403
0.408555620431522,2436.42209375403
0.404593631466676,2436.43209375403
0.399886152937482,2436.44209375403
0.393869292158377,2436.45209375403
0.38684962870027,2436.46209375403
0.379008021983563,2436.47209375403
0.370114217328434,2436.48209375403
0.360171996747655,2436.49209375403
0.34941761091251,2436.50209375403
0.339030072178753,2436.51209375403
0.328387993039798,2436.52209375403
0.318269094765373,2436.53209375403
0.307470746368669,2436.54209375403
0.296037658025013,2436.55209375403
0.284237222265765,2436.56209375403
0.272157148276642,2436.57209375403
0.259832478601761,2436.58209375403
0.248462425137569,2436.59209375403
0.23674562987264,2436.60209375403
0.225324759801831,2436.61209375403
0.214218326200115,2436.62209375403
0.203462777099534,2436.63209375403
0.192644210840364,2436.64209375403
0.181580395977746,2436.65209375403
0.170303571898827,2436.66209375403
0.158779564015922,2436.67209375403
0.146979771092131,2436.68209375403
0.13496863295584,2436.69209375403
0.123782268316826,2436.70209375403
0.112597423005903,2436.71209375403
0.101315917089438,2436.72209375403
0.0900850501934144,2436.73209375403
0.079388820835914,2436.74209375403
0.0691626149103341,2436.75209375403
0.0586064485347131,2436.76209375403
0.0487573499748888,2436.77209375403
0.0391326874214738,2436.78209375403
0.0301975376503768,2436.79209375403
0.0210387573796502,2436.80209375403
0.0111312738999692,2436.81209375403
0.00129218681436882,2436.82209375403
-0.00854328384923217,2436.83209375403
-0.0188161824199248,2436.84209375403
-0.028326892865175,2436.85209375403
-0.0379428078541471,2436.86209375403
-0.0471754231988746,2436.87209375403
-0.0565372973721425,2436.88209375403
-0.0659983459028192,2436.89209375403
-0.074686732194245,2436.90209375403
-0.0832748544908149,2436.91209375403
-0.0919137647461886,2436.92209375403
-0.100495904573138,2436.93209375403
-0.109303771678961,2436.94209375403
-0.118127072906072,2436.95209375403
-0.127415820515245,2436.96209375403
-0.136782986010459,2436.97209375403
-0.14445249753263,2436.98209375403
-0.148648057026751,2436.99209375403
-0.146413224381726,2437.00209375403
-0.135337434342487,2437.01209375403
-0.114044856740676,2437.02209375403
-0.0817629529465944,2437.03209375403
-0.0391796245424649,2437.04209375403
0.0122225299332275,2437.05209375403
0.0696735614965151,2437.06209375403
0.130827768867608,2437.07209375403
0.193029643509934,2437.08209375403
0.252881946668367,2437.09209375403
0.307554526802865,2437.10209375403
0.354806192928335,2437.11209375403
0.393842340312946,2437.12209375403
0.424104256099109,2437.13209375403
0.447590541891425,2437.14209375403
0.464285755253394,2437.15209375403
0.476121205253141,2437.16209375403
0.484182309300447,2437.17209375403
0.489623739854166,2437.18209375403
0.494783139411985,2437.19209375403
0.500101393105323,2437.20209375403
0.506136595335145,2437.21209375403
0.512400749381835,2437.22209375403
0.518628930153472,2437.23209375403
0.524771703030664,2437.24209375403
0.53021229594164,2437.25209375403
0.535329684764506,2437.26209375403
0.539321730482358,2437.27209375403
0.54210290324835,2437.28209375403
0.543085630567246,2437.29209375403
0.541619858591004,2437.30209375403
0.538469084725902,2437.31209375403
0.534236570425232,2437.32209375403
0.529813936668765,2437.33209375403
0.525489743267843,2437.34209375403
0.521518843312472,2437.35209375403
0.518756944820296,2437.36209375403
0.516709676373155,2437.37209375403
0.516115998336804,2437.38209375403
0.516535993304055,2437.39209375403
0.517758338129789,2437.40209375403
0.519665440045916,2437.41209375403
0.521669664978231,2437.42209375403
0.523577831045592,2437.43209375403
0.523967650252416,2437.44209375403
0.52304845308257,2437.45209375403
0.520816871985642,2437.46209375403
0.517552664090325,2437.47209375403
0.512888829604314,2437.48209375403
0.507257061555146,2437.49209375403
0.500001733991839,2437.50209375403
0.491688045341031,2437.51209375403
0.482378200274908,2437.52209375403
0.471612452637077,2437.53209375403
0.460662522537363,2437.54209375403
0.44939342763017,2437.55209375403
0.438076226760119,2437.56209375403
0.42648429971016,2437.57209375403
0.414330680200579,2437.58209375403
0.401820458124281,2437.59209375403
0.388889207325927,2437.60209375403
0.375517492001092,2437.61209375403
0.362364267329939,2437.62209375403
0.348809741861643,2437.63209375403
0.335616725227544,2437.64209375403
0.322471115679947,2437.65209375403
0.309002809648715,2437.66209375403
0.295817773154631,2437.67209375403
0.28228695974984,2437.68209375403
0.268851728954496,2437.69209375403
0.256555753252421,2437.70209375403
0.244266124409151,2437.71209375403
0.231929114048777,2437.72209375403
0.219464715724865,2437.73209375403
0.206890429317109,2437.74209375403
0.19400792773973,2437.75209375403
0.18108659447933,2437.76209375403
0.168061223635908,2437.77209375403
0.155863940665741,2437.78209375403
0.144422660880288,2437.79209375403
0.133220761934454,2437.80209375403
0.123484650324934,2437.81209375403
0.11344057319515,2437.82209375403
0.103803269817593,2437.83209375403
0.0938183248603589,2437.84209375403
0.0833779698537349,2437.85209375403
0.0728210856879272,2437.86209375403
0.0618602453912824,2437.87209375403
0.0513502832902727,2437.88209375403
0.0403713330554324,2437.89209375403
0.0294698828442343,2437.90209375403
0.018364089411521,2437.91209375403
0.00623369004014561,2437.92209375403
-0.00544560753674229,2437.93209375403
-0.0162705627072403,2437.94209375403
-0.0263626079286511,2437.95209375403
-0.0353469151815558,2437.96209375403
-0.0441760276124399,2437.97209375403
-0.0530115728260956,2437.98209375403
-0.0625708265051326,2437.99209375403
-0.0725526894808495,2438.00209375403
-0.0825386655921494,2438.01209375403
-0.0913341425657194,2438.02209375403
-0.0967861671550016,2438.03209375403
-0.0973977729203435,2438.04209375403
-0.0901441999549109,2438.05209375403
-0.0724218350454529,2438.06209375403
-0.0432725235857517,2438.07209375403
-0.00288143551516606,2438.08209375403
0.047940153279957,2438.09209375403
0.107428589659569,2438.10209375403
0.172912428566901,2438.11209375403
0.240300238815562,2438.12209375403
0.305942211131816,2438.13209375403
0.366998095238769,2438.14209375403
0.420937377166734,2438.15209375403
0.465843953572697,2438.16209375403
0.501580772706023,2438.17209375403
0.5278659589077,2438.18209375403
0.54588808515152,2438.19209375403
0.557166749691463,2438.20209375403
0.563536887765104,2438.21209375403
0.566510012291086,2438.22209375403
0.567522414145141,2438.23209375403
0.567688969902683,2438.24209375403
0.56782385852224,2438.25209375403
0.568459131595055,2438.26209375403
0.569389709661093,2438.27209375403
0.571226170610669,2438.28209375403
0.573762527399547,2438.29209375403
0.576821801702519,2438.30209375403
0.578617266733049,2438.31209375403
0.578908735394327,2438.32209375403
0.577692393658229,2438.33209375403
0.573832433828001,2438.34209375403
0.568750802164513,2438.35209375403
0.562213864818298,2438.36209375403
0.555295325650612,2438.37209375403
0.549386048134619,2438.38209375403
0.544485245975461,2438.39209375403
0.541454056426749,2438.40209375403
0.539757525376469,2438.41209375403
0.539584747668305,2438.42209375403
0.540914443463521,2438.43209375403
0.543192034542093,2438.44209375403
0.546457868501356,2438.45209375403
0.549735045775727,2438.46209375403
0.552580003675704,2438.47209375403
0.554677069212632,2438.48209375403
0.555803355553893,2438.49209375403
0.555814437271399,2438.50209375403
0.554249863726414,2438.51209375403
0.551306617694159,2438.52209375403
0.546463437969301,2438.53209375403
0.540061988475288,2438.54209375403
0.532479256686879,2438.55209375403
0.524182567562295,2438.56209375403
0.514352938306933,2438.57209375403
0.503543116224685,2438.58209375403
0.491641645800983,2438.59209375403
0.478663044246402,2438.60209375403
0.465092285161904,2438.61209375403
0.451251245251386,2438.62209375403
0.437197132809041,2438.63209375403
0.423544613091436,2438.64209375403
0.410293846370528,2438.65209375403
0.397173080580955,2438.66209375403
0.383790621484665,2438.67209375403
0.370540249545474,2438.68209375403
0.35700674593909,2438.69209375403
0.343568170794429,2438.70209375403
0.330093905830884,2438.71209375403
0.317025871027926,2438.72209375403
0.304413505100967,2438.73209375403
0.291960170761132,2438.74209375403
0.279943199297668,2438.75209375403
0.268220429109437,2438.76209375403
0.257193665855883,2438.77209375403
0.246005178923532,2438.78209375403
0.235045398610377,2438.79209375403
0.22353376300082,2438.80209375403
0.211838462197139,2438.81209375403
0.19970353080528,2438.82209375403
0.18774910171291,2438.83209375403
0.175508637531575,2438.84209375403
0.163569263357567,2438.85209375403
0.152235822570176,2438.86209375403
0.141336135547593,2438.87209375403
0.130579255694081,2438.88209375403
0.120040586835011,2438.89209375403
0.109755392092797,2438.90209375403
0.100146357468642,2438.91209375403
0.0908790298061012,2438.92209375403
0.0817850197529081,2438.93209375403
0.0727099476371967,2438.94209375403
0.0629463347214861,2438.95209375403
0.0529666083560367,2438.96209375403
0.0425854299630759,2438.97209375403
0.0320409588952792,2438.98209375403
0.0214869269011008,2438.99209375403
0.0114167798764854,2439.00209375403
0.00233694814458774,2439.01209375403
-0.00360677939796194,2439.02209375403
-0.00494217948725277,2439.03209375403
0.000987509292281335,2439.04209375403
0.0172483885267145,2439.05209375403
0.0451846022924034,2439.06209375403
0.0858299007366634,2439.07209375403
0.138130233008789,2439.08209375403
0.200738441568792,2439.09209375403
0.270280267105055,2439.10209375403
0.342291944632541,2439.11209375403
0.412721117809352,2439.12209375403
0.478113005713765,2439.13209375403
0.535623018816375,2439.14209375403
0.58418743407725,2439.15209375403
0.622749071464227,2439.16209375403
0.65215978176052,2439.17209375403
0.672912769442424,2439.18209375403
0.686958764823717,2439.19209375403
0.694959557855339,2439.20209375403
0.699124854312251,2439.21209375403
0.699807474462791,2439.22209375403
0.699309121408137,2439.23209375403
0.698798815178535,2439.24209375403
0.698701261080259,2439.25209375403
0.699676942816661,2439.26209375403
0.701656363467053,2439.27209375403
0.704992171975416,2439.28209375403
0.708864092074717,2439.29209375403
0.711955340029044,2439.30209375403
0.713541271742838,2439.31209375403
0.712934383660362,2439.32209375403
0.710560605028608,2439.33209375403
0.705937508824837,2439.34209375403
0.699161100952647,2439.35209375403
0.691495031878816,2439.36209375403
0.683436942555219,2439.37209375403
0.674940926363244,2439.38209375403
0.667385181464932,2439.39209375403
0.660825159318192,2439.40209375403
0.656170938803243,2439.41209375403
0.653086119915115,2439.42209375403
0.651226200915192,2439.43209375403
0.651030823040279,2439.44209375403
0.651298107796238,2439.45209375403
0.651647023574567,2439.46209375403
0.652547943869833,2439.47209375403
0.653154313224326,2439.48209375403
0.652677004947573,2439.49209375403
0.650746486542165,2439.50209375403
0.646565687929209,2439.51209375403
0.640562218064123,2439.52209375403
0.63232680588397,2439.53209375403
0.622526614606545,2439.54209375403
0.611550526921465,2439.55209375403
0.599222926534067,2439.56209375403
0.586342811196434,2439.57209375403
0.572484847026773,2439.58209375403
0.559108861677726,2439.59209375403
0.545724532282823,2439.60209375403
0.531958431627759,2439.61209375403
0.518326454458495,2439.62209375403
0.504115793662288,2439.63209375403
0.489182805014271,2439.64209375403
0.47408866000139,2439.65209375403
0.458634978098767,2439.66209375403
0.442788748843697,2439.67209375403
0.427653602872154,2439.68209375403
0.413046498956597,2439.69209375403
0.398939636183061,2439.70209375403
0.384918249783936,2439.71209375403
0.37073659586362,2439.72209375403
0.356083622671471,2439.73209375403
0.341403233119136,2439.74209375403
0.327194855850919,2439.75209375403
0.313670566097703,2439.76209375403
0.300596325045701,2439.77209375403
0.28815072331016,2439.78209375403
0.275530800006729,2439.79209375403
0.26231365368894,2439.80209375403
0.24950541775406,2439.81209375403
0.236818983872215,2439.82209375403
0.224280252508473,2439.83209375403
0.211920967562402,2439.84209375403
0.200117863501,2439.85209375403
0.188438189894618,2439.86209375403
0.177173266430103,2439.87209375403
0.165405712171465,2439.88209375403
0.153556202495304,2439.89209375403
0.141894323236712,2439.90209375403
0.129646035351348,2439.91209375403
0.117704281152007,2439.92209375403
0.105685567741057,2439.93209375403
0.0939655881065769,2439.94209375403
0.0825713845736291,2439.95209375403
0.0707599114881541,2439.96209375403
0.0590869786162069,2439.97209375403
0.0474381206031605,2439.98209375403
0.0364149238623041,2439.99209375403
0.025378654693451,2440.00209375403
0.0142141909041647,2440.01209375403
0.00243492511622831,2440.02209375403
-0.00983281721897241,2440.03209375403
-0.0221701299047721,2440.04209375403
-0.0346574292768065,2440.05209375403
-0.0459100780389719,2440.06209375403
-0.0541687261030943,2440.07209375403
-0.0570727742157842,2440.08209375403
-0.0515653643782375,2440.09209375403
-0.0347418003971833,2440.10209375403
-0.00624064131220689,2440.11209375403
0.0355551503064498,2440.12209375403
0.0890246373423131,2440.13209375403
0.153462562096177,2440.14209375403
0.226137308251407,2440.15209375403
0.302844053501592,2440.16209375403
0.379481367282646,2440.17209375403
0.452023752571741,2440.18209375403
0.517728875663979,2440.19209375403
0.574401990406881,2440.20209375403
0.619569861906158,2440.21209375403
0.65437755922662,2440.22209375403
0.679403281150167,2440.23209375403
0.695854855750071,2440.24209375403
0.706588497757586,2440.25209375403
0.713025246983016,2440.26209375403
0.716514116649019,2440.27209375403
0.718597774857334,2440.28209375403
0.719726997755056,2440.29209375403
0.720793823674768,2440.30209375403
0.722454423040511,2440.31209375403
0.725234236786327,2440.32209375403
0.729804059147796,2440.33209375403
0.735166727115657,2440.34209375403
0.740857543474397,2440.35209375403
0.74524806764714,2440.36209375403
0.747215189968305,2440.37209375403
0.74603765537646,2440.38209375403
0.741319258389303,2440.39209375403
0.733732542420319,2440.40209375403
0.724260675302561,2440.41209375403
0.713036451015318,2440.42209375403
0.701947878456173,2440.43209375403
0.691397893476264,2440.44209375403
0.682308201663679,2440.45209375403
0.675102017086933,2440.46209375403
0.670268542530723,2440.47209375403
0.667867435168724,2440.48209375403
0.667232242365779,2440.49209375403
0.667714579458259,2440.50209375403
0.668161900447999,2440.51209375403
0.669176404753705,2440.52209375403
0.669621224393948,2440.53209375403
0.669026268821186,2440.54209375403
0.667277899154704,2440.55209375403
0.664633932138972,2440.56209375403
0.659970891233657,2440.57209375403
0.653912067314208,2440.58209375403
0.646074093509618,2440.59209375403
0.637040683333712,2440.60209375403
0.627154233880043,2440.61209375403
0.616512088277333,2440.62209375403
0.605315930227133,2440.63209375403
0.592593028798639,2440.64209375403
0.578971184809288,2440.65209375403
0.564489783169038,2440.66209375403
0.549632624198746,2440.67209375403
0.533300435517121,2440.68209375403
0.516618586880553,2440.69209375403
0.499997413632532,2440.70209375403
0.483981873675709,2440.71209375403
0.468255010319234,2440.72209375403
0.452520850410875,2440.73209375403
0.437715624383026,2440.74209375403
0.42262965405024,2440.75209375403
0.407733074900037,2440.76209375403
0.392542742967253,2440.77209375403
0.376997525241375,2440.78209375403
0.361657460042173,2440.79209375403
0.34649171421555,2440.80209375403
0.332123918291323,2440.81209375403
0.318023717279403,2440.82209375403
0.304151176865473,2440.83209375403
0.290607752062232,2440.84209375403
0.276976421464572,2440.85209375403
0.263837965722284,2440.86209375403
0.25092229158227,2440.87209375403
0.238000989086877,2440.88209375403
0.224741298429229,2440.89209375403
0.210930103071412,2440.90209375403
0.197467706088786,2440.91209375403
0.183831590829365,2440.92209375403
0.170718293724877,2440.93209375403
0.157700960511962,2440.94209375403
0.14507731643422,2440.95209375403
0.132387037101997,2440.96209375403
0.120007095750834,2440.97209375403
0.107870190525473,2440.98209375403
0.0960212833009048,2440.99209375403
0.0840241594467857,2441.00209375403
0.0721111923599985,2441.01209375403
0.0597850308835677,2441.02209375403
0.0471537947572956,2441.03209375403
0.0344350530513926,2441.04209375403
0.0215310296888104,2441.05209375403
0.00841226020743699,2441.06209375403
-0.00473210300298393,2441.07209375403
-0.0171672612851999,2441.08209375403
-0.0280271106224662,2441.09209375403
-0.035321803212445,2441.10209375403
-0.0349453814540169,2441.11209375403
-0.0245965285637939,2441.12209375403
-0.00199641696342358,2441.13209375403
0.0337701929429223,2441.14209375403
0.0829852170510222,2441.15209375403
0.143566473175806,2441.16209375403
0.214003659633592,2441.17209375403
0.291290500918645,2441.18209375403
0.370244498901573,2441.19209375403
0.447019122361139,2441.20209375403
0.517582080730922,2441.21209375403
0.577901063971542,2441.22209375403
0.626682688878932,2441.23209375403
0.663176230526973,2441.24209375403
0.689201236574974,2441.25209375403
0.70604039939471,2441.26209375403
0.7154197948982,2441.27209375403
0.718881456196436,2441.28209375403
0.718082799147983,2441.29209375403
0.715182499120567,2441.30209375403
0.71212897517311,2441.31209375403
0.709522126371631,2441.32209375403
0.708333427905014,2441.33209375403
0.708882461177297,2441.34209375403
0.711021912614406,2441.35209375403
0.713430855565904,2441.36209375403
0.714814775187011,2441.37209375403
0.714444030324516,2441.38209375403
0.711817327072632,2441.39209375403
0.706368269869132,2441.40209375403
0.698137739882443,2441.41209375403
0.687903993543641,2441.42209375403
0.675770501616463,2441.43209375403
0.662848243198103,2441.44209375403
0.65016737960207,2441.45209375403
0.639136659575478,2441.46209375403
0.630121921101524,2441.47209375403
0.623492996152101,2441.48209375403
0.620052424685619,2441.49209375403
0.618971573433598,2441.50209375403
0.620213978851835,2441.51209375403
0.623553114632439,2441.52209375403
0.627925695010699,2441.53209375403
0.632995152307235,2441.54209375403
0.637241259711031,2441.55209375403
0.639709312228474,2441.56209375403
0.639929192224117,2441.57209375403
0.637949464097436,2441.58209375403
0.633933621054512,2441.59209375403
0.628023056572045,2441.60209375403
0.62061615524002,2441.61209375403
0.611813660070271,2441.62209375403
0.602089806477236,2441.63209375403
0.591398783507262,2441.64209375403
0.580089754355705,2441.65209375403
0.568209478963075,2441.66209375403
0.555400916485016,2441.67209375403
0.542045002898744,2441.68209375403
0.52771291203895,2441.69209375403
0.5129964865508,2441.70209375403
0.497651638336465,2441.71209375403
0.481553033713128,2441.72209375403
0.465358238318562,2441.73209375403
0.448907573080603,2441.74209375403
0.432613235942045,2441.75209375403
0.416922491364678,2441.76209375403
0.401805517434423,2441.77209375403
0.387727716370634,2441.78209375403
0.373707790562712,2441.79209375403
0.360039383769741,2441.80209375403
0.346559548102675,2441.81209375403
0.332779395553097,2441.82209375403
0.319596088298054,2441.83209375403
0.306033588521752,2441.84209375403
0.292360520994604,2441.85209375403
0.278777182898621,2441.86209375403
0.265577107456611,2441.87209375403
0.252769717464015,2441.88209375403
0.240106889054197,2441.89209375403
0.228209224219968,2441.90209375403
0.21669482929609,2441.91209375403
0.20603107504923,2441.92209375403
0.19537646962219,2441.93209375403
0.184676439217462,2441.94209375403
0.173774565782232,2441.95209375403
0.162594273602277,2441.96209375403
0.151150230989138,2441.97209375403
0.139342076281857,2441.98209375403
0.127620273357701,2441.99209375403
0.115670870237236,2442.00209375403
0.10407217478326,2442.01209375403
0.0939496683842426,2442.02209375403
0.0874284630200095,2442.03209375403
0.0870889981144382,2442.04209375403
0.0966077273528445,2442.05209375403
0.118401341627121,2442.06209375403
0.155175903019959,2442.07209375403
0.206488812350262,2442.08209375403
0.27139176649244,2442.09209375403
0.346423501519517,2442.10209375403
0.427420998373043,2442.11209375403
0.510271123688506,2442.12209375403
0.58863240265958,2442.13209375403
0.65988607095904,2442.14209375403
0.720251107954091,2442.15209375403
0.768940353167057,2442.16209375403
0.805949607708824,2442.17209375403
0.831680653561512,2442.18209375403
0.848330091990445,2442.19209375403
0.857013024918191,2442.20209375403
0.861037247600972,2442.21209375403
0.861794485249987,2442.22209375403
0.860923823036802,2442.23209375403
0.859379195517984,2442.24209375403
0.858123595811407,2442.25209375403
0.857935807604948,2442.26209375403
0.858597695835885,2442.27209375403
0.860275608644918,2442.28209375403
0.861310157994021,2442.29209375403
0.861639059083896,2442.30209375403
0.859444379234084,2442.31209375403
0.854734603304648,2442.32209375403
0.84619930624757,2442.33209375403
0.834962241034819,2442.34209375403
0.821302181257649,2442.35209375403
0.80655101662584,2442.36209375403
0.792153557857244,2442.37209375403
0.778600594505529,2442.38209375403
0.766760554029902,2442.39209375403
0.75728540641351,2442.40209375403
0.751022685225371,2442.41209375403
0.747518431689267,2442.42209375403
0.746171129896327,2442.43209375403
0.746206993815159,2442.44209375403
0.747107915915938,2442.45209375403
0.748278325070925,2442.46209375403
0.74909362300444,2442.47209375403
0.74933492043751,2442.48209375403
0.748761273039765,2442.49209375403
0.747095463663353,2442.50209375403
0.744775718854859,2442.51209375403
0.740577240759041,2442.52209375403
0.734509034487483,2442.53209375403
0.725811487588169,2442.54209375403
0.71501901586611,2442.55209375403
0.702698367846769,2442.56209375403
0.689314472782832,2442.57209375403
0.674734013138647,2442.58209375403
0.659674922220437,2442.59209375403
0.643298815725681,2442.60209375403
0.625681433730214,2442.61209375403
0.607530654937932,2442.62209375403
0.588882537479887,2442.63209375403
0.569481836326324,2442.64209375403
0.550367143256987,2442.65209375403
0.531482346116099,2442.66209375403
0.513340070989055,2442.67209375403
0.495478945851239,2442.68209375403
0.478253597113952,2442.69209375403
0.461313317239012,2442.70209375403
0.444020383923802,2442.71209375403
0.427443413309687,2442.72209375403
0.410513300435766,2442.73209375403
0.394439048415673,2442.74209375403
0.378885580498434,2442.75209375403
0.363582032102921,2442.76209375403
0.3483589481973,2442.77209375403
0.333455842655284,2442.78209375403
0.318637904253382,2442.79209375403
0.304010390559117,2442.80209375403
0.290232689637058,2442.81209375403
0.276867707160507,2442.82209375403
0.263705196964207,2442.83209375403
0.250050744010005,2442.84209375403
0.23600848436531,2442.85209375403
0.222046353423504,2442.86209375403
0.207480835443345,2442.87209375403
0.193103969583656,2442.88209375403
0.178755607192273,2442.89209375403
0.164312797775894,2442.90209375403
0.149949310092998,2442.91209375403
0.136227208690726,2442.92209375403
0.122755891588478,2442.93209375403
0.109660491801079,2442.94209375403
0.0963146156405365,2442.95209375403
0.0823142901199395,2442.96209375403
0.0682805635534347,2442.97209375403
0.0555819981670012,2442.98209375403
0.0474651438895816,2442.99209375403
0.0468017260214655,2443.00209375403
0.0573098656485296,2443.01209375403
0.0818465750317964,2443.02209375403
0.121414184656942,2443.03209375403
0.176793019577603,2443.04209375403
0.245602153702519,2443.05209375403
0.324500855916037,2443.06209375403
0.409890418617949,2443.07209375403
0.495914081044554,2443.08209375403
0.578292711203121,2443.09209375403
0.653293758368509,2443.10209375403
0.71747284230434,2443.11209375403
0.769236551560807,2443.12209375403
0.808431167387524,2443.13209375403
0.835458059103756,2443.14209375403
0.852813378243666,2443.15209375403
0.862174928378729,2443.16209375403
0.865937471108638,2443.17209375403
0.866262394351733,2443.18209375403
0.865078992972701,2443.19209375403
0.863592874725199,2443.20209375403
0.863116581401289,2443.21209375403
0.86438166025801,2443.22209375403
0.866092332944937,2443.23209375403
0.868556575268024,2443.24209375403
0.870767615208616,2443.25209375403
0.872256016378432,2443.26209375403
0.871487991766956,2443.27209375403
0.8668669694416,2443.28209375403
0.858990551420271,2443.29209375403
0.84684183951488,2443.30209375403
0.832122075579715,2443.31209375403
0.816363851413009,2443.32209375403
0.801080140509381,2443.33209375403
0.78754954574535,2443.34209375403
0.776278934475167,2443.35209375403
0.767301028252885,2443.36209375403
0.761234639298864,2443.37209375403
0.757961355892356,2443.38209375403
0.756186526527946,2443.39209375403
0.756748093601419,2443.40209375403
0.758516376137627,2443.41209375403
0.761801142410436,2443.42209375403
0.764964961924392,2443.43209375403
0.767706509711877,2443.44209375403
0.768884310028789,2443.45209375403
0.767740799494947,2443.46209375403
0.764247637082404,2443.47209375403
0.757351106432789,2443.48209375403
0.748442831669059,2443.49209375403
0.737817900187453,2443.50209375403
0.72557530572834,2443.51209375403
0.712402751441002,2443.52209375403
0.697958747655768,2443.53209375403
0.682484125537499,2443.54209375403
0.666439591516794,2443.55209375403
0.649104827163317,2443.56209375403
0.630604234071773,2443.57209375403
0.611552749858893,2443.58209375403
0.591633660836895,2443.59209375403
0.571734474631343,2443.60209375403
0.551927561957819,2443.61209375403
0.53237168337384,2443.62209375403
0.512948418725428,2443.63209375403
0.494043188386246,2443.64209375403
0.475057295732349,2443.65209375403
0.455985441179967,2443.66209375403
0.438057814422611,2443.67209375403
0.420489153912317,2443.68209375403
0.403801420114089,2443.69209375403
0.387386001514285,2443.70209375403
0.371571104998742,2443.71209375403
0.355602305316967,2443.72209375403
0.339305637718431,2443.73209375403
0.322641986973842,2443.74209375403
0.305640845455585,2443.75209375403
0.28864060794384,2443.76209375403
0.271250537573323,2443.77209375403
0.254696551626291,2443.78209375403
0.238306447670642,2443.79209375403
0.222129107681048,2443.80209375403
0.205939751049836,2443.81209375403
0.189565256362167,2443.82209375403
0.173613881111971,2443.83209375403
0.157645915195069,2443.84209375403
0.14123638651826,2443.85209375403
0.125074298432971,2443.86209375403
0.109641295010829,2443.87209375403
0.0945283430017119,2443.88209375403
0.0800090774153989,2443.89209375403
0.0656529409579405,2443.90209375403
0.0504242344022112,2443.91209375403
0.03452414741797,2443.92209375403
0.0191002858446007,2443.93209375403
0.00467492260134153,2443.94209375403
-0.00555846980057254,2443.95209375403
-0.00934822984042559,2443.96209375403
-0.0030952380097315,2443.97209375403
0.0160426713843195,2443.98209375403
0.0501961059718668,2443.99209375403
0.0989144674603431,2444.00209375403
0.161652544436454,2444.01209375403
0.235060592320727,2444.02209375403
0.314764612734602,2444.03209375403
0.396064175421477,2444.04209375403
0.473257855612092,2444.05209375403
0.542131724844632,2444.06209375403
0.599895229067465,2444.07209375403
0.645125362446101,2444.08209375403
0.677653672736848,2444.09209375403
0.698997333662745,2444.10209375403
0.712030395416229,2444.11209375403
0.718399592031337,2444.12209375403
0.719498944418721,2444.13209375403
0.717975891234426,2444.14209375403
0.7149481720357,2444.15209375403
0.711888836517706,2444.16209375403
0.709156851382545,2444.17209375403
0.707049724788944,2444.18209375403
0.705411029177124,2444.19209375403
0.704469124337356,2444.20209375403
0.702745032349895,2444.21209375403
0.70044961946771,2444.22209375403
0.695975301690198,2444.23209375403
0.688529914066066,2444.24209375403
0.678304532824056,2444.25209375403
0.665194249440929,2444.26209375403
0.650090704094783,2444.27209375403
0.634191248005857,2444.28209375403
0.618782476827931,2444.29209375403
0.604762981962478,2444.30209375403
0.593115233809646,2444.31209375403
0.584672440841964,2444.32209375403
0.579050731453486,2444.33209375403
0.576786605536125,2444.34209375403
0.576857091797835,2444.35209375403
0.578957441220678,2444.36209375403
0.581691824982521,2444.37209375403
0.583999771121147,2444.38209375403
0.585904997825788,2444.39209375403
0.585787047865936,2444.40209375403
0.583790280675415,2444.41209375403
0.579723750239811,2444.42209375403
0.574380748600698,2444.43209375403
0.566535659376275,2444.44209375403
0.557229512155787,2444.45209375403
0.546003788039686,2444.46209375403
0.53375776208668,2444.47209375403
0.520516471619227,2444.48209375403
0.506327001253937,2444.49209375403
0.490867674527809,2444.50209375403
0.474470536635889,2444.51209375403
0.457509072268192,2444.52209375403
0.440190816493689,2444.53209375403
0.422335976676004,2444.54209375403
0.40507545713617,2444.55209375403
0.387756363097452,2444.56209375403
0.370192482805483,2444.57209375403
0.352834687267783,2444.58209375403
0.335256377483073,2444.59209375403
0.318024225546027,2444.60209375403
0.301080555488362,2444.61209375403
0.285130942691342,2444.62209375403
0.270417819808979,2444.63209375403
0.256430843820303,2444.64209375403
0.243038216056211,2444.65209375403
0.229073925293913,2444.66209375403
0.215120349738242,2444.67209375403
0.201158783779953,2444.68209375403
0.18681283327335,2444.69209375403
0.172376064484716,2444.70209375403
0.158610882240322,2444.71209375403
0.144668718236425,2444.72209375403
0.130782620425984,2444.73209375403
0.116943582054764,2444.74209375403
0.103103070343341,2444.75209375403
0.0895727297432205,2444.76209375403
0.076402134414335,2444.77209375403
0.0634299439730464,2444.78209375403
0.0510510715090537,2444.79209375403
0.0380997106083237,2444.80209375403
0.0256058690187622,2444.81209375403
0.0123521187170528,2444.82209375403
-0.00117615821957286,2444.83209375403
-0.0149172625933741,2444.84209375403
-0.0272982671171455,2444.85209375403
-0.0355843059292385,2444.86209375403
-0.0368312056128842,2444.87209375403
-0.0267599070703304,2444.88209375403
-0.00377936757297043,2444.89209375403
0.0340672925363826,2444.90209375403
0.085893100045088,2444.91209375403
0.149407235433627,2444.92209375403
0.221817755388975,2444.93209375403
0.297470687863028,2444.94209375403
0.372052740116879,2444.95209375403
0.440905547211524,2444.96209375403
0.500823866918136,2444.97209375403
0.549844992702523,2444.98209375403
0.587473189671865,2444.99209375403
0.613950412863504,2445.00209375403
0.630331734253911,2445.01209375403
0.638803064538881,2445.02209375403
0.6420456864588,2445.03209375403
0.64171758570998,2445.04209375403
0.639895962683331,2445.05209375403
0.637968695073399,2445.06209375403
0.637037834115565,2445.07209375403
0.637068140768186,2445.08209375403
0.637530464840824,2445.09209375403
0.638807809963565,2445.10209375403
0.640053253578615,2445.11209375403
0.639649830708338,2445.12209375403
0.637054113076862,2445.13209375403
0.630803945391906,2445.14209375403
0.619943377341592,2445.15209375403
0.605965655400874,2445.16209375403
0.590141618058608,2445.17209375403
0.573394968689931,2445.18209375403
0.557634674586468,2445.19209375403
0.545021476949338,2445.20209375403
0.535164379197103,2445.21209375403
0.52833772017623,2445.22209375403
0.524081146047366,2445.23209375403
0.521737383526379,2445.24209375403
0.521281610838614,2445.25209375403
0.522252957812325,2445.26209375403
0.524020690524123,2445.27209375403
0.5256035773228,2445.28209375403
0.526449286233597,2445.29209375403
0.526173956221305,2445.30209375403
0.524295268419392,2445.31209375403
0.520315152164457,2445.32209375403
0.514561224104086,2445.33209375403
0.506299846607134,2445.34209375403
0.496037791730404,2445.35209375403
0.484592661457025,2445.36209375403
0.471718612704016,2445.37209375403
0.457990017304561,2445.38209375403
0.44366931040372,2445.39209375403
0.428953817541745,2445.40209375403
0.414121914386574,2445.41209375403
0.398876045810923,2445.42209375403
0.38302724783873,2445.43209375403
0.36731005290256,2445.44209375403
0.350677666476975,2445.45209375403
0.333931122063159,2445.46209375403
0.316838436719095,2445.47209375403
0.299838473324046,2445.48209375403
0.283137275613008,2445.49209375403
0.266775696331229,2445.50209375403
0.250788798888574,2445.51209375403
0.234576119119216,2445.52209375403
0.218198600710997,2445.53209375403
0.201547921402265,2445.54209375403
0.185363447441504,2445.55209375403
0.169416096490748,2445.56209375403
0.154065867991097,2445.57209375403
0.138825404633486,2445.58209375403
0.123550775994164,2445.59209375403
0.108721051706065,2445.60209375403
0.0941746080642419,2445.61209375403
0.0794045097191485,2445.62209375403
0.063921169408993,2445.63209375403
0.0483684448555177,2445.64209375403
0.0321973439939044,2445.65209375403
0.0157035992898123,2445.66209375403
-0.000436370141800371,2445.67209375403
-0.0160792550614118,2445.68209375403
-0.0309208493857331,2445.69209375403
-0.0452867294625257,2445.70209375403
-0.0590143335636878,2445.71209375403
-0.072314204022147,2445.72209375403
-0.0863641329145383,2445.73209375403
-0.0997569011015211,2445.74209375403
-0.113247596052774,2445.75209375403
-0.126649859703869,2445.76209375403
-0.140345698132033,2445.77209375403
-0.153732234294318,2445.78209375403
-0.166751288544468,2445.79209375403
-0.179778562971671,2445.80209375403
-0.193746566581969,2445.81209375403
-0.207207327815601,2445.82209375403
-0.220891879507714,2445.83209375403
-0.234109526003261,2445.84209375403
-0.246957511270559,2445.85209375403
-0.258499940823911,2445.86209375403
-0.26596385274574,2445.87209375403
-0.266120748353102,2445.88209375403
-0.25560053966903,2445.89209375403
-0.232105127243149,2445.90209375403
-0.19382310639782,2445.91209375403
-0.141957635782813,2445.92209375403
-0.0775355628819356,2445.93209375403
-0.00374915217959527,2445.94209375403
0.0744545929290003,2445.95209375403
0.152385562484281,2445.96209375403
0.225455862628344,2445.97209375403
0.289838304640065,2445.98209375403
0.343416773083742,2445.99209375403
0.385812358247515,2446.00209375403
0.416826526082234,2446.01209375403
0.438831694852126,2446.02209375403
0.453496728761158,2446.03209375403
0.462492647393547,2446.04209375403
0.467879576267845,2446.05209375403
0.471567867876737,2446.06209375403
0.474907716170268,2446.07209375403
0.479075983003974,2446.08209375403
0.484261913544297,2446.09209375403
0.490593147984976,2446.10209375403
0.496593820284704,2446.11209375403
0.501858441835952,2446.12209375403
0.505637448590491,2446.13209375403
0.507680133816452,2446.14209375403
0.507025813409328,2446.15209375403
0.502995065702134,2446.16209375403
0.495533768269011,2446.17209375403
0.484693450499238,2446.18209375403
0.471905284546152,2446.19209375403
0.458319011938043,2446.20209375403
0.44478426307658,2446.21209375403
0.432799335829679,2446.22209375403
0.422645466347905,2446.23209375403
0.414842250635559,2446.24209375403
0.409840673629065,2446.25209375403
0.406917730119314,2446.26209375403
0.406195957090968,2446.27209375403
0.407553492598682,2446.28209375403
0.409846245056371,2446.29209375403
0.413132538253354,2446.30209375403
0.415525062679243,2446.31209375403
0.416295523688594,2446.32209375403
0.415178409531543,2446.33209375403
0.412476738667532,2446.34209375403
0.40748104116296,2446.35209375403
0.400957080024578,2446.36209375403
0.392986566492806,2446.37209375403
0.383300416459182,2446.38209375403
0.372615141544731,2446.39209375403
0.360499589404652,2446.40209375403
0.347054072147632,2446.41209375403
0.333241719493985,2446.42209375403
0.319056644604189,2446.43209375403
0.303892029264862,2446.44209375403
0.288672801065732,2446.45209375403
0.273103043399787,2446.46209375403
0.257553312573421,2446.47209375403
0.241122415636653,2446.48209375403
0.224411089825443,2446.49209375403
0.207984922574725,2446.50209375403
0.191383292255697,2446.51209375403
0.175206170435134,2446.52209375403
0.159150869610827,2446.53209375403
0.143072964436631,2446.54209375403
0.127632554831197,2446.55209375403
0.112621744487532,2446.56209375403
0.0983483301119616,2446.57209375403
0.0840318308969973,2446.58209375403
0.0698188924790762,2446.59209375403
0.0552211103403392,2446.60209375403
0.0406478784397042,2446.61209375403
0.0262216712048252,2446.62209375403
0.0114997466811424,2446.63209375403
-0.0038170368217028,2446.64209375403
-0.0193855779591749,2446.65209375403
-0.0354607122593435,2446.66209375403
-0.0506372085084232,2446.67209375403
-0.0659337051441113,2446.68209375403
-0.0813455703779622,2446.69209375403
-0.0962451548466326,2446.70209375403
-0.110401473709623,2446.71209375403
-0.124441389006137,2446.72209375403
-0.137951672921796,2446.73209375403
-0.150965340657961,2446.74209375403
-0.163559486694566,2446.75209375403
-0.175927504989763,2446.76209375403
-0.188770527189629,2446.77209375403
-0.202145999146137,2446.78209375403
-0.216232617564749,2446.79209375403
-0.230638831218576,2446.80209375403
-0.245678635238056,2446.81209375403
-0.260343881303334,2446.82209375403
-0.274300130415734,2446.83209375403
-0.287868955084286,2446.84209375403
-0.300664988858244,2446.85209375403
-0.313788431134504,2446.86209375403
-0.327033921881453,2446.87209375403
-0.340564227782407,2446.88209375403
-0.354701322113153,2446.89209375403
-0.36858777399328,2446.90209375403
-0.382573746060825,2446.91209375403
-0.396871184509356,2446.92209375403
-0.410576792997566,2446.93209375403
-0.422532822896543,2446.94209375403
-0.430008112414181,2446.95209375403
-0.429667742150698,2446.96209375403
-0.418414198965552,2446.97209375403
-0.393535853453814,2446.98209375403
-0.35366269596972,2446.99209375403
-0.299316430734655,2447.00209375403
-0.231689812090905,2447.01209375403
-0.155642382414562,2447.02209375403
-0.0753063697667036,2447.03209375403
0.00390445820394343,2447.04209375403
0.0771672524184935,2447.05209375403
0.141282512433184,2447.06209375403
0.194991483293423,2447.07209375403
0.237179179278296,2447.08209375403
0.268064224803104,2447.09209375403
0.289061899041839,2447.10209375403
0.30126611334602,2447.11209375403
0.307840825058815,2447.12209375403
0.310118688548659,2447.13209375403
0.310066851198993,2447.14209375403
0.309820619634988,2447.15209375403
0.310999111874568,2447.16209375403
0.314185562479333,2447.17209375403
0.319434529391787,2447.18209375403
0.325725515152345,2447.19209375403
0.331783469742225,2447.20209375403
0.336832729398819,2447.21209375403
0.339485759996742,2447.22209375403
0.339462817979587,2447.23209375403
0.335376584001851,2447.24209375403
0.327866754524885,2447.25209375403
0.317053824551797,2447.26209375403
0.303848413759522,2447.27209375403
0.290273032062291,2447.28209375403
0.277081465268568,2447.29209375403
0.266158644167487,2447.30209375403
0.258192237534947,2447.31209375403
0.253401221609701,2447.32209375403
0.251038686831235,2447.33209375403
0.251137298660166,2447.34209375403
0.253412710354463,2447.35209375403
0.257128658212167,2447.36209375403
0.261276251485288,2447.37209375403
0.265198997619908,2447.38209375403
0.268316608663711,2447.39209375403
0.269735974593765,2447.40209375403
0.269637136154531,2447.41209375403
0.267922102108532,2447.42209375403
0.26475891270024,2447.43209375403
0.259772607764935,2447.44209375403
0.252649439422063,2447.45209375403
0.243813661422478,2447.46209375403
0.233952521691597,2447.47209375403
0.223246679866887,2447.48209375403
0.211863104574321,2447.49209375403
0.199324662830214,2447.50209375403
0.186227837375889,2447.51209375403
0.172012926069572,2447.52209375403
0.157689951008945,2447.53209375403
0.143427830286778,2447.54209375403
0.128656317515367,2447.55209375403
0.114172556957289,2447.56209375403
0.0989678553648134,2447.57209375403
0.0835603039404464,2447.58209375403
0.0675238434092795,2447.59209375403
0.0516123742028555,2447.60209375403
0.0360073988583697,2447.61209375403
0.021463914977934,2447.62209375403
0.00730252298387269,2447.63209375403
-0.00556057286810231,2447.64209375403
-0.0179954143602685,2447.65209375403
-0.0303950948517526,2447.66209375403
-0.0426881394306585,2447.67209375403
-0.055024175671458,2447.68209375403
-0.0674286802267755,2447.69209375403
-0.0800833770458856,2447.70209375403
-0.0924467032371651,2447.71209375403
-0.104056697085998,2447.72209375403
-0.115674196207772,2447.73209375403
-0.127226238094067,2447.74209375403
-0.138809914212561,2447.75209375403
-0.150922336947235,2447.76209375403
-0.163894116265629,2447.77209375403
-0.177080853894808,2447.78209375403
-0.190358104648157,2447.79209375403
-0.20411205634218,2447.80209375403
-0.217217896565751,2447.81209375403
-0.230104983193541,2447.82209375403
-0.24287374563986,2447.83209375403
-0.255166681243426,2447.84209375403
-0.266602268338054,2447.85209375403
-0.277594972337485,2447.86209375403
-0.288550151450821,2447.87209375403
-0.299585363870493,2447.88209375403
-0.310209426486517,2447.89209375403
-0.321497279748586,2447.90209375403
-0.332493482356701,2447.91209375403
-0.344075858332041,2447.92209375403
-0.356066490544431,2447.93209375403
-0.36780848777228,2447.94209375403
-0.379790007165142,2447.95209375403
-0.391116699971669,2447.96209375403
-0.401275421070889,2447.97209375403
-0.408327873368846,2447.98209375403
-0.408998098442533,2447.99209375403
-0.400294605457792,2448.00209375403
-0.379241395579461,2448.01209375403
-0.343873374161343,2448.02209375403
-0.293574844396644,2448.03209375403
-0.229934029188814,2448.04209375403
-0.156656975896593,2448.05209375403
-0.0776634467169058,2448.06209375403
0.00213377507173685,2448.07209375403
0.0785745219235643,2448.08209375403
0.147316251784601,2448.09209375403
0.206076256564389,2448.10209375403
0.252770748253251,2448.11209375403
0.28774744154682,2448.12209375403
0.312073092244508,2448.13209375403
0.327459362514218,2448.14209375403
0.335972201489832,2448.15209375403
0.339690995220658,2448.16209375403
0.340901375669898,2448.17209375403
0.341306967254032,2448.18209375403
0.34203008194457,2448.19209375403
0.344473727591062,2448.20209375403
0.347938758104432,2448.21209375403
0.352858086152507,2448.22209375403
0.357942434984544,2448.23209375403
0.360903526542135,2448.24209375403
0.362405807155842,2448.25209375403
0.360471426429404,2448.26209375403
0.355250519633906,2448.27209375403
0.346858596016031,2448.28209375403
0.335432030766499,2448.29209375403
0.322309338434707,2448.30209375403
0.309599514798166,2448.31209375403
0.297558885811667,2448.32209375403
0.287730146436327,2448.33209375403
0.280032972051512,2448.34209375403
0.274737044979192,2448.35209375403
0.272274060238792,2448.36209375403
0.272614972291165,2448.37209375403
0.275153214570842,2448.38209375403
0.278526845730093,2448.39209375403
0.283103732103623,2448.40209375403
0.287721507576537,2448.41209375403
0.291713866233688,2448.42209375403
0.294107656610063,2448.43209375403
0.294612065082625,2448.44209375403
0.293298989682835,2448.45209375403
0.289732163327013,2448.46209375403
0.284768830324276,2448.47209375403
0.278369375942754,2448.48209375403
0.270237397406195,2448.49209375403
0.260714471583937,2448.50209375403
0.249794251629985,2448.51209375403
0.237648254685396,2448.52209375403
0.224149068264918,2448.53209375403
0.210240700611442,2448.54209375403
0.195691734678073,2448.55209375403
0.180813208964093,2448.56209375403
0.165356261247192,2448.57209375403
0.148974751895413,2448.58209375403
0.13234193020426,2448.59209375403
0.115812169054137,2448.60209375403
0.0994141071734739,2448.61209375403
0.0833996661708963,2448.62209375403
0.0674723184112349,2448.63209375403
0.0514936415536952,2448.64209375403
0.0359929748520674,2448.65209375403
0.019959275174488,2448.66209375403
0.00401312246614309,2448.67209375403
-0.0115809888836935,2448.68209375403
-0.0268313084627358,2448.69209375403
-0.0418344817300349,2448.70209375403
-0.0566689884726514,2448.71209375403
-0.070899100411274,2448.72209375403
-0.084918387859119,2448.73209375403
-0.0978422808728628,2448.74209375403
-0.110199932718797,2448.75209375403
-0.122866749723108,2448.76209375403
-0.13528146002087,2448.77209375403
-0.148122276786117,2448.78209375403
-0.161209429261714,2448.79209375403
-0.174605453383491,2448.80209375403
-0.18858919475784,2448.81209375403
-0.202490711051381,2448.82209375403
-0.21615675776351,2448.83209375403
-0.229479051300773,2448.84209375403
-0.242743571098873,2448.85209375403
-0.255675906934697,2448.86209375403
-0.2687783323917,2448.87209375403
-0.281678324223605,2448.88209375403
-0.294325136337295,2448.89209375403
-0.306447388188025,2448.90209375403
-0.318167154102861,2448.91209375403
-0.33057655087835,2448.92209375403
-0.343612782702288,2448.93209375403
-0.357165916832833,2448.94209375403
-0.370366519894467,2448.95209375403
-0.383800965221651,2448.96209375403
-0.396539897539207,2448.97209375403
-0.408380736243458,2448.98209375403
-0.420400359034916,2448.99209375403
-0.432973263320756,2449.00209375403
-0.446143421653675,2449.01209375403
-0.459273871832997,2449.02209375403
-0.472911315674733,2449.03209375403
-0.48605840826203,2449.04209375403
-0.498204172849288,2449.05209375403
-0.509793806421992,2449.06209375403
-0.519245856852044,2449.07209375403
-0.523792670386395,2449.08209375403
-0.519708764095191,2449.09209375403
-0.503669359959706,2449.10209375403
-0.473329723962967,2449.11209375403
-0.427282153566406,2449.12209375403
-0.366536962950704,2449.13209375403
-0.293847117926616,2449.14209375403
-0.212568855225789,2449.15209375403
-0.128325038360091,2449.16209375403
-0.0450633762903758,2449.17209375403
0.0333604313444999,2449.18209375403
0.10337717091425,2449.19209375403
0.16187079488732,2449.20209375403
0.208031886928374,2449.21209375403
0.241624794831764,2449.22209375403
0.264466282517422,2449.23209375403
0.278187640758663,2449.24209375403
0.2864627473657,2449.25209375403
0.29103071617808,2449.26209375403
0.293893333830349,2449.27209375403
0.296084976338682,2449.28209375403
0.29843811447215,2449.29209375403
0.302395644371522,2449.30209375403
0.307760388334368,2449.31209375403
0.31512828996549,2449.32209375403
0.322678059374592,2449.33209375403
0.32959508112142,2449.34209375403
0.334634471856176,2449.35209375403
0.336858852522752,2449.36209375403
0.336278419281508,2449.37209375403
0.331719726947508,2449.38209375403
0.324070581608304,2449.39209375403
0.314310622641398,2449.40209375403
0.302484772284871,2449.41209375403
0.290515381158297,2449.42209375403
0.279408846703243,2449.43209375403
0.269393384815807,2449.44209375403
0.26220639257449,2449.45209375403
0.257785718655738,2449.46209375403
0.255922986249413,2449.47209375403
0.256175562074703,2449.48209375403
0.257526975172774,2449.49209375403
0.260142589034231,2449.50209375403
0.263370208810212,2449.51209375403
0.266642236585785,2449.52209375403
0.269636391614866,2449.53209375403
0.271708737848144,2449.54209375403
0.271822903991041,2449.55209375403
0.270089574738999,2449.56209375403
0.266476195428017,2449.57209375403
0.260916956947183,2449.58209375403
0.254001810055127,2449.59209375403
0.245909598477662,2449.60209375403
0.236496168557497,2449.61209375403
0.225644269543521,2449.62209375403
0.21287069650344,2449.63209375403
0.198474652355456,2449.64209375403
0.183091099471703,2449.65209375403
0.167206363158811,2449.66209375403
0.150465009733566,2449.67209375403
0.134098112995615,2449.68209375403
0.117542074988176,2449.69209375403
0.10027953934512,2449.70209375403
0.0837887998794832,2449.71209375403
0.066908759045358,2449.72209375403
0.050025069917157,2449.73209375403
0.0339430667450424,2449.74209375403
0.0182067585011429,2449.75209375403
0.00290733010015739,2449.76209375403
-0.0128353280520489,2449.77209375403
-0.0276489997469138,2449.78209375403
-0.042009823805556,2449.79209375403
-0.0557669993149154,2449.80209375403
-0.0693588733243575,2449.81209375403
-0.082912672767435,2449.82209375403
-0.0964256488849981,2449.83209375403
-0.110408079099562,2449.84209375403
-0.123853739937151,2449.85209375403
-0.137414490573568,2449.86209375403
-0.150940232006671,2449.87209375403
-0.164434841849194,2449.88209375403
-0.178125232888381,2449.89209375403
-0.192189737664992,2449.90209375403
-0.206894437973817,2449.91209375403
-0.221474704166599,2449.92209375403
-0.235620993514172,2449.93209375403
-0.249215348696427,2449.94209375403
-0.262009578231601,2449.95209375403
-0.274629963043248,2449.96209375403
-0.28763676677965,2449.97209375403
-0.301346348412472,2449.98209375403
-0.314640942315252,2449.99209375403
-0.328485598428773,2450.00209375403
-0.342009724502274,2450.01209375403
-0.355082443258081,2450.02209375403
-0.367857825095233,2450.03209375403
-0.38050746042906,2450.04209375403
-0.393912917018245,2450.05209375403
-0.407061092483655,2450.06209375403
-0.419590560408147,2450.07209375403
-0.432254465495415,2450.08209375403
-0.444563888612418,2450.09209375403
-0.456438792947834,2450.10209375403
-0.468997915692802,2450.11209375403
-0.482314788692026,2450.12209375403
-0.495999853235323,2450.13209375403
-0.509340836598593,2450.14209375403
-0.521685197021959,2450.15209375403
-0.531089610044158,2450.16209375403
-0.535653051165197,2450.17209375403
-0.533344228801334,2450.18209375403
-0.521662206845968,2450.19209375403
-0.49780889380161,2450.20209375403
-0.459960589331712,2450.21209375403
-0.408074313426917,2450.22209375403
-0.342660505617201,2450.23209375403
-0.267438786978822,2450.24209375403
-0.186819461932838,2450.25209375403
-0.105999468869744,2450.26209375403
-0.0294047213901648,2450.27209375403
0.0388820693831217,2450.28209375403
0.0969687990085576,2450.29209375403
0.143948958395886,2450.30209375403
0.180355325451404,2450.31209375403
0.205700245354935,2450.32209375403
0.222104370943658,2450.33209375403
0.231465236427682,2450.34209375403
0.236305640779387,2450.35209375403
0.238029933176249,2450.36209375403
0.239960362621528,2450.37209375403
0.241964481921039,2450.38209375403
0.244773493867761,2450.39209375403
0.247973093955076,2450.40209375403
0.251437214941773,2450.41209375403
0.254857000598882,2450.42209375403
0.258509102471437,2450.43209375403
0.261268082608969,2450.44209375403
0.262839142670139,2450.45209375403
0.261860615881864,2450.46209375403
0.257360190774594,2450.47209375403
0.249284421384888,2450.48209375403
0.238564341790027,2450.49209375403
0.226022003222092,2450.50209375403
0.213713817046629,2450.51209375403
0.202625133753493,2450.52209375403
0.192329565179798,2450.53209375403
0.184071729719424,2450.54209375403
0.178723170253552,2450.55209375403
0.176298362899309,2450.56209375403
0.176719684828086,2450.57209375403
0.180056270779279,2450.58209375403
0.185328724895053,2450.59209375403
0.19042055582726,2450.60209375403
0.194427695906338,2450.61209375403
0.19718088165464,2450.62209375403
0.198443478508807,2450.63209375403
0.198459867133261,2450.64209375403
0.19764945691798,2450.65209375403
0.194537125501113,2450.66209375403
0.18896379828597,2450.67209375403
0.180971458069451,2450.68209375403
0.171204722458225,2450.69209375403
0.160294224701089,2450.70209375403
0.147878017778748,2450.71209375403
0.134922336904537,2450.72209375403
0.122133080960264,2450.73209375403
0.108515011881614,2450.74209375403
0.0933956554581623,2450.75209375403
0.0775924587766638,2450.76209375403
0.0602478967545398,2450.77209375403
0.0423571531269935,2450.78209375403
0.0250172473356099,2450.79209375403
0.00800083814311335,2450.80209375403
-0.00866363281124641,2450.81209375403
-0.0255374127350127,2450.82209375403
-0.0420132158501018,2450.83209375403
-0.0588916438791886,2450.84209375403
-0.0754527346018451,2450.85209375403
-0.0923783373214809,2450.86209375403
-0.108610201674981,2450.87209375403
-0.124720509935064,2450.88209375403
-0.141061748652632,2450.89209375403
-0.156580669951945,2450.90209375403
-0.17154570979942,2450.91209375403
-0.18543065111771,2450.92209375403
-0.198576039181259,2450.93209375403
-0.210515271780428,2450.94209375403
-0.222793480590132,2450.95209375403
-0.235827667098899,2450.96209375403
-0.249687052284705,2450.97209375403
-0.264032834501155,2450.98209375403
-0.278098527653107,2450.99209375403
-0.291618368760864,2451.00209375403
-0.304602756225573,2451.01209375403
-0.317571202008149,2451.02209375403
-0.330802710613292,2451.03209375403
-0.343647457638019,2451.04209375403
-0.357132022720888,2451.05209375403
-0.370826742098786,2451.06209375403
-0.38354805114503,2451.07209375403
-0.395445869553397,2451.08209375403
-0.407333319184342,2451.09209375403
-0.419239355453485,2451.10209375403
-0.431915254655884,2451.11209375403
-0.443652623395317,2451.12209375403
-0.455335032120652,2451.13209375403
-0.466417342293721,2451.14209375403
-0.47798184213127,2451.15209375403
-0.490044317956246,2451.16209375403
-0.502568308258319,2451.17209375403
-0.515785909760029,2451.18209375403
-0.528829407431267,2451.19209375403
-0.540034085112771,2451.20209375403
-0.547196654838468,2451.21209375403
-0.547358231379224,2451.22209375403
-0.537988632990592,2451.23209375403
-0.516503652640598,2451.24209375403
-0.481321466575699,2451.25209375403
-0.432881375646765,2451.26209375403
-0.372290696788512,2451.27209375403
-0.301635985690627,2451.28209375403
-0.224601511412963,2451.29209375403
-0.146502783334205,2451.30209375403
-0.0710894655710565,2451.31209375403
-0.00250133508624505,2451.32209375403
0.0559944450811617,2451.33209375403
0.103191936024938,2451.34209375403
0.139831546408432,2451.35209375403
0.16709889879106,2451.36209375403
0.185356185089536,2451.37209375403
0.196423818459844,2451.38209375403
0.202072501437828,2451.39209375403
0.204216813918814,2451.40209375403
0.204150794885288,2451.41209375403
0.20451680588064,2451.42209375403
0.204848417897916,2451.43209375403
0.206549982449124,2451.44209375403
0.208667322501001,2451.45209375403
0.211156875389955,2451.46209375403
0.212512170158919,2451.47209375403
0.211958485435752,2451.48209375403
0.210064607052382,2451.49209375403
0.205054862076192,2451.50209375403
0.197342045353046,2451.51209375403
0.186582653330671,2451.52209375403
0.174932842927056,2451.53209375403
0.163287488047047,2451.54209375403
0.152930152409375,2451.55209375403
0.145461584048444,2451.56209375403
0.141242464924992,2451.57209375403
0.139930493630498,2451.58209375403
0.140977472070583,2451.59209375403
0.14465145245872,2451.60209375403
0.150271290713281,2451.61209375403
0.157876763860208,2451.62209375403
0.166972131046178,2451.63209375403
0.176259617906279,2451.64209375403
0.184566635722073,2451.65209375403
0.190265601785217,2451.66209375403
0.193621862505643,2451.67209375403
0.194473303925809,2451.68209375403
0.19324265142355,2451.69209375403
0.189969142770358,2451.70209375403
0.184757081740489,2451.71209375403
0.178199134335249,2451.72209375403
0.17041942503757,2451.73209375403
0.16143922937545,2451.74209375403
0.151135089927348,2451.75209375403
0.139360694728666,2451.76209375403
0.126457316991989,2451.77209375403
0.113110192092093,2451.78209375403
0.0990580028837829,2451.79209375403
0.0849040420303018,2451.80209375403
0.0711774316790648,2451.81209375403
0.0570195428220316,2451.82209375403
0.0437824162991299,2451.83209375403
0.0312820356886359,2451.84209375403
0.018422954401498,2451.85209375403
0.00455912851305104,2451.86209375403
-0.0101566866512496,2451.87209375403
-0.0249482919285034,2451.88209375403
-0.0400521908309517,2451.89209375403
-0.0538945991377516,2451.90209375403
-0.0667818506124681,2451.91209375403
-0.0802953592452979,2451.92209375403
-0.09456750716718,2451.93209375403
-0.109165494543409,2451.94209375403
-0.123423556643097,2451.95209375403
-0.136973050316369,2451.96209375403
-0.149281341958205,2451.97209375403
-0.160620824569749,2451.98209375403
-0.173026276950249,2451.99209375403
-0.186859561860781,2452.00209375403
-0.20136035699736,2452.01209375403
-0.215723730656221,2452.02209375403
-0.22948844031257,2452.03209375403
-0.240928154161361,2452.04209375403
-0.251221344252164,2452.05209375403
-0.261652304975411,2452.06209375403
-0.272835112087791,2452.07209375403
-0.284932734419151,2452.08209375403
-0.297424344071348,2452.09209375403
-0.310050087696407,2452.10209375403
-0.320714751209968,2452.11209375403
-0.330251135025418,2452.12209375403
-0.340000448592902,2452.13209375403
-0.351288041746927,2452.14209375403
-0.363026416100837,2452.15209375403
-0.375238956252935,2452.16209375403
-0.387749730114538,2452.17209375403
-0.399210101380136,2452.18209375403
-0.409692908776594,2452.19209375403
-0.42009687572225,2452.20209375403
-0.428546333965958,2452.21209375403
-0.43324200023811,2452.22209375403
-0.43032587837092,2452.23209375403
-0.416478274349673,2452.24209375403
-0.388190647467214,2452.25209375403
-0.343968477286101,2452.26209375403
-0.286718822147134,2452.27209375403
-0.218450349192031,2452.28209375403
-0.14295349396702,2452.29209375403
-0.063057582232392,2452.30209375403
0.0160224507695719,2452.31209375403
0.0915415183639662,2452.32209375403
0.160628695786917,2452.33209375403
0.219654398480429,2452.34209375403
0.26658523454917,2452.35209375403
0.302697817830176,2452.36209375403
0.328353448565015,2452.37209375403
0.345694747164984,2452.38209375403
0.358222063814054,2452.39209375403
0.367179838136533,2452.40209375403
0.374135125757821,2452.41209375403
0.379621507984193,2452.42209375403
0.384564015869724,2452.43209375403
0.390257085176172,2452.44209375403
0.395605109733569,2452.45209375403
0.402428489906196,2452.46209375403
0.409606845814218,2452.47209375403
0.415664112295637,2452.48209375403
0.41894459300091,2452.49209375403
0.418826645346379,2452.50209375403
0.414742604936007,2452.51209375403
0.406406357507929,2452.52209375403
0.396900887862167,2452.53209375403
0.386211056813575,2452.54209375403
0.373705502592836,2452.55209375403
0.360856155829799,2452.56209375403
0.348176824329147,2452.57209375403
0.337769392631307,2452.58209375403
0.329989008842275,2452.59209375403
0.326899598347593,2452.60209375403
0.327352704842909,2452.61209375403
0.330154589175809,2452.62209375403
0.333778239575916,2452.63209375403
0.337665207610556,2452.64209375403
0.342423162915963,2452.65209375403
0.345836750797069,2452.66209375403
0.349839212875027,2452.67209375403
0.353274699475696,2452.68209375403
0.353979834422805,2452.69209375403
0.352010672518255,2452.70209375403
0.347335129770633,2452.71209375403
0.341104944021276,2452.72209375403
0.332671845555125,2452.73209375403
0.323865688396188,2452.74209375403
0.314108925810633,2452.75209375403
0.302428390188878,2452.76209375403
0.289369451422845,2452.77209375403
0.274478133805878,2452.78209375403
0.258830328703652,2452.79209375403
0.242556629338023,2452.80209375403
0.226229847127706,2452.81209375403
0.20991704056814,2452.82209375403
0.194127273709389,2452.83209375403
0.179534990739133,2452.84209375403
0.164362017303566,2452.85209375403
0.148365216072788,2452.86209375403
0.131577829902603,2452.87209375403
0.114652340981501,2452.88209375403
0.0974662503066784,2452.89209375403
0.0816414365017963,2452.90209375403
0.0667734670681573,2452.91209375403
0.0515723757577935,2452.92209375403
0.0353334142275496,2452.93209375403
0.018887233394969,2452.94209375403
0.00313581830470462,2452.95209375403
-0.0125768633668302,2452.96209375403
-0.0258393030355771,2452.97209375403
-0.03828598852672,2452.98209375403
-0.0504535679017551,2452.99209375403
-0.063946586338968,2453.00209375403
-0.0784839025721799,2453.01209375403
-0.0938954173505385,2453.02209375403
-0.109169313925539,2453.03209375403
-0.123157385055706,2453.04209375403
-0.135755538628217,2453.05209375403
-0.148643171059102,2453.06209375403
-0.162184216288569,2453.07209375403
-0.176280915995166,2453.08209375403
-0.19059351123368,2453.09209375403
-0.204814355965611,2453.10209375403
-0.217479963649261,2453.11209375403
-0.229422600730948,2453.12209375403
-0.24167695833886,2453.13209375403
-0.254718335698512,2453.14209375403
-0.26804012297417,2453.15209375403
-0.281482770321938,2453.16209375403
-0.294766466963439,2453.17209375403
-0.306285062513764,2453.18209375403
-0.316659076760574,2453.19209375403
-0.327559000500512,2453.20209375403
-0.339591705094101,2453.21209375403
-0.352119148710985,2453.22209375403
-0.365394003897867,2453.23209375403
-0.378689829150806,2453.24209375403
-0.390615378820628,2453.25209375403
-0.399870694042358,2453.26209375403
-0.405414434134457,2453.27209375403
-0.404344477258615,2453.28209375403
-0.39289611803372,2453.29209375403
-0.367490025117032,2453.30209375403
-0.326330530179773,2453.31209375403
-0.268336319209477,2453.32209375403
-0.195921172874045,2453.33209375403
-0.11469988635951,2453.34209375403
-0.0303049084179772,2453.35209375403
0.0533300302051475,2453.36209375403
0.132126631120033,2453.37209375403
0.203403384692292,2453.38209375403
0.266016481501591,2453.39209375403
0.318796241085011,2453.40209375403
0.360346062711857,2453.41209375403
0.390496108707952,2453.42209375403
0.411683653903418,2453.43209375403
0.425391812569004,2453.44209375403
0.434397768943404,2453.45209375403
0.442297632208809,2453.46209375403
0.449503712984361,2453.47209375403
0.456498657958659,2453.48209375403
0.462548548703152,2453.49209375403
0.468053136663148,2453.50209375403
0.473773660198773,2453.51209375403
0.478590105090601,2453.52209375403
0.483952507841064,2453.53209375403
0.488737971190578,2453.54209375403
0.491340249900121,2453.55209375403
0.489584701722079,2453.56209375403
0.483705946254433,2453.57209375403
0.474295967026489,2453.58209375403
0.461700198389071,2453.59209375403
0.449045353216456,2453.60209375403
0.437032462354179,2453.61209375403
0.425144751265353,2453.62209375403
0.414184182918041,2453.63209375403
0.405123166685077,2453.64209375403
0.398433696677766,2453.65209375403
0.39456356419359,2453.66209375403
0.394680024282706,2453.67209375403
0.397869586663517,2453.68209375403
0.401926264308144,2453.69209375403
0.405721362630407,2453.70209375403
0.409119010753665,2453.71209375403
0.411938052120859,2453.72209375403
0.413018403687366,2453.73209375403
0.414320155009892,2453.74209375403
0.413867566974969,2453.75209375403
0.411197841073478,2453.76209375403
0.405478410644678,2453.77209375403
0.396565091599208,2453.78209375403
0.385431606329657,2453.79209375403
0.372994911743366,2453.80209375403
0.359394022348002,2453.81209375403
0.34486281025172,2453.82209375403
0.331117712358835,2453.83209375403
0.317950447811368,2453.84209375403
0.303404898788733,2453.85209375403
0.287762359154969,2453.86209375403
0.270162761705443,2453.87209375403
0.252397094681441,2453.88209375403
0.233973335178486,2453.89209375403
0.216582387027279,2453.90209375403
0.200413149737961,2453.91209375403
0.18344948686161,2453.92209375403
0.165301860140437,2453.93209375403
0.146624227365141,2453.94209375403
0.12847436056333,2453.95209375403
0.110298769818083,2453.96209375403
0.0937004754748597,2453.97209375403
0.0779337030632191,2453.98209375403
0.0620610763696728,2453.99209375403
0.0454261385355776,2454.00209375403
0.0279428560871508,2454.01209375403
0.0112026821181738,2454.02209375403
-0.0055779007401778,2454.03209375403
-0.0198841930923793,2454.04209375403
-0.0330551518214299,2454.05209375403
-0.0466258956864787,2454.06209375403
-0.0607437484801906,2454.07209375403
-0.0759018498965557,2454.08209375403
-0.0907293073465777,2454.09209375403
-0.105182955553887,2454.10209375403
-0.118182652113988,2454.11209375403
-0.130581142643388,2454.12209375403
-0.143909379871935,2454.13209375403
-0.158584167918469,2454.14209375403
-0.173935341146434,2454.15209375403
-0.189353055411323,2454.16209375403
-0.204841310250735,2454.17209375403
-0.219161480150135,2454.18209375403
-0.232270938646215,2454.19209375403
-0.245192467570023,2454.20209375403
-0.258672960576332,2454.21209375403
-0.272765697374091,2454.22209375403
-0.287118761992181,2454.23209375403
-0.301070387870753,2454.24209375403
-0.313521692746906,2454.25209375403
-0.325117082956931,2454.26209375403
-0.33733057951819,2454.27209375403
-0.351057017644527,2454.28209375403
-0.365858491032392,2454.29209375403
-0.381287459743434,2454.30209375403
-0.397286201944935,2454.31209375403
-0.411201906395641,2454.32209375403
-0.422902161417182,2454.33209375403
-0.430723666128629,2454.34209375403
-0.4325233683327,2454.35209375403
-0.423483940642705,2454.36209375403
-0.401047458774991,2454.37209375403
-0.363180862365167,2454.38209375403
-0.308751901917858,2454.39209375403
-0.239618136435825,2454.40209375403
-0.161140189085008,2454.41209375403
-0.0777552820005263,2454.42209375403
0.00643437716637143,2454.43209375403
0.0863143518226632,2454.44209375403
0.158573436061236,2454.45209375403
0.222606978402641,2454.46209375403
0.276067505298666,2454.47209375403
0.317197272287767,2454.48209375403
0.346572108963583,2454.49209375403
0.365772968440273,2454.50209375403
0.377367295218524,2454.51209375403
0.383535353816763,2454.52209375403
0.388348994388885,2454.53209375403
0.392512330545764,2454.54209375403
0.395967803813674,2454.55209375403
0.398496369342075,2454.56209375403
0.400269987595317,2454.57209375403
0.402557880415734,2454.58209375403
0.404428382017156,2454.59209375403
0.407998099708004,2454.60209375403
0.410875876597981,2454.61209375403
0.411420023728877,2454.62209375403
0.407919277191297,2454.63209375403
0.40029778726191,2454.64209375403
0.389108145917666,2454.65209375403
0.375953693519866,2454.66209375403
0.363736732565246,2454.67209375403
0.353191303242403,2454.68209375403
0.343890024280568,2454.69209375403
0.337035086312074,2454.70209375403
0.332275937942012,2454.71209375403
0.330427294802728,2454.72209375403
0.330965455992203,2454.73209375403
0.335143433227762,2454.74209375403
0.341449779815077,2454.75209375403
0.34821858716385,2454.76209375403
0.354192910145139,2454.77209375403
0.358838704623756,2454.78209375403
0.36193514436701,2454.79209375403
0.363172957618103,2454.80209375403
0.362731751606109,2454.81209375403
0.359812823582747,2454.82209375403
0.35613035148833,2454.83209375403
0.351201962739688,2454.84209375403
0.343572359031898,2454.85209375403
0.333055919805701,2454.86209375403
0.320132831270707,2454.87209375403
0.306174880514705,2454.88209375403
0.291061549279239,2454.89209375403
0.277210134290859,2454.90209375403
0.264610434990109,2454.91209375403
0.25136836311962,2454.92209375403
0.23688401121864,2454.93209375403
0.220923046822716,2454.94209375403
0.204615212280779,2454.95209375403
0.186835611558595,2454.96209375403
0.170264953952097,2454.97209375403
0.154571799952081,2454.98209375403
0.138805909596685,2454.99209375403
0.122461746281766,2455.00209375403
0.106169738287998,2455.01209375403
0.090175921527563,2455.02209375403
0.0749840131024875,2455.03209375403
0.0609394885970292,2455.04209375403
0.0474829399684385,2455.05209375403
0.0334939148037131,2455.06209375403
0.0186238898534341,2455.07209375403
0.00336377239548861,2455.08209375403
-0.0116642118481938,2455.09209375403
-0.0264556031100966,2455.10209375403
-0.0391138148035146,2455.11209375403
-0.0508337373303826,2455.12209375403
-0.0631603843039945,2455.13209375403
-0.0767889258658977,2455.14209375403
-0.0911952539894506,2455.15209375403
-0.105000019155729,2455.16209375403
-0.119109214661986,2455.17209375403
-0.131556465673119,2455.18209375403
-0.142873015563976,2455.19209375403
-0.155390271189918,2455.20209375403
-0.168771875833363,2455.21209375403
-0.183269739003859,2455.22209375403
-0.197567824600255,2455.23209375403
-0.211498907014381,2455.24209375403
-0.224280569088023,2455.25209375403
-0.235459093020848,2455.26209375403
-0.247703879195439,2455.27209375403
-0.260779529438133,2455.28209375403
-0.275009308740315,2455.29209375403
-0.288748670210312,2455.30209375403
-0.302485191523894,2455.31209375403
-0.314222516657762,2455.32209375403
-0.325172010803954,2455.33209375403
-0.337058298154426,2455.34209375403
-0.3504885098195,2455.35209375403
-0.36472541433883,2455.36209375403
-0.378719124593775,2455.37209375403
-0.390949060679639,2455.38209375403
-0.398511157482031,2455.39209375403
-0.398441981775333,2455.40209375403
-0.388201816537038,2455.41209375403
-0.36576212136479,2455.42209375403
-0.329737654921869,2455.43209375403
-0.27922235898673,2455.44209375403
-0.215548344182122,2455.45209375403
-0.14058745068792,2455.46209375403
-0.0588708967377968,2455.47209375403
0.0235529952894321,2455.48209375403
0.101284962413833,2455.49209375403
0.170515543223825,2455.50209375403
0.229976807717932,2455.51209375403
0.277656142460866,2455.52209375403
0.315755136268007,2455.53209375403
0.344809767608786,2455.54209375403
0.365378361195211,2455.55209375403
0.378231219480777,2455.56209375403
0.385320634581189,2455.57209375403
0.389155258545485,2455.58209375403
0.390924943771952,2455.59209375403
0.393578593873782,2455.60209375403
0.397949846856826,2455.61209375403
0.402973745639631,2455.62209375403
0.408171280337934,2455.63209375403
0.413048988969887,2455.64209375403
0.417973122155356,2455.65209375403
0.421775557704869,2455.66209375403
0.425109992474108,2455.67209375403
0.426178612778268,2455.68209375403
0.423084050835123,2455.69209375403
0.414819335789414,2455.70209375403
0.402473768607287,2455.71209375403
0.388141901276748,2455.72209375403
0.373094979158658,2455.73209375403
0.359965756207192,2455.74209375403
0.349213609247296,2455.75209375403
0.34002927054157,2455.76209375403
0.332316090439558,2455.77209375403
0.327195823537905,2455.78209375403
0.324645672555775,2455.79209375403
0.324564094765286,2455.80209375403
0.326278165369289,2455.81209375403
0.329059157833435,2455.82209375403
0.332866895252597,2455.83209375403
0.337412649448362,2455.84209375403
0.340225718946447,2455.85209375403
0.340835382743117,2455.86209375403
0.338639851441637,2455.87209375403
0.334206371850331,2455.88209375403
0.327021966618527,2455.89209375403
0.31912290311268,2455.90209375403
0.310101610011914,2455.91209375403
0.299157818095221,2455.92209375403
0.286260029138132,2455.93209375403
0.271257723952776,2455.94209375403
0.256004775822393,2455.95209375403
0.23968874887616,2455.96209375403
0.224354627398922,2455.97209375403
0.209818223083298,2455.98209375403
0.194302415737212,2455.99209375403
0.178306617695917,2456.00209375403
0.161137938091374,2456.01209375403
0.143983127712585,2456.02209375403
0.125664955966311,2456.03209375403
0.109027923228804,2456.04209375403
0.0940018125603985,2456.05209375403
0.0788755578387335,2456.06209375403
0.0634987099901643,2456.07209375403
0.0472491359073121,2456.08209375403
0.031483632069044,2456.09209375403
0.0148522620291446,2456.10209375403
0.000340352243583632,2456.11209375403
-0.0130898706347569,2456.12209375403
-0.0255949556567349,2456.13209375403
-0.0385986795694629,2456.14209375403
-0.0518949163008709,2456.15209375403
-0.0651047663299671,2456.16209375403
-0.0793037899866741,2456.17209375403
-0.0928959459638092,2456.18209375403
-0.10566508207818,2456.19209375403
-0.11916453391493,2456.20209375403
-0.132983268580221,2456.21209375403
-0.146887134427604,2456.22209375403
-0.160571303263244,2456.23209375403
-0.174130727619,2456.24209375403
-0.186561888398589,2456.25209375403
-0.198604305073328,2456.26209375403
-0.211015026306691,2456.27209375403
-0.224424594956779,2456.28209375403
-0.238680788762156,2456.29209375403
-0.252396065325611,2456.30209375403
-0.266480488424902,2456.31209375403
-0.279181854770132,2456.32209375403
-0.290917019031322,2456.33209375403
-0.302749190094103,2456.34209375403
-0.315255509087663,2456.35209375403
-0.327938141232271,2456.36209375403
-0.340475813701956,2456.37209375403
-0.352570565489671,2456.38209375403
-0.363437755539836,2456.39209375403
-0.373743245050593,2456.40209375403
-0.38468037896621,2456.41209375403
-0.397087245363507,2456.42209375403
-0.409922453372161,2456.43209375403
-0.423439639882348,2456.44209375403
-0.437583560706746,2456.45209375403
-0.450751647519953,2456.46209375403
-0.46229141495731,2456.47209375403
-0.472339877834423,2456.48209375403
-0.477564990527946,2456.49209375403
-0.474427707708845,2456.50209375403
-0.458833184686861,2456.51209375403
-0.42969710728975,2456.52209375403
-0.383533406080342,2456.53209375403
-0.321746891306544,2456.54209375403
-0.248875671202272,2456.55209375403
-0.168224117106394,2456.56209375403
-0.0845145128268684,2456.57209375403
-0.00200592709551428,2456.58209375403
0.074799000053454,2456.59209375403
0.144241832942681,2456.60209375403
0.203907417168062,2456.61209375403
0.251537589216976,2456.62209375403
0.286747992676239,2456.63209375403
0.311317352174987,2456.64209375403
0.327061292478771,2456.65209375403
0.335443629367669,2456.66209375403
0.340348644336354,2456.67209375403
0.3429465722637,2456.68209375403
0.344537443570787,2456.69209375403
0.345077785156003,2456.70209375403
0.346186922068284,2456.71209375403
0.349095148455372,2456.72209375403
0.353482729738693,2456.73209375403
0.360134443194547,2456.74209375403
0.36736591485779,2456.75209375403
0.372972341088004,2456.76209375403
0.375326173016226,2456.77209375403
0.373924938202234,2456.78209375403
0.367728100682143,2456.79209375403
0.358133160267681,2456.80209375403
0.345749494684042,2456.81209375403
0.331082864424761,2456.82209375403
0.317538681456726,2456.83209375403
0.305399764650946,2456.84209375403
0.295251602554454,2456.85209375403
0.286914791551813,2456.86209375403
0.280934338098272,2456.87209375403
0.277620803197829,2456.88209375403
0.276157853721796,2456.89209375403
0.277645990382005,2456.90209375403
0.281009599485023,2456.91209375403
0.284607283934651,2456.92209375403
0.286659091360009,2456.93209375403
0.287467701306039,2456.94209375403
0.286963486936285,2456.95209375403
0.28441696542181,2456.96209375403
0.281277505076038,2456.97209375403
0.276816901667023,2456.98209375403
0.269863083562595,2456.99209375403
0.261321265477947,2457.00209375403
0.25080288018573,2457.01209375403
0.239552114588442,2457.02209375403
0.227480478824989,2457.03209375403
0.215656200209263,2457.04209375403
0.203432769049556,2457.05209375403
0.189520679427028,2457.06209375403
0.173475813448138,2457.07209375403
0.155734899438612,2457.08209375403
0.137636356536076,2457.09209375403
