PPG,time
0.28178316677668,2751.03575404303
0.54932129346265,2751.04575404303
0.472013135050018,2751.05575404303
0.496824946885196,2751.06575404303
0.462545259585274,2751.07575404303
0.464458555081998,2751.08575404303
0.442407116539562,2751.09575404303
0.433923710811247,2751.10575404303
0.415879822262133,2751.11575404303
0.402249791749628,2751.12575404303
0.385514887793391,2751.13575404303
0.369491571355052,2751.14575404303
0.353880184985954,2751.15575404303
0.338866925203654,2751.16575404303
0.324209380809082,2751.17575404303
0.309010899328119,2751.18575404303
0.293502639417502,2751.19575404303
0.277791416310347,2751.20575404303
0.262716702968038,2751.21575404303
0.248174137924819,2751.22575404303
0.234288968626733,2751.23575404303
0.221333166335006,2751.24575404303
0.208447217112688,2751.25575404303
0.195952212239929,2751.26575404303
0.184498119324197,2751.27575404303
0.172919894680152,2751.28575404303
0.161645755943673,2751.29575404303
0.149872139856399,2751.30575404303
0.138365742001599,2751.31575404303
0.127713113714798,2751.32575404303
0.117318290713514,2751.33575404303
0.107466144996004,2751.34575404303
0.0973758408587178,2751.35575404303
0.0872527728577532,2751.36575404303
0.0780447779617437,2751.37575404303
0.0689328033314926,2751.38575404303
0.0604587482852843,2751.39575404303
0.0523816509614232,2751.40575404303
0.0437860545548084,2751.41575404303
0.0339179330526016,2751.42575404303
0.0240943083212599,2751.43575404303
0.0140514467322965,2751.44575404303
0.00408226070936021,2751.45575404303
-0.0046912651725253,2751.46575404303
-0.0114792047507175,2751.47575404303
-0.0124155850728742,2751.48575404303
-0.00190987872300268,2751.49575404303
0.0262621886935741,2751.50575404303
0.0779142800659395,2751.51575404303
0.155137157986177,2751.52575404303
0.257276733523604,2751.53575404303
0.378015218775795,2751.54575404303
0.507227874401298,2751.55575404303
0.633646736097846,2751.56575404303
0.745593009902226,2751.57575404303
0.835456770974436,2751.58575404303
0.899594827664523,2751.59575404303
0.939253113797329,2751.60575404303
0.958165279030233,2751.61575404303
0.960534284844258,2751.62575404303
0.953198788983191,2751.63575404303
0.938869475045649,2751.64575404303
0.921654467322967,2751.65575404303
0.902292849897471,2751.66575404303
0.883026322125297,2751.67575404303
0.863570495171943,2751.68575404303
0.844854242513395,2751.69575404303
0.828281826267508,2751.70575404303
0.813683834140272,2751.71575404303
0.801151901045712,2751.72575404303
0.790244508824293,2751.73575404303
0.780341586380444,2751.74575404303
0.770413446182725,2751.75575404303
0.759198382352302,2751.76575404303
0.746632673000175,2751.77575404303
0.732076290551746,2751.78575404303
0.716087317768943,2751.79575404303
0.699341459355565,2751.80575404303
0.682261077501685,2751.81575404303
0.666571722813721,2751.82575404303
0.652786676494359,2751.83575404303
0.641972551599368,2751.84575404303
0.633968503419185,2751.85575404303
0.62848893662963,2751.86575404303
0.625291358982317,2751.87575404303
0.623351406509326,2751.88575404303
0.623241013292521,2751.89575404303
0.62334106915639,2751.90575404303
0.623822136426331,2751.91575404303
0.623275648137862,2751.92575404303
0.622597143965859,2751.93575404303
0.620734713294486,2751.94575404303
0.618342539693407,2751.95575404303
0.614912319800914,2751.96575404303
0.609549051781361,2751.97575404303
0.603307601026354,2751.98575404303
0.594490159473782,2751.99575404303
0.58406933757647,2752.00575404303
0.572237830661316,2752.01575404303
0.559474000252587,2752.02575404303
0.545931989789685,2752.03575404303
0.531087752086931,2752.04575404303
0.516248825614835,2752.05575404303
0.500195806280771,2752.06575404303
0.483729045595327,2752.07575404303
0.46692725197236,2752.08575404303
0.45081870220936,2752.09575404303
0.434968204189553,2752.10575404303
0.419801470016622,2752.11575404303
0.4048009994349,2752.12575404303
0.390292599730077,2752.13575404303
0.375903561692444,2752.14575404303
0.361364594724012,2752.15575404303
0.346716452646945,2752.16575404303
0.331966049003279,2752.17575404303
0.317320178821392,2752.18575404303
0.302428593615772,2752.19575404303
0.2879256032774,2752.20575404303
0.274232133683119,2752.21575404303
0.260236884490505,2752.22575404303
0.247019903013762,2752.23575404303
0.233235359817191,2752.24575404303
0.220005780039809,2752.25575404303
0.207584999968711,2752.26575404303
0.195492037382351,2752.27575404303
0.18382749588971,2752.28575404303
0.172102265692179,2752.29575404303
0.160054806994172,2752.30575404303
0.148161714053837,2752.31575404303
0.136454823435809,2752.32575404303
0.125338886611807,2752.33575404303
0.114761324775208,2752.34575404303
0.104982368132578,2752.35575404303
0.0956821767496747,2752.36575404303
0.0871331525905151,2752.37575404303
0.0784438273608408,2752.38575404303
0.0697299832228109,2752.39575404303
0.0603400515462283,2752.40575404303
0.0501047723242668,2752.41575404303
0.0396238039528932,2752.42575404303
0.0290067690757176,2752.43575404303
0.0196153312271358,2752.44575404303
0.0137583495934465,2752.45575404303
0.0167422996444053,2752.46575404303
0.0344108268984205,2752.47575404303
0.0733921746800973,2752.48575404303
0.138296050852721,2752.49575404303
0.230529189104899,2752.50575404303
0.346574881934258,2752.51575404303
0.478093165108938,2752.52575404303
0.613566395703423,2752.53575404303
0.740363382777118,2752.54575404303
0.84730161114672,2752.55575404303
0.928170155715268,2752.56575404303
0.982335021110702,2752.57575404303
1.012180883374,2752.58575404303
1.02176130618853,2752.59575404303
1.01689572250694,2752.60575404303
1.00201075615085,2752.61575404303
0.980653401330569,2752.62575404303
0.9559703768566,2752.63575404303
0.93081768128691,2752.64575404303
0.905966902141369,2752.65575404303
0.882464447414486,2752.66575404303
0.860938993120912,2752.67575404303
0.841648344855122,2752.68575404303
0.825252781720719,2752.69575404303
0.811011365311028,2752.70575404303
0.798311601270394,2752.71575404303
0.786016236007169,2752.72575404303
0.773446060405327,2752.73575404303
0.759457918566713,2752.74575404303
0.743827121965178,2752.75575404303
0.726866607216184,2752.76575404303
0.708960887931187,2752.77575404303
0.690524091232025,2752.78575404303
0.672951527286913,2752.79575404303
0.657559502004568,2752.80575404303
0.644577757214558,2752.81575404303
0.635377234684973,2752.82575404303
0.629013463668057,2752.83575404303
0.625676265427445,2752.84575404303
0.624864921593844,2752.85575404303
0.625544621317243,2752.86575404303
0.627258059017784,2752.87575404303
0.629490789414551,2752.88575404303
0.631608271674277,2752.89575404303
0.632778464957757,2752.90575404303
0.632860525035771,2752.91575404303
0.630762769603711,2752.92575404303
0.626501206224282,2752.93575404303
0.620312825325563,2752.94575404303
0.612151848976212,2752.95575404303
0.602222736572173,2752.96575404303
0.591312451981236,2752.97575404303
0.579902739398265,2752.98575404303
0.567114056123592,2752.99575404303
0.5534471432275,2753.00575404303
0.538893103865463,2753.01575404303
0.523528953639409,2753.02575404303
0.508130301157168,2753.03575404303
0.492303824883473,2753.04575404303
0.476453199188879,2753.05575404303
0.459987721125016,2753.06575404303
0.443526247164459,2753.07575404303
0.426438845213887,2753.08575404303
0.409601817486466,2753.09575404303
0.392690883314365,2753.10575404303
0.376018968050029,2753.11575404303
0.359633924554565,2753.12575404303
0.342669290272125,2753.13575404303
0.326845780216225,2753.14575404303
0.310536168770543,2753.15575404303
0.294359078850219,2753.16575404303
0.279166381432832,2753.17575404303
0.264117622314078,2753.18575404303
0.24983255517177,2753.19575404303
0.23589314213693,2753.20575404303
0.222355705150684,2753.21575404303
0.208950339576286,2753.22575404303
0.195483829658258,2753.23575404303
0.1818151411087,2753.24575404303
0.16824471449239,2753.25575404303
0.155155674793292,2753.26575404303
0.142521261799594,2753.27575404303
0.129797162776603,2753.28575404303
0.117365688194721,2753.29575404303
0.104901124035453,2753.30575404303
0.0929768756806356,2753.31575404303
0.0818235890640675,2753.32575404303
0.0710438118706727,2753.33575404303
0.0605944469423388,2753.34575404303
0.0505853491119496,2753.35575404303
0.0404861606351116,2753.36575404303
0.0306566380927435,2753.37575404303
0.0208075277140943,2753.38575404303
0.0105065027066472,2753.39575404303
0.000653536945350946,2753.40575404303
-0.00936938618755108,2753.41575404303
-0.0196107052029433,2753.42575404303
-0.0292583908246107,2753.43575404303
-0.0354518296523565,2753.44575404303
-0.0327154411362095,2753.45575404303
-0.0138456431079653,2753.46575404303
0.0279275467428875,2753.47575404303
0.0971241372355301,2753.48575404303
0.194149909737328,2753.49575404303
0.315870900302282,2753.50575404303
0.452263717249442,2753.51575404303
0.591219846835624,2753.52575404303
0.720382128452726,2753.53575404303
0.829239919513755,2753.54575404303
0.911404598888022,2753.55575404303
0.965820447094827,2753.56575404303
0.994408913551353,2753.57575404303
1.00170116190414,2753.58575404303
0.993294802739336,2753.59575404303
0.974661242412732,2753.60575404303
0.949501694209838,2753.61575404303
0.921586350269587,2753.62575404303
0.892101022782189,2753.63575404303
0.863094106688605,2753.64575404303
0.834977750293542,2753.65575404303
0.808500202800655,2753.66575404303
0.784540170519448,2753.67575404303
0.762735396572948,2753.68575404303
0.743531431600416,2753.69575404303
0.726955711926627,2753.70575404303
0.711095054144954,2753.71575404303
0.695517339903127,2753.72575404303
0.678858682212969,2753.73575404303
0.660941189610434,2753.74575404303
0.641741309191237,2753.75575404303
0.622059033268685,2753.76575404303
0.603058060859114,2753.77575404303
0.586010787624026,2753.78575404303
0.571404162244652,2753.79575404303
0.560597178037504,2753.80575404303
0.554021712345424,2753.81575404303
0.551098737106872,2753.82575404303
0.551917959739243,2753.83575404303
0.555432548925479,2753.84575404303
0.560684890048073,2753.85575404303
0.566916686232087,2753.86575404303
0.572894516355024,2753.87575404303
0.577934672293933,2753.88575404303
0.581252616880422,2753.89575404303
0.582560041734937,2753.90575404303
0.581532407747823,2753.91575404303
0.578596930443444,2753.92575404303
0.572850327991538,2753.93575404303
0.564781854460407,2753.94575404303
0.555134701054234,2753.95575404303
0.544287907530125,2753.96575404303
0.532367527609756,2753.97575404303
0.519586162862489,2753.98575404303
0.505776273103368,2753.99575404303
0.490600934860603,2754.00575404303
0.474457294389033,2754.01575404303
0.457668826518636,2754.02575404303
0.440623383990974,2754.03575404303
0.423584232076975,2754.04575404303
0.406676035223055,2754.05575404303
0.389478026911068,2754.06575404303
0.371822578418232,2754.07575404303
0.35394368231343,2754.08575404303
0.336400011715538,2754.09575404303
0.319241642739664,2754.10575404303
0.302303874986027,2754.11575404303
0.285606943332022,2754.12575404303
0.269653919520034,2754.13575404303
0.254981677493373,2754.14575404303
0.24038026267419,2754.15575404303
0.22649505900206,2754.16575404303
0.212608723224254,2754.17575404303
0.198844937139424,2754.18575404303
0.184977468343317,2754.19575404303
0.172245230406544,2754.20575404303
0.159812256536247,2754.21575404303
0.147529037773297,2754.22575404303
0.1356942135382,2754.23575404303
0.124103741784139,2754.24575404303
0.112908855981596,2754.25575404303
0.101899474577796,2754.26575404303
0.0911241251011716,2754.27575404303
0.0801999260547494,2754.28575404303
0.069746547698731,2754.29575404303
0.059947222308484,2754.30575404303
0.0508828544929976,2754.31575404303
0.0420004982684891,2754.32575404303
0.0328482861919311,2754.33575404303
0.0233979768768571,2754.34575404303
0.0136296882286428,2754.35575404303
0.00334600221265746,2754.36575404303
-0.00689915369017251,2754.37575404303
-0.0168793344569408,2754.38575404303
-0.0248807747476391,2754.39575404303
-0.0272452433319399,2754.40575404303
-0.0178408819047858,2754.41575404303
0.010663335930038,2754.42575404303
0.0644047658101095,2754.43575404303
0.146875963942726,2754.44575404303
0.257057196554188,2754.45575404303
0.387606426180612,2754.46575404303
0.5276251548783,2754.47575404303
0.663363074387458,2754.48575404303
0.782610281776083,2754.49575404303
0.877031492543387,2754.50575404303
0.942899690328793,2754.51575404303
0.980958531119849,2754.52575404303
0.994235052550499,2754.53575404303
0.988477032622167,2754.54575404303
0.968841683272136,2754.55575404303
0.940507773924779,2754.56575404303
0.907114034888501,2754.57575404303
0.871994424188456,2754.58575404303
0.836761569124294,2754.59575404303
0.803163993861595,2754.60575404303
0.771822324231233,2754.61575404303
0.74328815324735,2754.62575404303
0.718507045960176,2754.63575404303
0.696594537209087,2754.64575404303
0.677086563783897,2754.65575404303
0.65862469780293,2754.66575404303
0.640285752782302,2754.67575404303
0.620817244123207,2754.68575404303
0.600448946975967,2754.69575404303
0.57892802906244,2754.70575404303
0.55716457997263,2754.71575404303
0.53678335335681,2754.72575404303
0.519088447809332,2754.73575404303
0.505500147481959,2754.74575404303
0.496588797839931,2754.75575404303
0.493529552349594,2754.76575404303
0.494869166986142,2754.77575404303
0.499755275974016,2754.78575404303
0.507333320618981,2754.79575404303
0.516592366081815,2754.80575404303
0.526278478514725,2754.81575404303
0.535295466742869,2754.82575404303
0.542132336366294,2754.83575404303
0.547176728989906,2754.84575404303
0.549867270459994,2754.85575404303
0.550630703850604,2754.86575404303
0.548642889939797,2754.87575404303
0.543908144483717,2754.88575404303
0.537043205434113,2754.89575404303
0.527092342965193,2754.90575404303
0.515229574542685,2754.91575404303
0.501118536050054,2754.92575404303
0.486001710346506,2754.93575404303
0.470177249646299,2754.94575404303
0.454138326056516,2754.95575404303
0.438175910133158,2754.96575404303
0.422639643184891,2754.97575404303
0.406564363543746,2754.98575404303
0.390915104423179,2754.99575404303
0.375099084044893,2755.00575404303
0.359545058902392,2755.01575404303
0.344194687431397,2755.02575404303
0.328678824136265,2755.03575404303
0.313079241288765,2755.04575404303
0.297687870439129,2755.05575404303
0.282892234285018,2755.06575404303
0.267984697846928,2755.07575404303
0.253664422659496,2755.08575404303
0.239366722745778,2755.09575404303
0.224816702123758,2755.10575404303
0.211011260512786,2755.11575404303
0.197390995543588,2755.12575404303
0.183948517879387,2755.13575404303
0.171017636204137,2755.14575404303
0.158634662425561,2755.15575404303
0.14643019889041,2755.16575404303
0.133903650268866,2755.17575404303
0.121545630260591,2755.18575404303
0.109216933086429,2755.19575404303
0.0978537795799501,2755.20575404303
0.0869485351156391,2755.21575404303
0.0763854163088758,2755.22575404303
0.0662650835496482,2755.23575404303
0.0564801330092047,2755.24575404303
0.0472412215264557,2755.25575404303
0.0382180500178028,2755.26575404303
0.0290265590404659,2755.27575404303
0.0188106090251399,2755.28575404303
0.00787847967990948,2755.29575404303
-0.00287856292357332,2755.30575404303
-0.0127582673077634,2755.31575404303
-0.0204069999490778,2755.32575404303
-0.0220485169084741,2755.33575404303
-0.0110770678941338,2755.34575404303
0.0212106063445158,2755.35575404303
0.0816232616272352,2755.36575404303
0.174097424934262,2755.37575404303
0.297754363828019,2755.38575404303
0.444015717001769,2755.39575404303
0.600229024202316,2755.40575404303
0.751421114505183,2755.41575404303
0.884088711342322,2755.42575404303
0.987820370800511,2755.43575404303
1.05909399330967,2755.44575404303
1.09978819411048,2755.45575404303
1.11409215350978,2755.46575404303
1.10807946807793,2755.47575404303
1.08815351834141,2755.48575404303
1.06030945257861,2755.49575404303
1.02845576074088,2755.50575404303
0.996229394134892,2755.51575404303
0.964631281634916,2755.52575404303
0.935270721708457,2755.53575404303
0.908403222163848,2755.54575404303
0.884560593420271,2755.55575404303
0.863936272798504,2755.56575404303
0.84610431194009,2755.57575404303
0.830229686285624,2755.58575404303
0.815939102626307,2755.59575404303
0.80187625980899,2755.60575404303
0.786742937372069,2755.61575404303
0.769782925715722,2755.62575404303
0.751174729141224,2755.63575404303
0.731042884829833,2755.64575404303
0.710391768593962,2755.65575404303
0.690248598258091,2755.66575404303
0.672097762331316,2755.67575404303
0.656254836308031,2755.68575404303
0.64352605902614,2755.69575404303
0.634326727887347,2755.70575404303
0.628382760114879,2755.71575404303
0.625704515586113,2755.72575404303
0.625082224567448,2755.73575404303
0.625133474875652,2755.74575404303
0.627000905033964,2755.75575404303
0.629092421796906,2755.76575404303
0.630821656696171,2755.77575404303
0.631870398507844,2755.78575404303
0.631212977453411,2755.79575404303
0.62809030277902,2755.80575404303
0.622624422343536,2755.81575404303
0.614745694430036,2755.82575404303
0.604960365693363,2755.83575404303
0.593692686722341,2755.84575404303
0.581040256748691,2755.85575404303
0.567320731668707,2755.86575404303
0.552653038727667,2755.87575404303
0.537114103412038,2755.88575404303
0.520595515984709,2755.89575404303
0.503312357944668,2755.90575404303
0.484964634707848,2755.91575404303
0.465550693260146,2755.92575404303
0.446429490809117,2755.93575404303
0.427953135879073,2755.94575404303
0.41012919841438,2755.95575404303
0.392742588485211,2755.96575404303
0.374940241484487,2755.97575404303
0.357741012222811,2755.98575404303
0.339986996879094,2755.99575404303
0.322914694897311,2756.00575404303
0.30656890570635,2756.01575404303
0.290477115239637,2756.02575404303
0.274608058080068,2756.03575404303
0.259252507329507,2756.04575404303
0.244245399284939,2756.05575404303
0.229392541138921,2756.06575404303
0.215465498185579,2756.07575404303
0.201682115651493,2756.08575404303
0.188411530721761,2756.09575404303
0.175693112277757,2756.10575404303
0.162949882241918,2756.11575404303
0.150669354755347,2756.12575404303
0.138387690855718,2756.13575404303
0.125918303174038,2756.14575404303
0.113615966862881,2756.15575404303
0.101584341258244,2756.16575404303
0.0900655310541458,2756.17575404303
0.0794071955159224,2756.18575404303
0.0698765139219595,2756.19575404303
0.0608940567613629,2756.20575404303
0.0519900178336997,2756.21575404303
0.0429178400161094,2756.22575404303
0.0334593964421425,2756.23575404303
0.022922219422539,2756.24575404303
0.0122154500604089,2756.25575404303
0.0012106947617008,2756.26575404303
-0.00872000583811714,2756.27575404303
-0.0166419346649572,2756.28575404303
-0.0179259383538221,2756.29575404303
-0.006451413388747,2756.30575404303
0.0269195077744873,2756.31575404303
0.0894359423606579,2756.32575404303
0.185524127168358,2756.33575404303
0.31371430708504,2756.34575404303
0.465528002341477,2756.35575404303
0.627079662715712,2756.36575404303
0.782284188298894,2756.37575404303
0.917475063720885,2756.38575404303
1.02316968337967,2756.39575404303
1.09574879517788,2756.40575404303
1.13611233438852,2756.41575404303
1.15040004059804,2756.42575404303
1.14461107944438,2756.43575404303
1.12490475050096,2756.44575404303
1.09707213782848,2756.45575404303
1.06481132315212,2756.46575404303
1.03050492469993,2756.47575404303
0.996424287783865,2756.48575404303
0.964149824567254,2756.49575404303
0.93454747922965,2756.50575404303
0.908704790465232,2756.51575404303
0.886882770376138,2756.52575404303
0.86832332793378,2756.53575404303
0.851879196771704,2756.54575404303
0.837019571374134,2756.55575404303
0.822376518787471,2756.56575404303
0.806216492834198,2756.57575404303
0.788936387964748,2756.58575404303
0.768748777862727,2756.59575404303
0.747027562716602,2756.60575404303
0.724308041173801,2756.61575404303
0.701275672175145,2756.62575404303
0.679497364364553,2756.63575404303
0.660107371299452,2756.64575404303
0.64378911264711,2756.65575404303
0.63140308403234,2756.66575404303
0.623099957248301,2756.67575404303
0.618662998476436,2756.68575404303
0.617067095676778,2756.69575404303
0.61719900448135,2756.70575404303
0.617980662843971,2756.71575404303
0.618699632545975,2756.72575404303
0.6195373412804,2756.73575404303
0.618647267689681,2756.74575404303
0.616685549342974,2756.75575404303
0.613124274825611,2756.76575404303
0.607829272630182,2756.77575404303
0.600539080856532,2756.78575404303
0.591056209335306,2756.79575404303
0.579415792969154,2756.80575404303
0.565703190821255,2756.81575404303
0.550421305789239,2756.82575404303
0.534199181561209,2756.83575404303
0.517411697650426,2756.84575404303
0.499805160062743,2756.85575404303
0.482178437823348,2756.86575404303
0.463989362037155,2756.87575404303
0.44549189814142,2756.88575404303
0.426408039325038,2756.89575404303
0.407002155450562,2756.90575404303
0.38784875111899,2756.91575404303
0.36850208420799,2756.92575404303
0.349295014518213,2756.93575404303
0.330435953391073,2756.94575404303
0.311623596960902,2756.95575404303
0.293550796208854,2756.96575404303
0.275937961244313,2756.97575404303
0.259024174915603,2756.98575404303
0.242370259441241,2756.99575404303
0.226177431363352,2757.00575404303
0.210290140098903,2757.01575404303
0.194751266404062,2757.02575404303
0.17979080044292,2757.03575404303
0.16532484838408,2757.04575404303
0.151897194723422,2757.05575404303
0.138246975854378,2757.06575404303
0.124734608983022,2757.07575404303
0.111471451538303,2757.08575404303
0.0982467165241864,2757.09575404303
0.08503485316488,2757.10575404303
0.0713550094866777,2757.11575404303
0.0575740477802081,2757.12575404303
0.0440853756014947,2757.13575404303
0.03085395031722,2757.14575404303
0.0181149184729036,2757.15575404303
0.00575597486312326,2757.16575404303
-0.00608954761367047,2757.17575404303
-0.0181500295739655,2757.18575404303
-0.02930293476167,2757.19575404303
-0.0398448945853963,2757.20575404303
-0.0504454494271478,2757.21575404303
-0.06095002296212,2757.22575404303
-0.0724532807273896,2757.23575404303
-0.0843217845133117,2757.24575404303
-0.0957042380511734,2757.25575404303
-0.10549694618801,2757.26575404303
-0.110684644524755,2757.27575404303
-0.105133450717993,2757.28575404303
-0.0808168836214095,2757.29575404303
-0.0299262229391808,2757.30575404303
0.0516067165285256,2757.31575404303
0.164408634825181,2757.32575404303
0.302471945195652,2757.33575404303
0.453193880154978,2757.34575404303
0.602048375959133,2757.35575404303
0.734679959915704,2757.36575404303
0.841331310636745,2757.37575404303
0.91697020870624,2757.38575404303
0.962181874705852,2757.39575404303
0.980918175158307,2757.40575404303
0.978574981000386,2757.41575404303
0.961274573318242,2757.42575404303
0.933879720978671,2757.43575404303
0.900660103643943,2757.44575404303
0.865700513242774,2757.45575404303
0.830733832604511,2757.46575404303
0.796920306553085,2757.47575404303
0.765569921142352,2757.48575404303
0.736851672665807,2757.49575404303
0.711355420177567,2757.50575404303
0.687809231951498,2757.51575404303
0.666739140721565,2757.52575404303
0.647457273990051,2757.53575404303
0.628604320252226,2757.54575404303
0.609728178356702,2757.55575404303
0.589956177919721,2757.56575404303
0.568232995540648,2757.57575404303
0.544727086579672,2757.58575404303
0.521030003791058,2757.59575404303
0.497856359876302,2757.60575404303
0.47729925975812,2757.61575404303
0.459752069229108,2757.62575404303
0.44667007852188,2757.63575404303
0.437061816647015,2757.64575404303
0.431450227534911,2757.65575404303
0.428807489867169,2757.66575404303
0.429173492782649,2757.67575404303
0.431064015949551,2757.68575404303
0.43407090940504,2757.69575404303
0.43738695700826,2757.70575404303
0.440233526381143,2757.71575404303
0.441795664527371,2757.72575404303
0.441358819228862,2757.73575404303
0.43831694295986,2757.74575404303
0.432805133892337,2757.75575404303
0.425436201248987,2757.76575404303
0.415528948112223,2757.77575404303
0.404248769865424,2757.78575404303
0.391493854741059,2757.79575404303
0.376823412375426,2757.80575404303
0.361668516289441,2757.81575404303
0.345488641156463,2757.82575404303
0.328832852081647,2757.83575404303
0.311492435265741,2757.84575404303
0.293731786381733,2757.85575404303
0.275468938069578,2757.86575404303
0.257449159721644,2757.87575404303
0.238637097730322,2757.88575404303
0.21963089204899,2757.89575404303
0.199583639208126,2757.90575404303
0.17969603479263,2757.91575404303
0.160225805541876,2757.92575404303
0.141397457072965,2757.93575404303
0.123492703869587,2757.94575404303
0.106189161230027,2757.95575404303
0.0894430177503362,2757.96575404303
0.073221289399672,2757.97575404303
0.0568353321872492,2757.98575404303
0.0411010061005896,2757.99575404303
0.0255469838799838,2758.00575404303
0.0102341969866777,2758.01575404303
-0.00457170529758493,2758.02575404303
-0.0195062251364281,2758.03575404303
-0.0339551589716618,2758.04575404303
-0.0482578916891143,2758.05575404303
-0.0618094362824105,2758.06575404303
-0.0743516876256133,2758.07575404303
-0.0861049498042999,2758.08575404303
-0.0971643180347739,2758.09575404303
-0.108325423130278,2758.10575404303
-0.119659081760817,2758.11575404303
-0.131211051182779,2758.12575404303
-0.142644231851926,2758.13575404303
-0.154246511113244,2758.14575404303
-0.165811622293487,2758.15575404303
-0.17681322438171,2758.16575404303
-0.187627412760173,2758.17575404303
-0.197912127117602,2758.18575404303
-0.208118906881654,2758.19575404303
-0.217852496931073,2758.20575404303
-0.228047487041051,2758.21575404303
-0.2375701069244,2758.22575404303
-0.245804324986244,2758.23575404303
-0.248587117058324,2758.24575404303
-0.240194280820945,2758.25575404303
-0.212268344600746,2758.26575404303
-0.159051551359086,2758.27575404303
-0.0770840585005081,2758.28575404303
0.032050922919522,2758.29575404303
0.161041195098414,2758.30575404303
0.299570312857595,2758.31575404303
0.433693310795116,2758.32575404303
0.551495767348041,2758.33575404303
0.643751987468447,2758.34575404303
0.707067301903337,2758.35575404303
0.742226159231405,2758.36575404303
0.753948314542246,2758.37575404303
0.747763511663767,2758.38575404303
0.728432608458498,2758.39575404303
0.700808754143617,2758.40575404303
0.668311398240785,2758.41575404303
0.633281867506672,2758.42575404303
0.598238052326445,2758.43575404303
0.564648381761451,2758.44575404303
0.533066276802324,2758.45575404303
0.503216988493455,2758.46575404303
0.475967075147692,2758.47575404303
0.451212357571576,2758.48575404303
0.42825093540482,2758.49575404303
0.406404343035577,2758.50575404303
0.384961074535562,2758.51575404303
0.363200020573541,2758.52575404303
0.340861304105341,2758.53575404303
0.318643087282388,2758.54575404303
0.29671863821161,2758.55575404303
0.275832029741794,2758.56575404303
0.257401291038494,2758.57575404303
0.241944309738397,2758.58575404303
0.230837588233115,2758.59575404303
0.224552516651662,2758.60575404303
0.222003777108341,2758.61575404303
0.223209761200554,2758.62575404303
0.227355340880306,2758.63575404303
0.233110153043936,2758.64575404303
0.240545010342959,2758.65575404303
0.248320721364247,2758.66575404303
0.255572129587952,2758.67575404303
0.261120030467763,2758.68575404303
0.264392884664896,2758.69575404303
0.264914956374577,2758.70575404303
0.262546463642598,2758.71575404303
0.257840230649418,2758.72575404303
0.25074579903966,2758.73575404303
0.242420959176245,2758.74575404303
0.232597754036917,2758.75575404303
0.221086542234444,2758.76575404303
0.208295413935439,2758.77575404303
0.194186344243081,2758.78575404303
0.178779279766935,2758.79575404303
0.162136184954828,2758.80575404303
0.144714893317769,2758.81575404303
0.127724633898075,2758.82575404303
0.110754906808778,2758.83575404303
0.0939408322895873,2758.84575404303
0.0775194852587742,2758.85575404303
0.061125865210335,2758.86575404303
0.0446496040119839,2758.87575404303
0.0287389290686109,2758.88575404303
0.0132194510292571,2758.89575404303
-0.00231295809230579,2758.90575404303
-0.0178161624654247,2758.91575404303
-0.0335831189018127,2758.92575404303
-0.048915559764055,2758.93575404303
-0.0638451068975072,2758.94575404303
-0.0783293643339815,2758.95575404303
-0.0923890003115929,2758.96575404303
-0.10635618910267,2758.97575404303
-0.120800738238901,2758.98575404303
-0.135298440433827,2758.99575404303
-0.149781073723287,2759.00575404303
-0.163787631557809,2759.01575404303
-0.176897292383668,2759.02575404303
-0.18899831611129,2759.03575404303
-0.2003111280556,2759.04575404303
-0.210959696114844,2759.05575404303
-0.221443521758481,2759.06575404303
-0.231016410576771,2759.07575404303
-0.240733266377464,2759.08575404303
-0.250751963398282,2759.09575404303
-0.261036588016051,2759.10575404303
-0.271732701270519,2759.11575404303
-0.282568012266558,2759.12575404303
-0.293399847890877,2759.13575404303
-0.304211910609065,2759.14575404303
-0.314533835158443,2759.15575404303
-0.322976493717688,2759.16575404303
-0.328154127682193,2759.17575404303
-0.32447619720205,2759.18575404303
-0.305589972528209,2759.19575404303
-0.263871251321077,2759.20575404303
-0.194020807472827,2759.21575404303
-0.0954885918172543,2759.22575404303
0.0269370639984825,2759.23575404303
0.163094567734722,2759.24575404303
0.301822123872928,2759.25575404303
0.4289467719899,2759.26575404303
0.534805257213901,2759.27575404303
0.614044729783956,2759.28575404303
0.664727481008583,2759.29575404303
0.690218068703424,2759.30575404303
0.695719018056094,2759.31575404303
0.686617216855543,2759.32575404303
0.667901086833535,2759.33575404303
0.643016136206991,2759.34575404303
0.614986601972802,2759.35575404303
0.585141465916888,2759.36575404303
0.555882688025782,2759.37575404303
0.527397574700635,2759.38575404303
0.501091448528861,2759.39575404303
0.478211130177395,2759.40575404303
0.457963454766655,2759.41575404303
0.439397456081115,2759.42575404303
0.42207416759974,2759.43575404303
0.404747265277106,2759.44575404303
0.386312848163896,2759.45575404303
0.366798484933485,2759.46575404303
0.34656481083637,2759.47575404303
0.326298392392104,2759.48575404303
0.306322446210173,2759.49575404303
0.287284705219833,2759.50575404303
0.270311644682981,2759.51575404303
0.256087245999232,2759.52575404303
0.244811862825961,2759.53575404303
0.236849829090279,2759.54575404303
0.2325440619017,2759.55575404303
0.231292694913712,2759.56575404303
0.23333499094088,2759.57575404303
0.237653972560363,2759.58575404303
0.242386498600377,2759.59575404303
0.247172158988934,2759.60575404303
0.25071322278878,2759.61575404303
0.252572712400535,2759.62575404303
0.252698061862677,2759.63575404303
0.251099383869314,2759.64575404303
0.247802157174859,2759.65575404303
0.242280393338178,2759.66575404303
0.234281697733025,2759.67575404303
0.224611463984065,2759.68575404303
0.213796888221395,2759.69575404303
0.202117834362582,2759.70575404303
0.189204049087079,2759.71575404303
0.175534898189801,2759.72575404303
0.160331478827878,2759.73575404303
0.144367089274417,2759.74575404303
0.127540277484756,2759.75575404303
0.110943208673328,2759.76575404303
0.0941003620514854,2759.77575404303
0.077446488076724,2759.78575404303
0.0609949821824202,2759.79575404303
0.0441364473210837,2759.80575404303
0.0275527918303702,2759.81575404303
0.0105560318814246,2759.82575404303
-0.00627972601372272,2759.83575404303
-0.0229986764352887,2759.84575404303
-0.0397153496677507,2759.85575404303
-0.0560838812337764,2759.86575404303
-0.0718746105070601,2759.87575404303
-0.0875089329192027,2759.88575404303
-0.102977183829427,2759.89575404303
-0.118508576532793,2759.90575404303
-0.133799405185288,2759.91575404303
-0.148651625743692,2759.92575404303
-0.162472449517831,2759.93575404303
-0.175820769608036,2759.94575404303
-0.188864131304513,2759.95575404303
-0.201237857789017,2759.96575404303
-0.214047927903622,2759.97575404303
-0.226783193296361,2759.98575404303
-0.238683772140298,2759.99575404303
-0.249653352770562,2760.00575404303
-0.260371169829554,2760.01575404303
-0.270593939379407,2760.02575404303
-0.280922734486855,2760.03575404303
-0.290717755253884,2760.04575404303
-0.300140236195188,2760.05575404303
-0.309454107597317,2760.06575404303
-0.318715986466381,2760.07575404303
-0.327952616471072,2760.08575404303
-0.337721303558395,2760.09575404303
-0.347577578961277,2760.10575404303
-0.357351576776426,2760.11575404303
-0.365599383935745,2760.12575404303
-0.367196275869579,2760.13575404303
-0.356472492551464,2760.14575404303
-0.325613225855269,2760.15575404303
-0.26822452477107,2760.16575404303
-0.180558708402082,2760.17575404303
-0.0646506591966767,2760.18575404303
0.0721141267033344,2760.19575404303
0.21866572949325,2760.20575404303
0.361303273162494,2760.21575404303
0.486568693388585,2760.22575404303
0.586353308809158,2760.23575404303
0.656745879140852,2760.24575404303
0.699963885741532,2760.25575404303
0.719425783086242,2760.26575404303
0.721377395515045,2760.27575404303
0.711041886198929,2760.28575404303
0.69270063108197,2760.29575404303
0.6695744251468,2760.30575404303
0.644309648985518,2760.31575404303
0.618085610307683,2760.32575404303
0.591879082032475,2760.33575404303
0.567048947755909,2760.34575404303
0.544683632655436,2760.35575404303
0.524755867769055,2760.36575404303
0.507897327651649,2760.37575404303
0.493920961512088,2760.38575404303
0.481430401682801,2760.39575404303
0.469947479520661,2760.40575404303
0.456796004797912,2760.41575404303
0.441920708406003,2760.42575404303
0.42476908881215,2760.43575404303
0.405688246029476,2760.44575404303
0.385032276260263,2760.45575404303
0.363987606774321,2760.46575404303
0.343532730754576,2760.47575404303
0.325600976429505,2760.48575404303
0.310320087976338,2760.49575404303
0.29801790050689,2760.50575404303
0.288433987740194,2760.51575404303
0.282364173262432,2760.52575404303
0.278923126974603,2760.53575404303
0.277446799491975,2760.54575404303
0.277978609058182,2760.55575404303
0.278862040451109,2760.56575404303
0.279401457766564,2760.57575404303
0.278957851903503,2760.58575404303
0.277133744615927,2760.59575404303
0.274463100436284,2760.60575404303
0.270404253285046,2760.61575404303
0.265141908974103,2760.62575404303
0.258847644234955,2760.63575404303
0.251133217214099,2760.64575404303
0.241367885473574,2760.65575404303
0.229495058438556,2760.66575404303
0.216109665562849,2760.67575404303
0.201594374789561,2760.68575404303
0.186727119200453,2760.69575404303
0.17172263908418,2760.70575404303
0.155438561268178,2760.71575404303
0.138626379953443,2760.72575404303
0.120882974891963,2760.73575404303
0.102813458663796,2760.74575404303
0.0841743804517528,2760.75575404303
0.064610601674247,2760.76575404303
0.0446793761451581,2760.77575404303
0.0246491183256768,2760.78575404303
0.00523827692637068,2760.79575404303
-0.0133300849056964,2760.80575404303
-0.0310311353829042,2760.81575404303
-0.0482953595468445,2760.82575404303
-0.0650462096606024,2760.83575404303
-0.0812650578793771,2760.84575404303
-0.0974489939995149,2760.85575404303
-0.11357657689375,2760.86575404303
-0.129411021664844,2760.87575404303
-0.144779197696544,2760.88575404303
-0.159375006564283,2760.89575404303
-0.173466733139751,2760.90575404303
-0.186935991307251,2760.91575404303
-0.199995733833855,2760.92575404303
-0.212441455416091,2760.93575404303
-0.225080983315364,2760.94575404303
-0.237727918134287,2760.95575404303
-0.249625017840975,2760.96575404303
-0.260817921027986,2760.97575404303
-0.270965243649804,2760.98575404303
-0.279940758857681,2760.99575404303
-0.288328246350292,2761.00575404303
-0.296665910880453,2761.01575404303
-0.305603060956417,2761.02575404303
-0.315035467075712,2761.03575404303
-0.325373038711369,2761.04575404303
-0.335603578240354,2761.05575404303
-0.346475074112513,2761.06575404303
-0.356434962305392,2761.07575404303
-0.364268843820355,2761.08575404303
-0.366065149538171,2761.09575404303
-0.354961901095163,2761.10575404303
-0.324106457777021,2761.11575404303
-0.267859789012232,2761.12575404303
-0.183192766184334,2761.13575404303
-0.0719575564598737,2761.14575404303
0.0582253123875592,2761.15575404303
0.196466273559502,2761.16575404303
0.329570013534429,2761.17575404303
0.445262042272703,2761.18575404303
0.535839658121292,2761.19575404303
0.598125754774725,2761.20575404303
0.634892898864645,2761.21575404303
0.649262689365285,2761.22575404303
0.647112676026663,2761.23575404303
0.633551547865433,2761.24575404303
0.613000259605536,2761.25575404303
0.588464211339106,2761.26575404303
0.562486067666093,2761.27575404303
0.535928819427405,2761.28575404303
0.510019237795685,2761.29575404303
0.485963237062156,2761.30575404303
0.463967943324093,2761.31575404303
0.44410839327792,2761.32575404303
0.426116881624902,2761.33575404303
0.409633151659005,2761.34575404303
0.39441656092809,2761.35575404303
0.379657402894203,2761.36575404303
0.364178763743062,2761.37575404303
0.347610275638135,2761.38575404303
0.328856587179512,2761.39575404303
0.308743670385582,2761.40575404303
0.287927253575988,2761.41575404303
0.268102682460708,2761.42575404303
0.249807510962888,2761.43575404303
0.233385036520566,2761.44575404303
0.219752435451632,2761.45575404303
0.209285788902304,2761.46575404303
0.202901881721111,2761.47575404303
0.199597214690773,2761.48575404303
0.198725183266387,2761.49575404303
0.199080040351097,2761.50575404303
0.199563839336161,2761.51575404303
0.199840080585608,2761.52575404303
0.199582737055337,2761.53575404303
0.197986628630718,2761.54575404303
0.195089867861318,2761.55575404303
0.190179972416362,2761.56575404303
0.183095317370022,2761.57575404303
0.173862656258047,2761.58575404303
0.16303782141695,2761.59575404303
0.151048793674598,2761.60575404303
0.138357514574456,2761.61575404303
0.125108875791949,2761.62575404303
0.111215960968487,2761.63575404303
0.0964158968978543,2761.64575404303
0.081267076645929,2761.65575404303
0.0661560996014998,2761.66575404303
0.0508595602943776,2761.67575404303
0.0352541329870185,2761.68575404303
0.0195678571565182,2761.69575404303
0.00318077100713035,2761.70575404303
-0.0134817095884001,2761.71575404303
-0.0305263350990315,2761.72575404303
-0.0476564126947385,2761.73575404303
-0.0646010181721818,2761.74575404303
-0.0813061422414513,2761.75575404303
-0.097825420297686,2761.76575404303
-0.113524636124278,2761.77575404303
-0.128925577607743,2761.78575404303
-0.143793442638926,2761.79575404303
-0.15855269601427,2761.80575404303
-0.173122115605243,2761.81575404303
-0.187882211228359,2761.82575404303
-0.20265263103241,2761.83575404303
-0.216677942108291,2761.84575404303
-0.23060318123593,2761.85575404303
-0.244219638738328,2761.86575404303
-0.257474338729082,2761.87575404303
-0.271029857080399,2761.88575404303
-0.283972731588895,2761.89575404303
-0.296994278241739,2761.90575404303
-0.309534839361644,2761.91575404303
-0.321670241199573,2761.92575404303
-0.333560768915181,2761.93575404303
-0.344968286118598,2761.94575404303
-0.355345528203091,2761.95575404303
-0.365727870562931,2761.96575404303
-0.375660912034494,2761.97575404303
-0.385177934813169,2761.98575404303
-0.395535011720073,2761.99575404303
-0.405791715746916,2762.00575404303
-0.416390858957277,2762.01575404303
-0.426752866281714,2762.02575404303
-0.43731144155979,2762.03575404303
-0.446598847157868,2762.04575404303
-0.452574409084717,2762.05575404303
-0.451786689919107,2762.06575404303
-0.436914264758964,2762.07575404303
-0.400824603947801,2762.08575404303
-0.339056895275024,2762.09575404303
-0.250742867201925,2762.10575404303
-0.139386247517162,2762.11575404303
-0.0134035696938696,2762.12575404303
0.115308228330655,2762.13575404303
0.236110565543405,2762.14575404303
0.339697473331667,2762.15575404303
0.420047151636807,2762.16575404303
0.474765666545191,2762.17575404303
0.504526854835549,2762.18575404303
0.513130576694004,2762.19575404303
0.504928939410877,2762.20575404303
0.484981731574171,2762.21575404303
0.457620185643778,2762.22575404303
0.426342264303475,2762.23575404303
0.394115046510271,2762.24575404303
0.361993725831853,2762.25575404303
0.331399006888802,2762.26575404303
0.302522771371848,2762.27575404303
0.27601192324294,2762.28575404303
0.252724781731335,2762.29575404303
0.23189531935433,2762.30575404303
0.213060297474932,2762.31575404303
0.195392133352003,2762.32575404303
0.178102173379991,2762.33575404303
0.160642583825692,2762.34575404303
0.14267582406543,2762.35575404303
0.124609481491217,2762.36575404303
0.106460563630417,2762.37575404303
0.0900822568522457,2762.38575404303
0.0760409600079728,2762.39575404303
0.0648681201795429,2762.40575404303
0.0561300747341866,2762.41575404303
0.0506692996657168,2762.42575404303
0.047676746707424,2762.43575404303
0.0472525557020296,2762.44575404303
0.0488756551402374,2762.45575404303
0.0518575972558105,2762.46575404303
0.0554213698809739,2762.47575404303
0.0589639512579137,2762.48575404303
0.0627288758021086,2762.49575404303
0.065354448458185,2762.50575404303
0.0665550607004705,2762.51575404303
0.0659399156660587,2762.52575404303
0.0637228350520999,2762.53575404303
0.0592822519918827,2762.54575404303
0.0536105091234028,2762.55575404303
0.0468437097656021,2762.56575404303
0.0388567394228667,2762.57575404303
0.0294098507925307,2762.58575404303
0.0188109289826596,2762.59575404303
0.00689269868815991,2762.60575404303
-0.00574020657457178,2762.61575404303
-0.0194259029230398,2762.62575404303
-0.0334394371019179,2762.63575404303
-0.0478716115676947,2762.64575404303
-0.0622610504644813,2762.65575404303
-0.0769848802175309,2762.66575404303
-0.0922942612570344,2762.67575404303
-0.107498254817776,2762.68575404303
-0.123214897198506,2762.69575404303
-0.138963514826968,2762.70575404303
-0.15473055030121,2762.71575404303
-0.17002308881929,2762.72575404303
-0.185624443010602,2762.73575404303
-0.200520342742909,2762.74575404303
-0.215428186102421,2762.75575404303
-0.22969755350461,2762.76575404303
-0.244053360307574,2762.77575404303
-0.258348542863386,2762.78575404303
-0.272159400990141,2762.79575404303
-0.286085617016152,2762.80575404303
-0.299311230313093,2762.81575404303
-0.312193540480554,2762.82575404303
-0.324276615395163,2762.83575404303
-0.336403345733223,2762.84575404303
-0.348625262004529,2762.85575404303
-0.361248681663593,2762.86575404303
-0.374090113004749,2762.87575404303
-0.386479826136717,2762.88575404303
-0.398440817300914,2762.89575404303
-0.409118638756332,2762.90575404303
-0.419126014041127,2762.91575404303
-0.428548159462386,2762.92575404303
-0.437849044607674,2762.93575404303
-0.447211414422952,2762.94575404303
-0.456379982744732,2762.95575404303
-0.465669059051742,2762.96575404303
-0.474990350433911,2762.97575404303
-0.484920391537465,2762.98575404303
-0.494968769539257,2762.99575404303
-0.504358452953135,2763.00575404303
-0.512540401754459,2763.01575404303
-0.517635675421462,2763.02575404303
-0.514235475610102,2763.03575404303
-0.496745229396467,2763.04575404303
-0.458340245808593,2763.05575404303
-0.394088787840136,2763.06575404303
-0.304065858533155,2763.07575404303
-0.192686240863832,2763.08575404303
-0.0688794497810704,2763.09575404303
0.0565750534598925,2763.10575404303
0.172555372682034,2763.11575404303
0.270735312653946,2763.12575404303
0.346376357079199,2763.13575404303
0.397810163940365,2763.14575404303
0.427051157344115,2763.15575404303
0.437582308948504,2763.16575404303
0.434881969239536,2763.17575404303
0.42256092941014,2763.18575404303
0.403767348324384,2763.19575404303
0.380720057858877,2763.20575404303
0.355573401139212,2763.21575404303
0.330133042109913,2763.22575404303
0.305261721399995,2763.23575404303
0.28197891456764,2763.24575404303
0.260516743142851,2763.25575404303
0.241257539905207,2763.26575404303
0.223332211420472,2763.27575404303
0.206476021602153,2763.28575404303
0.189433937484118,2763.29575404303
0.171311917909266,2763.30575404303
0.152500557212443,2763.31575404303
0.132527057721339,2763.32575404303
0.112197917642688,2763.33575404303
0.0921156738970802,2763.34575404303
0.0737237535724306,2763.35575404303
0.0572601538370928,2763.36575404303
0.0432434606340856,2763.37575404303
0.0329691890228595,2763.38575404303
0.0267934678812857,2763.39575404303
0.0240172015794348,2763.40575404303
0.0248335771139755,2763.41575404303
0.0281490566350395,2763.42575404303
0.0330703783807675,2763.43575404303
0.0385067537662034,2763.44575404303
0.0433126606475181,2763.45575404303
0.046154166751897,2763.46575404303
0.0474993175910187,2763.47575404303
0.0467267730483527,2763.48575404303
0.0447733950168647,2763.49575404303
0.0408223797316285,2763.50575404303
0.0355987253207144,2763.51575404303
0.0288240045914374,2763.52575404303
0.0205790801835887,2763.53575404303
0.0111895581793697,2763.54575404303
0.000729208497705159,2763.55575404303
-0.0109291531163424,2763.56575404303
-0.0239412819924806,2763.57575404303
-0.038317093028101,2763.58575404303
-0.0530280859904354,2763.59575404303
-0.0682435046690959,2763.60575404303
-0.0837065998698686,2763.61575404303
-0.0990179514399722,2763.62575404303
-0.114410053847518,2763.63575404303
-0.129509140261662,2763.64575404303
-0.14497250143663,2763.65575404303
-0.160304608310953,2763.66575404303
-0.175035662249241,2763.67575404303
-0.189621504821931,2763.68575404303
-0.203589966812539,2763.69575404303
-0.217618119702357,2763.70575404303
-0.231601914194635,2763.71575404303
-0.245308585646947,2763.72575404303
-0.259072735702183,2763.73575404303
-0.272917244609279,2763.74575404303
-0.286662676147224,2763.75575404303
-0.300033707471452,2763.76575404303
-0.312833966967862,2763.77575404303
-0.325025590549496,2763.78575404303
-0.336828327530697,2763.79575404303
-0.347913696704811,2763.80575404303
-0.358257159839259,2763.81575404303
-0.368276970483303,2763.82575404303
-0.378045523780621,2763.83575404303
-0.387300383229481,2763.84575404303
-0.396539873681561,2763.85575404303
-0.405754758694551,2763.86575404303
-0.41463396270376,2763.87575404303
-0.423482193264197,2763.88575404303
-0.432468143869667,2763.89575404303
-0.44135340568005,2763.90575404303
-0.45057306946002,2763.91575404303
-0.460413742673207,2763.92575404303
-0.470038494818769,2763.93575404303
-0.478719487727352,2763.94575404303
-0.4821713685215,2763.95575404303
-0.475196820776864,2763.96575404303
-0.450966320766084,2763.97575404303
-0.403360628180467,2763.98575404303
-0.330557866247917,2763.99575404303
-0.233874406557581,2764.00575404303
-0.119823325757197,2764.01575404303
0.00251742235980589,2764.02575404303
0.121623063184942,2764.03575404303
0.228647781820235,2764.04575404303
0.316361308346916,2764.05575404303
0.380289741465428,2764.06575404303
0.421535268778207,2764.07575404303
0.441729550083249,2764.08575404303
0.44546200071976,2764.09575404303
0.436480301978975,2764.10575404303
0.418557955199467,2764.11575404303
0.394541330598637,2764.12575404303
0.367768326221179,2764.13575404303
0.340058371405945,2764.14575404303
0.312816368726141,2764.15575404303
0.287350399495796,2764.16575404303
0.264120849820479,2764.17575404303
0.243264687988415,2764.18575404303
0.22431517735329,2764.19575404303
0.206729288408332,2764.20575404303
0.189277436329147,2764.21575404303
0.170837762095165,2764.22575404303
0.150851508961513,2764.23575404303
0.129692764225943,2764.24575404303
0.108349795441424,2764.25575404303
0.0878871938773182,2764.26575404303
0.0694493435225629,2764.27575404303
0.0528937386078474,2764.28575404303
0.0394601340518983,2764.29575404303
0.029465491694319,2764.30575404303
0.0228165386743297,2764.31575404303
0.0199637412747443,2764.32575404303
0.020877843107489,2764.33575404303
0.0244660570592229,2764.34575404303
0.0300910005780484,2764.35575404303
0.0362018506286865,2764.36575404303
0.0419901137675587,2764.37575404303
0.0464903803078646,2764.38575404303
0.0498227170857105,2764.39575404303
0.0518839163663128,2764.40575404303
0.0523113622369051,2764.41575404303
0.0513410691460993,2764.42575404303
0.0481802310099843,2764.43575404303
0.0425511257782142,2764.44575404303
0.0347495220268496,2764.45575404303
0.0250310729675996,2764.46575404303
0.0138104259865362,2764.47575404303
0.00165152957103741,2764.48575404303
-0.0112892371558342,2764.49575404303
-0.0243940235956558,2764.50575404303
-0.0380542407518549,2764.51575404303
-0.0516346952770061,2764.52575404303
-0.065425278355815,2764.53575404303
-0.0797002725978766,2764.54575404303
-0.0939867721748744,2764.55575404303
-0.108628356915686,2764.56575404303
-0.12292672541757,2764.57575404303
-0.137466396122458,2764.58575404303
-0.152049647759538,2764.59575404303
-0.166542183837504,2764.60575404303
-0.180776100313007,2764.61575404303
-0.194875768724526,2764.62575404303
-0.2083578440318,2764.63575404303
-0.221210656631683,2764.64575404303
-0.234329888451974,2764.65575404303
-0.247167282917158,2764.66575404303
-0.259789629313893,2764.67575404303
-0.272179511847157,2764.68575404303
-0.28406826539191,2764.69575404303
-0.295601678283496,2764.70575404303
-0.306571057741161,2764.71575404303
-0.317031022102871,2764.72575404303
-0.327663665813507,2764.73575404303
-0.338464726641011,2764.74575404303
-0.348822930923344,2764.75575404303
-0.358795215090017,2764.76575404303
-0.368513522894512,2764.77575404303
-0.377817507662309,2764.78575404303
-0.387004187426563,2764.79575404303
-0.395945589919596,2764.80575404303
-0.40507093248966,2764.81575404303
-0.41389357998063,2764.82575404303
-0.42251110180451,2764.83575404303
-0.431401827282554,2764.84575404303
-0.43941066429928,2764.85575404303
-0.444340562622376,2764.86575404303
-0.441607935044307,2764.87575404303
-0.424361520991231,2764.88575404303
-0.385955886899953,2764.89575404303
-0.321253336613325,2764.90575404303
-0.228853954922085,2764.91575404303
-0.113570189098086,2764.92575404303
0.0163561423015724,2764.93575404303
0.149154925884463,2764.94575404303
0.273137359438614,2764.95575404303
0.378684043999718,2764.96575404303
0.460762403441678,2764.97575404303
0.517665772948886,2764.98575404303
0.550152077808816,2764.99575404303
0.563043088140185,2765.00575404303
0.560304991308648,2765.01575404303
0.546559867916079,2765.02575404303
0.525809231153678,2765.03575404303
0.501509495397334,2765.04575404303
0.475897748899132,2765.05575404303
0.450549617573873,2765.06575404303
0.426981746372712,2765.07575404303
0.405537352389106,2765.08575404303
0.386847340078,2765.09575404303
0.370889856575135,2765.10575404303
0.357051326500568,2765.11575404303
0.343618684675107,2765.12575404303
0.330364853039013,2765.13575404303
0.316361995505272,2765.14575404303
0.300206315772999,2765.15575404303
0.282447011053668,2765.16575404303
0.263358588163061,2765.17575404303
0.24374001280444,2765.18575404303
0.223900380591388,2765.19575404303
0.205893042418656,2765.20575404303
0.190318667614221,2765.21575404303
0.177574028496699,2765.22575404303
0.168288402005643,2765.23575404303
0.162512046059625,2765.24575404303
0.159193003544899,2765.25575404303
0.158539390472804,2765.26575404303
0.159456783693372,2765.27575404303
0.161449869872314,2765.28575404303
0.16351277149257,2765.29575404303
0.165264769107691,2765.30575404303
0.166292519143208,2765.31575404303
0.165883028784756,2765.32575404303
0.164123136160052,2765.33575404303
0.160087885123293,2765.34575404303
0.154650548736737,2765.35575404303
0.147592457734867,2765.36575404303
0.138718721148764,2765.37575404303
0.128734974396159,2765.38575404303
0.117788990050307,2765.39575404303
0.105581330771251,2765.40575404303
0.0929227337043664,2765.41575404303
0.0799865803193086,2765.42575404303
0.066318187996934,2765.43575404303
0.0523306538144061,2765.44575404303
0.0379230875331548,2765.45575404303
0.0228491193272682,2765.46575404303
0.00719623712195011,2765.47575404303
-0.00913076168270493,2765.48575404303
-0.0257672469685932,2765.49575404303
-0.0423741029684031,2765.50575404303
-0.0588578927541351,2765.51575404303
-0.0749242868554077,2765.52575404303
-0.0911295359212633,2765.53575404303
-0.106466432912013,2765.54575404303
-0.121228783772004,2765.55575404303
-0.135875603850005,2765.56575404303
-0.150456189770002,2765.57575404303
-0.164747045809375,2765.58575404303
-0.178615626567509,2765.59575404303
-0.191778165831239,2765.60575404303
-0.204699779289758,2765.61575404303
-0.217337155271924,2765.62575404303
-0.22952552663599,2765.63575404303
-0.242313811712225,2765.64575404303
-0.254421652957138,2765.65575404303
-0.266964322283951,2765.66575404303
-0.278810112293186,2765.67575404303
-0.290778245200742,2765.68575404303
-0.302768456207793,2765.69575404303
-0.313747643947046,2765.70575404303
-0.324230340569417,2765.71575404303
-0.334358185473352,2765.72575404303
-0.344282205602346,2765.73575404303
-0.354432906151842,2765.74575404303
-0.3650936478768,2765.75575404303
-0.375841304755078,2765.76575404303
-0.387294837435235,2765.77575404303
-0.398162575283331,2765.78575404303
-0.408359738434519,2765.79575404303
-0.416542161872323,2765.80575404303
-0.419372818943222,2765.81575404303
-0.411440796000814,2765.82575404303
-0.386451833731027,2765.83575404303
-0.337913228460351,2765.84575404303
-0.262808377612559,2765.85575404303
-0.162641449283127,2765.86575404303
-0.0433883815805459,2765.87575404303
0.0838420558623995,2765.88575404303
0.208035496287458,2765.89575404303
0.319235776590901,2765.90575404303
0.409051828129935,2765.91575404303
0.47430853645727,2765.92575404303
0.515725256135677,2765.93575404303
0.53586620249051,2765.94575404303
0.53951307161458,2765.95575404303
0.531617769528878,2765.96575404303
0.515838718298055,2765.97575404303
0.49507852780885,2765.98575404303
0.471878478007869,2765.99575404303
0.448479468826562,2766.00575404303
0.42562846626598,2766.01575404303
0.405048426275949,2766.02575404303
0.386281958769084,2766.03575404303
0.369513050795165,2766.04575404303
0.354084261700776,2766.05575404303
0.340145394760483,2766.06575404303
0.326584803304689,2766.07575404303
0.31322834464088,2766.08575404303
0.298798878557825,2766.09575404303
0.282709039905012,2766.10575404303
0.264775243202207,2766.11575404303
0.245108249997565,2766.12575404303
0.224787515366665,2766.13575404303
0.205014211264902,2766.14575404303
0.185751163505803,2766.15575404303
0.169145453454422,2766.16575404303
0.15431092137191,2766.17575404303
0.142638758392171,2766.18575404303
0.134004507968645,2766.19575404303
0.126932490768487,2766.20575404303
0.122352993321374,2766.21575404303
0.11890204432697,2766.22575404303
0.116279936513094,2766.23575404303
0.113813738602952,2766.24575404303
0.111182996317044,2766.25575404303
0.108023765645806,2766.26575404303
0.105040447217377,2766.27575404303
0.100751376623563,2766.28575404303
0.0953314827693979,2766.29575404303
0.0886076544720301,2766.30575404303
0.0801327219002567,2766.31575404303
0.0699825991877036,2766.32575404303
0.0584869637250917,2766.33575404303
0.0463766670322952,2766.34575404303
0.0326603845267123,2766.35575404303
0.0190624935341934,2766.36575404303
0.00482761353753083,2766.37575404303
-0.00996725703615217,2766.38575404303
-0.0252946183986879,2766.39575404303
-0.041216786638889,2766.40575404303
-0.0577676082286953,2766.41575404303
-0.0751919797717431,2766.42575404303
-0.0932439297638737,2766.43575404303
-0.111758174577033,2766.44575404303
-0.130286897578366,2766.45575404303
-0.148225819320864,2766.46575404303
-0.165784087821092,2766.47575404303
-0.182747045815164,2766.48575404303
-0.199270192255733,2766.49575404303
-0.216028922405956,2766.50575404303
-0.232291843212117,2766.51575404303
-0.248532905992571,2766.52575404303
-0.264457529253513,2766.53575404303
-0.280141843836536,2766.54575404303
-0.295353539954541,2766.55575404303
-0.310017850125902,2766.56575404303
-0.323736782223664,2766.57575404303
-0.337255171704234,2766.58575404303
-0.349931579783312,2766.59575404303
-0.36189881671124,2766.60575404303
-0.373887352314133,2766.61575404303
-0.385182075769538,2766.62575404303
-0.397211345213088,2766.63575404303
-0.409312276824827,2766.64575404303
-0.420835150351052,2766.65575404303
-0.432166166009078,2766.66575404303
-0.442956938576249,2766.67575404303
-0.454131712690736,2766.68575404303
-0.4650758151156,2766.69575404303
-0.476284888809066,2766.70575404303
-0.486991888013574,2766.71575404303
-0.497651180626661,2766.72575404303
-0.507753963229345,2766.73575404303
-0.517230446898027,2766.74575404303
-0.526699710006087,2766.75575404303
-0.535271966244212,2766.76575404303
-0.54156612030509,2766.77575404303
-0.54239715138498,2766.78575404303
-0.531156995453738,2766.79575404303
-0.503159813661694,2766.80575404303
-0.454292520224344,2766.81575404303
-0.383596305505278,2766.82575404303
-0.294390619978975,2766.83575404303
-0.192811125120949,2766.84575404303
-0.0877258258730069,2766.85575404303
0.0124967151924901,2766.86575404303
0.100142325448053,2766.87575404303
0.170715553756605,2766.88575404303
0.222422994849599,2766.89575404303
0.256131883798742,2766.90575404303
0.273806151366221,2766.91575404303
0.279339513480462,2766.92575404303
0.275222241185725,2766.93575404303
0.264750606170719,2766.94575404303
0.249635466966727,2766.95575404303
0.231554802468668,2766.96575404303
0.21185580246402,2766.97575404303
0.191708026253402,2766.98575404303
0.171731218284878,2766.99575404303
0.15289582565803,2767.00575404303
0.135290320767434,2767.01575404303
0.119043108953061,2767.02575404303
0.103991227585243,2767.03575404303
0.0889904127375406,2767.04575404303
0.0735626767363861,2767.05575404303
0.0571020452274756,2767.06575404303
0.0393073993273092,2767.07575404303
0.0205836639165808,2767.08575404303
0.00141890066804938,2767.09575404303
-0.0176364358563309,2767.10575404303
-0.0355654125719518,2767.11575404303
-0.0512895248486506,2767.12575404303
-0.0633201685138663,2767.13575404303
-0.072058337519389,2767.14575404303
-0.0775719218609041,2767.15575404303
-0.0804625793139625,2767.16575404303
-0.0811109891876547,2767.17575404303
-0.0800882110214564,2767.18575404303
-0.0784770612077144,2767.19575404303
-0.0768060725596288,2767.20575404303
-0.0759258629638271,2767.21575404303
-0.0763374343228387,2767.22575404303
-0.0780236212848713,2767.23575404303
-0.0814795759696712,2767.24575404303
-0.0855124205275724,2767.25575404303
-0.0908166696991191,2767.26575404303
-0.0970351980330019,2767.27575404303
-0.104135343539698,2767.28575404303
-0.112617454639901,2767.29575404303
-0.122818568363247,2767.30575404303
-0.133998654582116,2767.31575404303
-0.146446160555468,2767.32575404303
-0.159198250690516,2767.33575404303
-0.172484828307209,2767.34575404303
-0.1859751617537,2767.35575404303
-0.199367372357569,2767.36575404303
-0.213790918029336,2767.37575404303
-0.227913113198241,2767.38575404303
-0.242518106339617,2767.39575404303
-0.257284260072819,2767.40575404303
-0.272302189120926,2767.41575404303
-0.286676590706384,2767.42575404303
-0.300617765096335,2767.43575404303
-0.314548561355482,2767.44575404303
-0.327620793405202,2767.45575404303
-0.340585497240304,2767.46575404303
-0.353376782560015,2767.47575404303
-0.3656379664236,2767.48575404303
-0.377502633375929,2767.49575404303
-0.389174611628539,2767.50575404303
-0.40076429779969,2767.51575404303
-0.412024863354222,2767.52575404303
-0.423020043361121,2767.53575404303
-0.433848465333136,2767.54575404303
-0.44408880026868,2767.55575404303
-0.454423984639259,2767.56575404303
-0.464049384532986,2767.57575404303
-0.473618800304842,2767.58575404303
-0.483301909160813,2767.59575404303
-0.492671389650282,2767.60575404303
-0.501822617497361,2767.61575404303
-0.510778538112033,2767.62575404303
-0.519655274288473,2767.63575404303
-0.528654902982351,2767.64575404303
-0.53752888820526,2767.65575404303
-0.547094085976835,2767.66575404303
-0.557122171084784,2767.67575404303
-0.566691665734398,2767.68575404303
-0.57619316691955,2767.69575404303
-0.584101071344849,2767.70575404303
-0.58877481972605,2767.71575404303
-0.585473129215639,2767.72575404303
-0.56960822269821,2767.73575404303
-0.53603524744052,2767.74575404303
-0.48252266808019,2767.75575404303
-0.410010673438809,2767.76575404303
-0.322796858798168,2767.77575404303
-0.228318217526337,2767.78575404303
-0.134862804191506,2767.79575404303
-0.0500304797955497,2767.80575404303
0.0211737767880478,2767.81575404303
0.075358770099417,2767.82575404303
0.113150090592001,2767.83575404303
0.135412021950369,2767.84575404303
0.144406461448131,2767.85575404303
0.143270188343441,2767.86575404303
0.135062435821257,2767.87575404303
0.122205355680298,2767.88575404303
0.107138833429966,2767.89575404303
0.0910751343260207,2767.90575404303
0.0749379311538204,2767.91575404303
0.0598349611937006,2767.92575404303
0.0456816967969399,2767.93575404303
0.0321070155996577,2767.94575404303
0.0194775873125047,2767.95575404303
0.0067067458263771,2767.96575404303
-0.00671634452056022,2767.97575404303
-0.0210786381828472,2767.98575404303
-0.0367604985019061,2767.99575404303
-0.053615768127438,2768.00575404303
-0.0710027098651524,2768.01575404303
-0.0886003739771891,2768.02575404303
-0.105481711080309,2768.03575404303
-0.121407472962551,2768.04575404303
-0.134913011319613,2768.05575404303
-0.145528936438358,2768.06575404303
-0.15345371020997,2768.07575404303
-0.158204005171644,2768.08575404303
-0.160313263691757,2768.09575404303
-0.160656348457812,2768.10575404303
-0.159358105740975,2768.11575404303
-0.157827208404171,2768.12575404303
-0.156123079511529,2768.13575404303
-0.154886507658953,2768.14575404303
-0.154738287422409,2768.15575404303
-0.155501192440851,2768.16575404303
-0.157815969283891,2768.17575404303
-0.161190715701628,2768.18575404303
-0.166117532368253,2768.19575404303
-0.17151887881232,2768.20575404303
-0.177945468374894,2768.21575404303
-0.185377964453902,2768.22575404303
-0.193199962390364,2768.23575404303
-0.201945066647008,2768.24575404303
-0.211222009595194,2768.25575404303
-0.221587931596276,2768.26575404303
-0.232817595028912,2768.27575404303
-0.24398963859612,2768.28575404303
-0.255377205121338,2768.29575404303
-0.267490235320573,2768.30575404303
-0.27996986272519,2768.31575404303
-0.293082932724671,2768.32575404303
-0.307042054859805,2768.33575404303
-0.32068210664002,2768.34575404303
-0.334752130375141,2768.35575404303
-0.349040155436553,2768.36575404303
-0.362623179401381,2768.37575404303
-0.376038454722966,2768.38575404303
-0.388643586300279,2768.39575404303
-0.400067667507353,2768.40575404303
-0.410919322092311,2768.41575404303
-0.421277781778317,2768.42575404303
-0.43055181127315,2768.43575404303
-0.439217967860712,2768.44575404303
-0.447100116630905,2768.45575404303
-0.454779465253228,2768.46575404303
-0.461379114569768,2768.47575404303
-0.466816961127521,2768.48575404303
-0.472096219447606,2768.49575404303
-0.477134841806798,2768.50575404303
-0.481587431889121,2768.51575404303
-0.486608492442712,2768.52575404303
-0.49154134101719,2768.53575404303
-0.497115745521288,2768.54575404303
-0.503663708417677,2768.55575404303
-0.510670241498587,2768.56575404303
-0.518249878949539,2768.57575404303
-0.526421818959766,2768.58575404303
-0.535639781491213,2768.59575404303
-0.545212605978689,2768.60575404303
-0.555639121150601,2768.61575404303
-0.565395909348886,2768.62575404303
-0.572979051362541,2768.63575404303
-0.573254965667826,2768.64575404303
-0.561231498007305,2768.65575404303
-0.531510224206042,2768.66575404303
-0.480690159062836,2768.67575404303
-0.409355255601666,2768.68575404303
-0.321532710838728,2768.69575404303
-0.224678867429545,2768.70575404303
-0.127102003913305,2768.71575404303
-0.0367776354098166,2768.72575404303
0.0404583881221184,2768.73575404303
0.100444704467614,2768.74575404303
0.14259793798071,2768.75575404303
0.16740793793483,2768.76575404303
0.177786983787282,2768.77575404303
0.177892314588287,2768.78575404303
0.170653499228926,2768.79575404303
0.159542746665208,2768.80575404303
0.14669815585356,2768.81575404303
0.133477461259173,2768.82575404303
0.119974856693581,2768.83575404303
0.107227567864281,2768.84575404303
0.0949301818237017,2768.85575404303
0.0835117465388922,2768.86575404303
0.0731223993755165,2768.87575404303
0.0631978609094821,2768.88575404303
0.054418306682125,2768.89575404303
0.0455830828558619,2768.90575404303
0.0364088366405666,2768.91575404303
0.0258822518633066,2768.92575404303
0.0141896949310735,2768.93575404303
0.00155499697966884,2768.94575404303
-0.0112039634764011,2768.95575404303
-0.0241699568003459,2768.96575404303
-0.0360433689451238,2768.97575404303
-0.0463921006649935,2768.98575404303
-0.0554141469504125,2768.99575404303
-0.0624329781646741,2769.00575404303
-0.0677137344910755,2769.01575404303
-0.0711125167830789,2769.02575404303
-0.0734339406016125,2769.03575404303
-0.0743411425997068,2769.04575404303
-0.0746631364517404,2769.05575404303
-0.0753067283943827,2769.06575404303
-0.0753509727458897,2769.07575404303
-0.0762291382851954,2769.08575404303
-0.0770900413772433,2769.09575404303
-0.0787750508935546,2769.10575404303
-0.0812480207007782,2769.11575404303
-0.0840719650655925,2769.12575404303
-0.0885731906983673,2769.13575404303
-0.0941173672909034,2769.14575404303
-0.101144333506642,2769.15575404303
-0.109023338271247,2769.16575404303
-0.117682154044026,2769.17575404303
-0.126543563986982,2769.18575404303
-0.135959072340195,2769.19575404303
-0.146259545067077,2769.20575404303
-0.157743312055325,2769.21575404303
-0.170767058996082,2769.22575404303
-0.184523866944264,2769.23575404303
-0.19879021081022,2769.24575404303
-0.212668533468978,2769.25575404303
-0.22584380692687,2769.26575404303
-0.239491182390261,2769.27575404303
-0.2513873668528,2769.28575404303
-0.262925267255365,2769.29575404303
-0.274500133027682,2769.30575404303
-0.28619455249536,2769.31575404303
-0.29789189532337,2769.32575404303
-0.30917621628386,2769.33575404303
-0.320725716876987,2769.34575404303
-0.33173184223199,2769.35575404303
-0.342621219960422,2769.36575404303
-0.352649908261321,2769.37575404303
-0.36243726885834,2769.38575404303
-0.371947778804871,2769.39575404303
-0.380711645756901,2769.40575404303
-0.38944280584345,2769.41575404303
-0.398246126444683,2769.42575404303
-0.406918467773448,2769.43575404303
-0.415450552046461,2769.44575404303
-0.423671301598907,2769.45575404303
-0.432054312572712,2769.46575404303
-0.439731944928407,2769.47575404303
-0.447337051106238,2769.48575404303
-0.455150848659901,2769.49575404303
-0.463103866934171,2769.50575404303
-0.471440847307663,2769.51575404303
-0.479686310281178,2769.52575404303
-0.48789847743977,2769.53575404303
-0.494819134775491,2769.54575404303
-0.500059688582661,2769.55575404303
-0.50114809222339,2769.56575404303
-0.494363922551902,2769.57575404303
-0.473783315232595,2769.58575404303
-0.434736203927281,2769.59575404303
-0.374036290265778,2769.60575404303
-0.293922994351062,2769.61575404303
-0.198202583245472,2769.62575404303
-0.0944375726201698,2769.63575404303
0.00788097843779803,2769.64575404303
0.100744714058968,2769.65575404303
0.177643546871155,2769.66575404303
0.236151269785093,2769.67575404303
0.274946397614832,2769.68575404303
0.296425677621122,2769.69575404303
0.303697977749774,2769.70575404303
0.300351966487754,2769.71575404303
0.290390274350814,2769.72575404303
0.277182436847938,2769.73575404303
0.262545349000114,2769.74575404303
0.247596962835637,2769.75575404303
0.233048409189319,2769.76575404303
0.218937562110011,2769.77575404303
0.206172235135597,2769.78575404303
0.194762397018945,2769.79575404303
0.184423631496676,2769.80575404303
0.17570528655371,2769.81575404303
0.167226662483114,2769.82575404303
0.158646896305465,2769.83575404303
0.148908263146261,2769.84575404303
0.137828864423201,2769.85575404303
0.125271439102009,2769.86575404303
0.112093179821971,2769.87575404303
0.0984669155627046,2769.88575404303
0.0849720201668586,2769.89575404303
0.072775130310182,2769.90575404303
0.0615652147161889,2769.91575404303
0.0518945033741295,2769.92575404303
0.0444408281082799,2769.93575404303
0.0392778779126473,2769.94575404303
0.0363117439640207,2769.95575404303
0.034904330871664,2769.96575404303
0.0346990058946597,2769.97575404303
0.0343195609214137,2769.98575404303
0.0342256604841331,2769.99575404303
0.0337691457563542,2770.00575404303
0.0327537055140785,2770.01575404303
0.0310595917192355,2770.02575404303
0.0279829857536867,2770.03575404303
0.0235869489313007,2770.04575404303
0.0176742437115084,2770.05575404303
0.0108258012448539,2770.06575404303
0.00285101609828475,2770.07575404303
-0.00597290752136957,2770.08575404303
-0.0152102390401619,2770.09575404303
-0.024800871625831,2770.10575404303
-0.034923167902446,2770.11575404303
-0.0454589249470838,2770.12575404303
-0.0567543916286373,2770.13575404303
-0.0687110493479254,2770.14575404303
-0.0816654436563709,2770.15575404303
-0.0950712059811308,2770.16575404303
-0.109772214502124,2770.17575404303
-0.12498737316914,2770.18575404303
-0.14040156112851,2770.19575404303
-0.155294713790388,2770.20575404303
-0.169588213928213,2770.21575404303
-0.182774918303595,2770.22575404303
-0.195989461722354,2770.23575404303
-0.208844460208166,2770.24575404303
-0.2215966315728,2770.25575404303
-0.234120509735085,2770.26575404303
-0.246441728257156,2770.27575404303
-0.258984324633839,2770.28575404303
-0.271303369374719,2770.29575404303
-0.283188961334261,2770.30575404303
-0.294607582614801,2770.31575404303
-0.305520182254234,2770.32575404303
-0.3158542566711,2770.33575404303
-0.325985948571538,2770.34575404303
-0.335736266475772,2770.35575404303
-0.345310433595287,2770.36575404303
-0.355495049847417,2770.37575404303
-0.364795624545405,2770.38575404303
-0.373468222457978,2770.39575404303
-0.382105119181544,2770.40575404303
-0.390807569077204,2770.41575404303
-0.398913073975602,2770.42575404303
-0.407397495629422,2770.43575404303
-0.415974984468289,2770.44575404303
-0.424725294282249,2770.45575404303
-0.433727940467165,2770.46575404303
-0.442933287646727,2770.47575404303
-0.451236208072473,2770.48575404303
-0.456474980297111,2770.49575404303
-0.453720561989875,2770.50575404303
-0.437648284407444,2770.51575404303
-0.403777826167904,2770.52575404303
-0.347744292035728,2770.53575404303
-0.270744656593748,2770.54575404303
-0.176987866592137,2770.55575404303
-0.0737415039645552,2770.56575404303
0.0301520783306585,2770.57575404303
0.125429630483231,2770.58575404303
0.20577726372371,2770.59575404303
0.267103938129954,2770.60575404303
0.308585287103866,2770.61575404303
0.332339207508993,2770.62575404303
0.340764179809728,2770.63575404303
0.338377115782601,2770.64575404303
0.328156276413285,2770.65575404303
0.313027806544241,2770.66575404303
0.295773163611411,2770.67575404303
0.277067684014104,2770.68575404303
0.259332965394908,2770.69575404303
0.242040850581985,2770.70575404303
0.226050586248866,2770.71575404303
0.211012640112602,2770.72575404303
0.196665962312588,2770.73575404303
0.183001430712658,2770.74575404303
0.169405421216803,2770.75575404303
0.155810974125126,2770.76575404303
0.1412867549653,2770.77575404303
0.126252935821551,2770.78575404303
0.110624148965843,2770.79575404303
0.0947754225645382,2770.80575404303
0.0790444795687504,2770.81575404303
0.06397080115251,2770.82575404303
0.0507585743607541,2770.83575404303
0.0397216702029712,2770.84575404303
0.0318578848536476,2770.85575404303
0.0264788385167495,2770.86575404303
0.0239865534024362,2770.87575404303
0.0238696813297209,2770.88575404303
0.0249859937324137,2770.89575404303
0.0270435687159271,2770.90575404303
0.0294600321976377,2770.91575404303
0.0319181093635487,2770.92575404303
0.0340522324964236,2770.93575404303
0.0357461320276578,2770.94575404303
0.0360385433116328,2770.95575404303
0.0347891330812749,2770.96575404303
0.0316349294232966,2770.97575404303
0.0265656056795534,2770.98575404303
0.019739658357999,2770.99575404303
0.0110301600001686,2771.00575404303
0.000928405384622024,2771.01575404303
-0.0102289629926366,2771.02575404303
-0.0222435103362818,2771.03575404303
-0.03492450888127,2771.04575404303
-0.0476869916479556,2771.05575404303
-0.0606380259282006,2771.06575404303
-0.0742836582250278,2771.07575404303
-0.0878668158913345,2771.08575404303
-0.102354699706265,2771.09575404303
-0.116934215990955,2771.10575404303
-0.13189220057022,2771.11575404303
-0.146430710437765,2771.12575404303
-0.160627582114475,2771.13575404303
-0.174033508523803,2771.14575404303
-0.18690996151594,2771.15575404303
-0.198907592558698,2771.16575404303
-0.210726339197755,2771.17575404303
-0.222761296293128,2771.18575404303
-0.235135154727001,2771.19575404303
-0.247236602095387,2771.20575404303
-0.259590957127582,2771.21575404303
-0.271248210737969,2771.22575404303
-0.282678744043791,2771.23575404303
-0.293635533943467,2771.24575404303
-0.304039037297665,2771.25575404303
-0.31366024361118,2771.26575404303
-0.323143344417398,2771.27575404303
-0.33247410876578,2771.28575404303
-0.342135214399245,2771.29575404303
-0.351509186254407,2771.30575404303
-0.360924311492826,2771.31575404303
-0.369787665808447,2771.32575404303
-0.378836352782475,2771.33575404303
-0.387719461291253,2771.34575404303
-0.396821209959738,2771.35575404303
-0.406020060920451,2771.36575404303
-0.414596787367935,2771.37575404303
-0.420078680296771,2771.38575404303
-0.41912540859295,2771.39575404303
-0.405730673636854,2771.40575404303
-0.374387281310101,2771.41575404303
-0.321701589545564,2771.42575404303
-0.247259824466608,2771.43575404303
-0.155344171347203,2771.44575404303
-0.0525077094625251,2771.45575404303
0.0518048267176313,2771.46575404303
0.147938066445975,2771.47575404303
0.228864655975823,2771.48575404303
0.289802538000604,2771.49575404303
0.329594102134183,2771.50575404303
0.350350675822659,2771.51575404303
0.356627592824149,2771.52575404303
0.351303496447084,2771.53575404303
0.338614012359891,2771.54575404303
0.321502199857328,2771.55575404303
0.301429602435716,2771.56575404303
0.280673140711203,2771.57575404303
0.259673096030761,2771.58575404303
0.239218661331686,2771.59575404303
0.220132969562016,2771.60575404303
0.202411483658029,2771.61575404303
0.185549826816285,2771.62575404303
0.170366200173608,2771.63575404303
0.155595283105826,2771.64575404303
0.141285142158494,2771.65575404303
0.125877768071866,2771.66575404303
0.109872995127418,2771.67575404303
0.0926704405010549,2771.68575404303
0.0751026732005129,2771.69575404303
0.0578859178304741,2771.70575404303
0.0417518435048788,2771.71575404303
0.0280183335338162,2771.72575404303
0.0172088272498497,2771.73575404303
0.00981250147571166,2771.74575404303
0.00520464970052513,2771.75575404303
0.00313032793983804,2771.76575404303
0.00277784475942555,2771.77575404303
0.00316919534996852,2771.78575404303
0.00446338249731358,2771.79575404303
0.00611276211788423,2771.80575404303
0.00737936329667295,2771.81575404303
0.00751925536206244,2771.82575404303
0.0064215903081899,2771.83575404303
0.00335217199781452,2771.84575404303
-0.00092777265537694,2771.85575404303
-0.00680204594535397,2771.86575404303
-0.0134842127918918,2771.87575404303
-0.02138122018954,2771.88575404303
-0.0303674859318618,2771.89575404303
-0.0398642257891574,2771.90575404303
-0.0496103619134276,2771.91575404303
-0.0600958216637344,2771.92575404303
-0.0716612443849779,2771.93575404303
-0.0838044532425368,2771.94575404303
-0.0967786426983892,2771.95575404303
-0.109859778670925,2771.96575404303
-0.123407909518976,2771.97575404303
-0.137683818279501,2771.98575404303
-0.152450030062714,2771.99575404303
-0.167556576482687,2772.00575404303
-0.182547070449735,2772.01575404303
-0.197468143528465,2772.02575404303
-0.212079499814051,2772.03575404303
-0.2259763152133,2772.04575404303
-0.238530675949928,2772.05575404303
-0.250434379388687,2772.06575404303
-0.261407487703786,2772.07575404303
-0.271909209101989,2772.08575404303
-0.282623433443026,2772.09575404303
-0.293240731509685,2772.10575404303
-0.303759266665729,2772.11575404303
-0.314129351921203,2772.12575404303
-0.324000831076945,2772.13575404303
-0.333836229085791,2772.14575404303
-0.343006071302504,2772.15575404303
-0.351660476594193,2772.16575404303
-0.360398077387714,2772.17575404303
-0.369379622835417,2772.18575404303
-0.377718574297571,2772.19575404303
-0.386388828420329,2772.20575404303
-0.39499211626553,2772.21575404303
-0.403492080355244,2772.22575404303
-0.412082491358942,2772.23575404303
-0.42075135130993,2772.24575404303
-0.429160467782016,2772.25575404303
-0.435943136660315,2772.26575404303
-0.438302919235234,2772.27575404303
-0.431393469168536,2772.28575404303
-0.409684626614507,2772.29575404303
-0.367884225413868,2772.30575404303
-0.303332636661485,2772.31575404303
-0.217005834505531,2772.32575404303
-0.113016713955007,2772.33575404303
3.56236572162601e-05,2772.34575404303
0.111993351834838,2772.35575404303
0.213387944808154,2772.36575404303
0.296466978607055,2772.37575404303
0.356580410409264,2772.38575404303
0.394121687139964,2772.39575404303
0.411685833150647,2772.40575404303
0.414557003259236,2772.41575404303
0.407128476383877,2772.42575404303
0.394333204964013,2772.43575404303
0.378468769318565,2772.44575404303
0.362158843315907,2772.45575404303
0.346766063650409,2772.46575404303
0.331791149060332,2772.47575404303
0.318558201834446,2772.48575404303
0.306098779092655,2772.49575404303
0.29542991356476,2772.50575404303
0.28612285398939,2772.51575404303
0.277282946047138,2772.52575404303
0.268481278704545,2772.53575404303
0.258507047986039,2772.54575404303
0.2472725910012,2772.55575404303
0.233683048159498,2772.56575404303
0.218168154853253,2772.57575404303
0.201330846558953,2772.58575404303
0.184253315317948,2772.59575404303
0.167452142241162,2772.60575404303
0.151452782255591,2772.61575404303
0.137150556256708,2772.62575404303
0.124443070374947,2772.63575404303
0.114297771613318,2772.64575404303
0.106328929033264,2772.65575404303
0.101273010654216,2772.66575404303
0.0985567443596205,2772.67575404303
0.0974911418972135,2772.68575404303
0.0969161965873857,2772.69575404303
0.0968092263800419,2772.70575404303
0.0965235389307746,2772.71575404303
0.0952510421838767,2772.72575404303
0.0925462109212602,2772.73575404303
0.088039973537844,2772.74575404303
0.0831391643587892,2772.75575404303
0.0770949206413411,2772.76575404303
0.0700656457360873,2772.77575404303
0.0618937381580654,2772.78575404303
0.0528914938703234,2772.79575404303
0.0425348895330366,2772.80575404303
0.0313880829323804,2772.81575404303
0.0191268702912851,2772.82575404303
0.00591735666800239,2772.83575404303
-0.00731901612330058,2772.84575404303
-0.0209120490118395,2772.85575404303
-0.0345017893919929,2772.86575404303
-0.0484660149399102,2772.87575404303
-0.0629112622612692,2772.88575404303
-0.0772724113355543,2772.89575404303
-0.0913584754116526,2772.90575404303
-0.105708560446247,2772.91575404303
-0.119769933648158,2772.92575404303
-0.134169555651657,2772.93575404303
-0.148352651729772,2772.94575404303
-0.162032540882014,2772.95575404303
-0.175689992065369,2772.96575404303
-0.189185873570984,2772.97575404303
-0.201656391250087,2772.98575404303
-0.213513550364597,2772.99575404303
-0.225003906555962,2773.00575404303
-0.236476354242538,2773.01575404303
-0.247994264967684,2773.02575404303
-0.259375700472839,2773.03575404303
-0.270595225261028,2773.04575404303
-0.281958493349327,2773.05575404303
-0.293235131241779,2773.06575404303
-0.303905438179868,2773.07575404303
-0.313641547052842,2773.08575404303
-0.322788937731035,2773.09575404303
-0.331312592370746,2773.10575404303
-0.339949859816866,2773.11575404303
-0.348833286707907,2773.12575404303
-0.357337880658182,2773.13575404303
-0.365754945436349,2773.14575404303
-0.374445829389117,2773.15575404303
-0.38277577003523,2773.16575404303
-0.390963464460122,2773.17575404303
-0.399197842580576,2773.18575404303
-0.407071974890426,2773.19575404303
-0.414526887222708,2773.20575404303
-0.419104456098969,2773.21575404303
-0.417640164720053,2773.22575404303
-0.403847949487416,2773.23575404303
-0.372259449975271,2773.24575404303
-0.319092683080068,2773.25575404303
-0.241970336714018,2773.26575404303
-0.144171068653135,2773.27575404303
-0.0315643564929582,2773.28575404303
0.0856595859719706,2773.29575404303
0.1969418314552,2773.30575404303
0.292411297353066,2773.31575404303
0.365615246044711,2773.32575404303
0.415090968090993,2773.33575404303
0.443053952921012,2773.34575404303
0.453986278309312,2773.35575404303
0.452442187692199,2773.36575404303
0.443135319226212,2773.37575404303
0.428914936327582,2773.38575404303
0.413264850656152,2773.39575404303
0.39731585794536,2773.40575404303
0.38081507356761,2773.41575404303
0.365230688004147,2773.42575404303
0.350538520508271,2773.43575404303
0.337684012231201,2773.44575404303
0.326113915624532,2773.45575404303
0.316306795448098,2773.46575404303
0.307492744686993,2773.47575404303
0.298506962229388,2773.48575404303
0.288427860202271,2773.49575404303
0.277035169316767,2773.50575404303
0.26449876689837,2773.51575404303
0.249813439036985,2773.52575404303
0.233659557755228,2773.53575404303
0.216654955928043,2773.54575404303
0.200153352129289,2773.55575404303
0.18544003014529,2773.56575404303
0.172928279558473,2773.57575404303
0.163996411807837,2773.58575404303
0.157583221526071,2773.59575404303
0.153464742415892,2773.60575404303
0.151153897190862,2773.61575404303
0.149857806401102,2773.62575404303
0.149540309558411,2773.63575404303
0.149465981881859,2773.64575404303
0.149608046136839,2773.65575404303
0.14929161634536,2773.66575404303
0.148973315865472,2773.67575404303
0.148008699809814,2773.68575404303
0.145230801330976,2773.69575404303
0.141845060822668,2773.70575404303
0.13647812999304,2773.71575404303
0.129233246912853,2773.72575404303
0.119997751180398,2773.73575404303
0.109606317904165,2773.74575404303
0.0979759345285849,2773.75575404303
0.0853897914459712,2773.76575404303
0.0723569998969538,2773.77575404303
0.0583930517683042,2773.78575404303
0.0445188219025559,2773.79575404303
0.0300352696489188,2773.80575404303
0.0148399455046434,2773.81575404303
-0.00141408851896645,2773.82575404303
-0.0178891452577881,2773.83575404303
-0.0350055630334242,2773.84575404303
-0.0522628571044929,2773.85575404303
-0.0689024325604603,2773.86575404303
-0.0851473033033834,2773.87575404303
-0.100800736415735,2773.88575404303
-0.115979140347449,2773.89575404303
-0.13026338125843,2773.90575404303
-0.143582875797095,2773.91575404303
-0.156125960791037,2773.92575404303
-0.168208274182377,2773.93575404303
-0.179812913993807,2773.94575404303
-0.190882345449941,2773.95575404303
-0.202120427863264,2773.96575404303
-0.213230315974092,2773.97575404303
-0.224937330093713,2773.98575404303
-0.236684923307005,2773.99575404303
-0.248178607235887,2774.00575404303
-0.259130295749118,2774.01575404303
-0.269554975203359,2774.02575404303
-0.278893773082964,2774.03575404303
-0.288338076547352,2774.04575404303
-0.296950267377913,2774.05575404303
-0.305177381814986,2774.06575404303
-0.31329923137882,2774.07575404303
-0.320884470644382,2774.08575404303
-0.328856906781762,2774.09575404303
-0.336372953008715,2774.10575404303
-0.344195326130572,2774.11575404303
-0.352139818491469,2774.12575404303
-0.360708005236977,2774.13575404303
-0.369459891277947,2774.14575404303
-0.377938886541319,2774.15575404303
-0.385120204706964,2774.16575404303
-0.3878753086391,2774.17575404303
-0.381054552085963,2774.18575404303
-0.359120060073376,2774.19575404303
-0.31732921865307,2774.20575404303
-0.252922160394927,2774.21575404303
-0.167441520278224,2774.22575404303
-0.0658549052249317,2774.23575404303
0.0440125439334582,2774.24575404303
0.151289745040374,2774.25575404303
0.247075112828667,2774.26575404303
0.324101066151077,2774.27575404303
0.378666313229759,2774.28575404303
0.411288590349137,2774.29575404303
0.425014094330115,2774.30575404303
0.424152583449046,2774.31575404303
0.413681425174246,2774.32575404303
0.397435637614832,2774.33575404303
0.378211311808126,2774.34575404303
0.357997505974549,2774.35575404303
0.337907336253303,2774.36575404303
0.317675182159756,2774.37575404303
0.298459969753501,2774.38575404303
0.280291777536823,2774.39575404303
0.263714322002176,2774.40575404303
0.248143699162401,2774.41575404303
0.233625503862125,2774.42575404303
0.219525774281824,2774.43575404303
0.204502159607581,2774.44575404303
0.188099467434963,2774.45575404303
0.171234816755464,2774.46575404303
0.154155174623138,2774.47575404303
0.137515218271469,2774.48575404303
0.122078478817742,2774.49575404303
0.108295198648101,2774.50575404303
0.0974253077141444,2774.51575404303
0.0892329360034263,2774.52575404303
0.0846397122985214,2774.53575404303
0.0832757168141684,2774.54575404303
0.0853832262493865,2774.55575404303
0.0902972908144058,2774.56575404303
0.0970395225503909,2774.57575404303
0.104767093952359,2774.58575404303
0.111759594161101,2774.59575404303
0.117389942999846,2774.60575404303
0.121324900724026,2774.61575404303
0.123115252611658,2774.62575404303
0.122220461909728,2774.63575404303
0.120194022168452,2774.64575404303
0.1164338133139,2774.65575404303
0.110927214063639,2774.66575404303
0.104297669047894,2774.67575404303
0.0954636737313764,2774.68575404303
0.0853655523401809,2774.69575404303
0.0742734558153412,2774.70575404303
0.0625727884824428,2774.71575404303
0.0496317179342868,2774.72575404303
0.0366436070368099,2774.73575404303
0.0228518887643139,2774.74575404303
0.0089268949065346,2774.75575404303
-0.00526935617800145,2774.76575404303
-0.0197008544455469,2774.77575404303
-0.034041723982409,2774.78575404303
-0.0485772665992747,2774.79575404303
-0.0625339765490404,2774.80575404303
-0.0763357485707272,2774.81575404303
-0.0898130156961635,2774.82575404303
-0.10271342881542,2774.83575404303
-0.116039989498728,2774.84575404303
-0.12889422223962,2774.85575404303
-0.141104633458567,2774.86575404303
-0.152436366300747,2774.87575404303
-0.16389981583324,2774.88575404303
-0.174640872972494,2774.89575404303
-0.185661355646171,2774.90575404303
-0.19646236029577,2774.91575404303
-0.206876295129273,2774.92575404303
-0.217220668810147,2774.93575404303
-0.227579500526631,2774.94575404303
-0.237328201364553,2774.95575404303
-0.247018810882881,2774.96575404303
-0.256060227307542,2774.97575404303
-0.26475718786705,2774.98575404303
-0.272968245967921,2774.99575404303
-0.280940913600398,2775.00575404303
-0.288357526464402,2775.01575404303
-0.295590637073081,2775.02575404303
-0.302813991685978,2775.03575404303
-0.30962813024064,2775.04575404303
-0.316347309968728,2775.05575404303
-0.323454317992688,2775.06575404303
-0.331194767261689,2775.07575404303
-0.338119186102427,2775.08575404303
-0.342436973220078,2775.09575404303
-0.339584480851831,2775.10575404303
-0.322754497959681,2775.11575404303
-0.28618778713226,2775.12575404303
-0.225876161336441,2775.13575404303
-0.142147578126153,2775.14575404303
-0.0388261910127932,2775.15575404303
0.0762028073949175,2775.16575404303
0.192651725623905,2775.17575404303
0.299288549129653,2775.18575404303
0.387930487053586,2775.19575404303
0.453270756544974,2775.20575404303
0.495238779306705,2775.21575404303
0.515793727238844,2775.22575404303
0.52005772353899,2775.23575404303
0.512931760435793,2775.24575404303
0.499109063216466,2775.25575404303
0.48197107510835,2775.26575404303
0.463397659431833,2775.27575404303
0.444757577403288,2775.28575404303
0.42619366826969,2775.29575404303
0.408277909282332,2775.30575404303
0.392024925206677,2775.31575404303
0.377395062671804,2775.32575404303
0.364070024310754,2775.33575404303
0.351870606767888,2775.34575404303
0.339986722065364,2775.35575404303
0.327639977975083,2775.36575404303
0.313868167569968,2775.37575404303
0.298315659482133,2775.38575404303
0.281234574224976,2775.39575404303
0.263245063531566,2775.40575404303
0.245763448223363,2775.41575404303
0.229297019916,2775.42575404303
0.215366505063487,2775.43575404303
0.204176073708715,2775.44575404303
0.196344818416248,2775.45575404303
0.192346212895936,2775.46575404303
0.191644110525903,2775.47575404303
0.193944143751054,2775.48575404303
0.198777659524912,2775.49575404303
0.204735158124033,2775.50575404303
0.211920774149902,2775.51575404303
0.218807792394545,2775.52575404303
0.225360038336567,2775.53575404303
0.231920761112211,2775.54575404303
0.237762672973634,2775.55575404303
0.242433427058988,2775.56575404303
0.244802219616701,2775.57575404303
0.244436765578596,2775.58575404303
0.241331562204758,2775.59575404303
0.234625010694854,2775.60575404303
0.225337227517694,2775.61575404303
0.214572221576576,2775.62575404303
0.202564858074687,2775.63575404303
0.189441518105247,2775.64575404303
0.175781065201566,2775.65575404303
0.161058598309242,2775.66575404303
0.145910409142068,2775.67575404303
0.129978296488745,2775.68575404303
0.113844956023209,2775.69575404303
0.0979963493169693,2775.70575404303
0.0826862980514133,2775.71575404303
0.0681742786967588,2775.72575404303
0.0532739336457429,2775.73575404303
0.0379515561513871,2775.74575404303
0.0220159493863123,2775.75575404303
0.00550439860618367,2775.76575404303
-0.0109619318192043,2775.77575404303
-0.0272608313502292,2775.78575404303
-0.0431587181236136,2775.79575404303
-0.0590783698097229,2775.80575404303
-0.0745306007294141,2775.81575404303
-0.0895668068336012,2775.82575404303
-0.103424617457405,2775.83575404303
-0.116985040645718,2775.84575404303
-0.130116195905101,2775.85575404303
-0.142701838296279,2775.86575404303
-0.154679947548641,2775.87575404303
-0.165994669628728,2775.88575404303
-0.176719906840825,2775.89575404303
-0.18653316098308,2775.90575404303
-0.196214490473435,2775.91575404303
-0.20578619600912,2775.92575404303
-0.214972979153278,2775.93575404303
-0.224063659262716,2775.94575404303
-0.233192184461777,2775.95575404303
-0.242876866228532,2775.96575404303
-0.251805069343848,2775.97575404303
-0.260905998716401,2775.98575404303
-0.269930400967938,2775.99575404303
-0.277802251986224,2776.00575404303
-0.283107782474174,2776.01575404303
-0.282051566127362,2776.02575404303
-0.26878028446445,2776.03575404303
-0.236611538321025,2776.04575404303
-0.180505222555524,2776.05575404303
-0.0986698786939217,2776.06575404303
0.00567236168938609,2776.07575404303
0.12465149757662,2776.08575404303
0.247690539197228,2776.09575404303
0.362258548354828,2776.10575404303
0.459176334358443,2776.11575404303
0.531787013326365,2776.12575404303
0.57877466527353,2776.13575404303
0.602839495913408,2776.14575404303
0.608158932968469,2776.15575404303
0.599977697519537,2776.16575404303
0.584131311285597,2776.17575404303
0.564344063328276,2776.18575404303
0.543756876268426,2776.19575404303
0.523342213827117,2776.20575404303
0.503802736410383,2776.21575404303
0.485745555880641,2776.22575404303
0.469387227319326,2776.23575404303
0.45475794844461,2776.24575404303
0.441576077066151,2776.25575404303
0.430200631588418,2776.26575404303
0.419576613240598,2776.27575404303
0.408388627198843,2776.28575404303
0.397686283201572,2776.29575404303
0.384954490537873,2776.30575404303
0.370226686177632,2776.31575404303
0.353638186499764,2776.32575404303
0.335877775657022,2776.33575404303
0.317851005607037,2776.34575404303
0.300239074429112,2776.35575404303
0.28392094825455,2776.36575404303
0.269553833560714,2776.37575404303
0.25732514665336,2776.38575404303
0.24793012379771,2776.39575404303
0.240905436745319,2776.40575404303
0.23627923344559,2776.41575404303
0.233157241183723,2776.42575404303
0.231522974227893,2776.43575404303
0.231083646097669,2776.44575404303
0.230334991918848,2776.45575404303
0.229400312420411,2776.46575404303
0.227258827950489,2776.47575404303
0.224401630506662,2776.48575404303
0.220764614612006,2776.49575404303
0.215602586635434,2776.50575404303
0.208696409413017,2776.51575404303
0.200649263674172,2776.52575404303
0.191469620579927,2776.53575404303
0.181473075773578,2776.54575404303
0.170493616224872,2776.55575404303
0.1585062818225,2776.56575404303
0.145812497271702,2776.57575404303
0.131990302977726,2776.58575404303
0.117927506764271,2776.59575404303
0.103399185555906,2776.60575404303
0.0880848901775082,2776.61575404303
0.0729117637276225,2776.62575404303
0.057302723664056,2776.63575404303
0.042238110688826,2776.64575404303
0.0268164013124463,2776.65575404303
0.011033342642527,2776.66575404303
-0.00459776277645558,2776.67575404303
-0.0208110704853894,2776.68575404303
-0.0365663367316737,2776.69575404303
-0.0521044157402945,2776.70575404303
-0.0669717936314907,2776.71575404303
-0.0819290798630024,2776.72575404303
-0.0966883688837173,2776.73575404303
-0.111311358341321,2776.74575404303
-0.125787861992971,2776.75575404303
-0.1390690355131,2776.76575404303
-0.15192507132237,2776.77575404303
-0.164457287169073,2776.78575404303
-0.177076386191039,2776.79575404303
-0.189541542524129,2776.80575404303
-0.202286634962448,2776.81575404303
-0.214482425640599,2776.82575404303
-0.226156158751389,2776.83575404303
-0.237292469536263,2776.84575404303
-0.247476879736006,2776.85575404303
-0.256778408710862,2776.86575404303
-0.266040088718343,2776.87575404303
-0.275484925100502,2776.88575404303
-0.284978431577083,2776.89575404303
-0.294248859889656,2776.90575404303
-0.303837264746508,2776.91575404303
-0.312683802554561,2776.92575404303
-0.318643847011754,2776.93575404303
-0.317401145214378,2776.94575404303
-0.303458160914528,2776.95575404303
-0.271312809172723,2776.96575404303
-0.216385062671965,2776.97575404303
-0.139870617347248,2776.98575404303
-0.0446606634216973,2776.99575404303
0.0609778000842923,2777.00575404303
0.167214222026428,2777.01575404303
0.264083399355729,2777.02575404303
0.343599233627577,2777.03575404303
0.401419914088753,2777.04575404303
0.437416252182279,2777.05575404303
0.454068581386156,2777.06575404303
0.455347584546658,2777.07575404303
0.446037982806994,2777.08575404303
0.429620403564814,2777.09575404303
0.40988732270176,2777.10575404303
0.388942713746887,2777.11575404303
0.368200857644681,2777.12575404303
0.349177300868607,2777.13575404303
0.331689488096689,2777.14575404303
0.31619549821555,2777.15575404303
0.302361143653679,2777.16575404303
0.290170964722438,2777.17575404303
0.278116381312867,2777.18575404303
0.266243165752683,2777.19575404303
0.253448592503929,2777.20575404303
0.239194331021265,2777.21575404303
0.223103164754985,2777.22575404303
0.205637565464553,2777.23575404303
0.18712667300681,2777.24575404303
0.168226581282575,2777.25575404303
0.150580549731866,2777.26575404303
0.134302377483038,2777.27575404303
0.120121644973284,2777.28575404303
0.109251986028528,2777.29575404303
0.100568742054001,2777.30575404303
0.09418826118156,2777.31575404303
0.090205355091506,2777.32575404303
0.0877174545207442,2777.33575404303
0.0863351861970981,2777.34575404303
0.0851487638822886,2777.35575404303
0.084294297531301,2777.36575404303
0.0828563702573766,2777.37575404303
0.0803834236287159,2777.38575404303
0.076564894238435,2777.39575404303
0.0709725785967969,2777.40575404303
0.0638449392205324,2777.41575404303
0.0556588456785096,2777.42575404303
0.0470548328052654,2777.43575404303
0.0376372618469761,2777.44575404303
0.0276434644442116,2777.45575404303
0.0170873822587061,2777.46575404303
0.00541926133795647,2777.47575404303
-0.00633857049854284,2777.48575404303
-0.0189968297451845,2777.49575404303
-0.032572854011474,2777.50575404303
-0.0464161240657713,2777.51575404303
-0.0615102463173835,2777.52575404303
-0.0771875717304892,2777.53575404303
-0.0929879668443243,2777.54575404303
-0.109340553009874,2777.55575404303
-0.124716727975946,2777.56575404303
-0.140021639887877,2777.57575404303
-0.155097401606078,2777.58575404303
-0.169869646780365,2777.59575404303
-0.184572656251593,2777.60575404303
-0.199392850650811,2777.61575404303
-0.213793541979645,2777.62575404303
-0.228223154037234,2777.63575404303
-0.242845704421066,2777.64575404303
-0.257405936846103,2777.65575404303
-0.271860688982304,2777.66575404303
-0.285742198024798,2777.67575404303
-0.299962135956318,2777.68575404303
-0.3136477439592,2777.69575404303
-0.327413287960705,2777.70575404303
-0.340594836518754,2777.71575404303
-0.353215201840565,2777.72575404303
-0.365719789913906,2777.73575404303
-0.378102896027674,2777.74575404303
-0.390855669272048,2777.75575404303
-0.403174168351017,2777.76575404303
-0.415166463456997,2777.77575404303
-0.426535648728812,2777.78575404303
-0.43691104081176,2777.79575404303
-0.446481754268304,2777.80575404303
-0.455747692839505,2777.81575404303
-0.464487248233984,2777.82575404303
-0.473902895115924,2777.83575404303
-0.483761625527194,2777.84575404303
-0.493340475943895,2777.85575404303
-0.50232185183395,2777.86575404303
-0.507511410382057,2777.87575404303
-0.505052896461105,2777.88575404303
-0.490013197460051,2777.89575404303
-0.459008202505877,2777.90575404303
-0.410301090096163,2777.91575404303
-0.344794219893015,2777.92575404303
-0.266782814781559,2777.93575404303
-0.182522185502949,2777.94575404303
-0.0996128935134746,2777.95575404303
-0.0243586468868984,2777.96575404303
0.0377166172305829,2777.97575404303
0.0837212430712186,2777.98575404303
0.11306875867901,2777.99575404303
0.127737963985693,2778.00575404303
0.130282720004409,2778.01575404303
0.124317960242657,2778.02575404303
0.113142097806904,2778.03575404303
0.0992543550841493,2778.04575404303
0.0836653494431545,2778.05575404303
0.0673601487039682,2778.06575404303
0.0508998281993065,2778.07575404303
0.0352646920341353,2778.08575404303
0.0199972969735536,2778.09575404303
0.00509199029118296,2778.10575404303
-0.00905440555413429,2778.11575404303
-0.0229151051500792,2778.12575404303
-0.0365908635702721,2778.13575404303
-0.0512809965600518,2778.14575404303
-0.0664731749193627,2778.15575404303
-0.0824681881141041,2778.16575404303
-0.0985275717664239,2778.17575404303
-0.114564411822995,2778.18575404303
-0.129994555924046,2778.19575404303
-0.143735916775307,2778.20575404303
-0.154892189519705,2778.21575404303
-0.163479929911272,2778.22575404303
-0.169351496286466,2778.23575404303
-0.173392540791552,2778.24575404303
-0.175215702344742,2778.25575404303
-0.175484853306907,2778.26575404303
-0.174658834037366,2778.27575404303
-0.17354040932543,2778.28575404303
-0.172579762497013,2778.29575404303
-0.172225734357232,2778.30575404303
-0.172870732934505,2778.31575404303
-0.174303388724109,2778.32575404303
-0.176170844276295,2778.33575404303
-0.179237374502026,2778.34575404303
-0.183629416903947,2778.35575404303
-0.188770040393143,2778.36575404303
-0.195277546689948,2778.37575404303
-0.202036251359372,2778.38575404303
-0.209511435077796,2778.39575404303
-0.217081517307173,2778.40575404303
-0.224829755696566,2778.41575404303
-0.233269763050467,2778.42575404303
-0.241635131061648,2778.43575404303
-0.250472075106389,2778.44575404303
-0.259710095980987,2778.45575404303
-0.268858555941496,2778.46575404303
-0.278301372174894,2778.47575404303
-0.287948265954432,2778.48575404303
-0.297989526995616,2778.49575404303
-0.30823166089662,2778.50575404303
-0.318920424784802,2778.51575404303
-0.330420677569539,2778.52575404303
-0.342488384111712,2778.53575404303
-0.354990276625629,2778.54575404303
-0.366667908405176,2778.55575404303
-0.37760894479344,2778.56575404303
-0.388295098351021,2778.57575404303
-0.398413149227966,2778.58575404303
-0.407970454508321,2778.59575404303
-0.417651217676357,2778.60575404303
-0.427249174572632,2778.61575404303
-0.436802433889504,2778.62575404303
-0.446090755073935,2778.63575404303
-0.455650568877037,2778.64575404303
-0.465476172160674,2778.65575404303
-0.475481302460091,2778.66575404303
-0.485768215271633,2778.67575404303
-0.496119427736349,2778.68575404303
-0.507170372962488,2778.69575404303
-0.517526506816858,2778.70575404303
-0.527701327011858,2778.71575404303
-0.537120018616017,2778.72575404303
-0.544795836838603,2778.73575404303
-0.547538002730338,2778.74575404303
-0.54108618174989,2778.75575404303
-0.521492336155799,2778.76575404303
-0.486575293797121,2778.77575404303
-0.436134819156623,2778.78575404303
-0.373481190447645,2778.79575404303
-0.303677519794762,2778.80575404303
-0.231929110218779,2778.81575404303
-0.165123673779435,2778.82575404303
-0.106934277822077,2778.83575404303
-0.0605581930433209,2778.84575404303
-0.0262407254082696,2778.85575404303
-0.00405042881429491,2778.86575404303
0.00773887767163868,2778.87575404303
0.0109629604606704,2778.88575404303
0.00691334892395874,2778.89575404303
-0.00197521948892689,2778.90575404303
-0.0135182713782253,2778.91575404303
-0.0265220786508016,2778.92575404303
-0.0398798664486242,2778.93575404303
-0.0527246336832515,2778.94575404303
-0.0648566844313825,2778.95575404303
-0.0760672034521161,2778.96575404303
-0.0869861418920063,2778.97575404303
-0.0969736598080807,2778.98575404303
-0.105975255474778,2778.99575404303
-0.115019899270985,2779.00575404303
-0.124853430543164,2779.01575404303
-0.134996899866434,2779.02575404303
-0.146016420435852,2779.03575404303
-0.157585666619217,2779.04575404303
-0.169326126790999,2779.05575404303
-0.180549740232572,2779.06575404303
-0.190512067683296,2779.07575404303
-0.199019164739344,2779.08575404303
-0.205870087699709,2779.09575404303
-0.210986689039231,2779.10575404303
-0.214277015202227,2779.11575404303
-0.216551278380232,2779.12575404303
-0.217775108895866,2779.13575404303
-0.217731138468417,2779.14575404303
-0.217425246030481,2779.15575404303
-0.217459611957419,2779.16575404303
-0.217530724176796,2779.17575404303
-0.218241294384467,2779.18575404303
-0.220087105728216,2779.19575404303
-0.222688355023983,2779.20575404303
-0.226280038498918,2779.21575404303
-0.230237250313688,2779.22575404303
-0.235097800660424,2779.23575404303
-0.240974733842645,2779.24575404303
-0.247543749708606,2779.25575404303
-0.255501885862539,2779.26575404303
-0.263891397949218,2779.27575404303
-0.27320759911643,2779.28575404303
-0.282885392309817,2779.29575404303
-0.292318321352219,2779.30575404303
-0.301872488270915,2779.31575404303
-0.311934114477145,2779.32575404303
-0.322060767970923,2779.33575404303
-0.333039939030827,2779.34575404303
-0.343985574075888,2779.35575404303
-0.355236924314965,2779.36575404303
-0.366299759982539,2779.37575404303
-0.376802586894519,2779.38575404303
-0.387097681676529,2779.39575404303
-0.397129207424939,2779.40575404303
-0.406747633746696,2779.41575404303
-0.416387693371996,2779.42575404303
-0.425185179448676,2779.43575404303
-0.433319766019823,2779.44575404303
-0.440743373731837,2779.45575404303
-0.448261289737611,2779.46575404303
-0.455602473390248,2779.47575404303
-0.463241266178339,2779.48575404303
-0.470640540585451,2779.49575404303
-0.477141248776476,2779.50575404303
-0.482826641454348,2779.51575404303
-0.487172344197352,2779.52575404303
-0.491430639932723,2779.53575404303
-0.494868964054935,2779.54575404303
-0.498135706028779,2779.55575404303
-0.501863829273185,2779.56575404303
-0.505569513581826,2779.57575404303
-0.510022604618124,2779.58575404303
-0.515163696850447,2779.59575404303
-0.52033829783956,2779.60575404303
-0.525461782647485,2779.61575404303
-0.527717992215302,2779.62575404303
-0.523721571977476,2779.63575404303
-0.509695225083938,2779.64575404303
-0.482134214213519,2779.65575404303
-0.441649211693184,2779.66575404303
-0.388217281647101,2779.67575404303
-0.326686170107008,2779.68575404303
-0.262910762962512,2779.69575404303
-0.201044856435499,2779.70575404303
-0.146607311401834,2779.71575404303
-0.10166572201553,2779.72575404303
-0.0678882716923797,2779.73575404303
-0.04570495781011,2779.74575404303
-0.0335622422269137,2779.75575404303
-0.0293849232217072,2779.76575404303
-0.0311178035785138,2779.77575404303
-0.0362848184431036,2779.78575404303
-0.0438497391882257,2779.79575404303
-0.0522364190768997,2779.80575404303
-0.0610373436648247,2779.81575404303
-0.0688774304068072,2779.82575404303
-0.0763514690375724,2779.83575404303
-0.0831840774836383,2779.84575404303
-0.0888477970529832,2779.85575404303
-0.0945652579229575,2779.86575404303
-0.0997364374091797,2779.87575404303
-0.104947440320146,2779.88575404303
-0.110812322653709,2779.89575404303
-0.11755784644318,2779.90575404303
-0.126025635635206,2779.91575404303
-0.134977978583552,2779.92575404303
-0.145089947566938,2779.93575404303
-0.155860953082445,2779.94575404303
-0.166341321967691,2779.95575404303
-0.175898494696093,2779.96575404303
-0.18452070299581,2779.97575404303
-0.19131234077061,2779.98575404303
-0.196738040150478,2779.99575404303
-0.2006580351407,2780.00575404303
-0.204212505223516,2780.01575404303
-0.207101853922561,2780.02575404303
-0.20973476893528,2780.03575404303
-0.212049415720992,2780.04575404303
-0.213822936809371,2780.05575404303
-0.21608442292981,2780.06575404303
-0.218536761333639,2780.07575404303
-0.221503983793689,2780.08575404303
-0.225486417781273,2780.09575404303
-0.229857028880837,2780.10575404303
-0.235076352862354,2780.11575404303
-0.240641613094108,2780.12575404303
-0.246906985939413,2780.13575404303
-0.25377671937708,2780.14575404303
-0.261211391974784,2780.15575404303
-0.269102843586555,2780.16575404303
-0.277394086206724,2780.17575404303
-0.286377351278142,2780.18575404303
-0.295842846655337,2780.19575404303
-0.305915214390616,2780.20575404303
-0.315997208402873,2780.21575404303
-0.326300507793754,2780.22575404303
-0.336682517190291,2780.23575404303
-0.346558768747576,2780.24575404303
-0.356621979172438,2780.25575404303
-0.365992517391699,2780.26575404303
-0.375284605355418,2780.27575404303
-0.384809753230403,2780.28575404303
-0.394408945333903,2780.29575404303
-0.403524905107533,2780.30575404303
-0.412739566738836,2780.31575404303
-0.422008715778115,2780.32575404303
-0.430707106311378,2780.33575404303
-0.439164587368908,2780.34575404303
-0.447432714898971,2780.35575404303
-0.455720191139135,2780.36575404303
-0.464078201983121,2780.37575404303
-0.472388024333651,2780.38575404303
-0.480174383615585,2780.39575404303
-0.487942850723692,2780.40575404303
-0.495080276185008,2780.41575404303
-0.501850221848578,2780.42575404303
-0.508118232478861,2780.43575404303
-0.514487193698564,2780.44575404303
-0.521130267748278,2780.45575404303
-0.527955754824601,2780.46575404303
-0.53448987886582,2780.47575404303
-0.541646269854107,2780.48575404303
-0.548868041036347,2780.49575404303
-0.556070674352357,2780.50575404303
-0.56333322475672,2780.51575404303
-0.570118898997036,2780.52575404303
-0.575588011504932,2780.53575404303
-0.577724276742109,2780.54575404303
-0.573081611735484,2780.55575404303
-0.557275633794736,2780.56575404303
-0.528451287833515,2780.57575404303
-0.486339019168669,2780.58575404303
-0.432694997394718,2780.59575404303
-0.372010018934074,2780.60575404303
-0.309431727344957,2780.61575404303
-0.249633287762669,2780.62575404303
-0.196896976170301,2780.63575404303
-0.153356538406943,2780.64575404303
-0.12000868739231,2780.65575404303
-0.096972024209093,2780.66575404303
-0.0830904151221241,2780.67575404303
-0.0759555485272188,2780.68575404303
-0.0746832350843261,2780.69575404303
-0.0769398785363964,2780.70575404303
-0.082120927239188,2780.71575404303
-0.0883495771913852,2780.72575404303
-0.0956575443195259,2780.73575404303
-0.103298767149022,2780.74575404303
-0.110591363718651,2780.75575404303
-0.11739020369256,2780.76575404303
-0.123707935842426,2780.77575404303
-0.129527753485368,2780.78575404303
-0.135622264665771,2780.79575404303
-0.14170852731914,2780.80575404303
-0.148243888951142,2780.81575404303
-0.156675055584719,2780.82575404303
-0.166603100544175,2780.83575404303
-0.177276921169888,2780.84575404303
-0.187483116755794,2780.85575404303
-0.197793676006723,2780.86575404303
-0.206133367876359,2780.87575404303
-0.213207148356553,2780.88575404303
-0.218170136242454,2780.89575404303
-0.221763023686785,2780.90575404303
-0.223666287958293,2780.91575404303
-0.225018088511568,2780.92575404303
-0.225180154462773,2780.93575404303
-0.224498449378639,2780.94575404303
-0.224301517713553,2780.95575404303
-0.2238882515471,2780.96575404303
-0.224476523673697,2780.97575404303
-0.225512143472355,2780.98575404303
-0.226579844759342,2780.99575404303
-0.227722431100923,2781.00575404303
-0.229210480727927,2781.01575404303
-0.231165068928696,2781.02575404303
-0.234539026177097,2781.03575404303
-0.239188365285634,2781.04575404303
-0.244903901620623,2781.05575404303
-0.251492013574002,2781.06575404303
-0.258543811905191,2781.07575404303
-0.265612987943699,2781.08575404303
-0.27265811317323,2781.09575404303
-0.279792567247045,2781.10575404303
-0.286396874217292,2781.11575404303
-0.293335608490534,2781.12575404303
-0.300795880876958,2781.13575404303
-0.308794900794054,2781.14575404303
-0.317637292216503,2781.15575404303
-0.326450272339321,2781.16575404303
-0.335747839449049,2781.17575404303
-0.344572731588728,2781.18575404303
-0.353497352593455,2781.19575404303
-0.361855726072014,2781.20575404303
-0.370454493513708,2781.21575404303
-0.378497643735979,2781.22575404303
-0.386470898325222,2781.23575404303
-0.395134703532942,2781.24575404303
-0.403384152600928,2781.25575404303
-0.411494213431255,2781.26575404303
-0.419630176971221,2781.27575404303
-0.427803438686938,2781.28575404303
-0.43530076069043,2781.29575404303
-0.442534831247375,2781.30575404303
-0.449167006100218,2781.31575404303
-0.455625206348729,2781.32575404303
-0.462072722255886,2781.33575404303
-0.469075431595109,2781.34575404303
-0.475959268289752,2781.35575404303
-0.482842529899877,2781.36575404303
-0.489711939325127,2781.37575404303
-0.496220844667655,2781.38575404303
-0.50201600617964,2781.39575404303
-0.508056959303865,2781.40575404303
-0.513650781194258,2781.41575404303
-0.519310615247734,2781.42575404303
-0.524994733096191,2781.43575404303
-0.530742067765257,2781.44575404303
-0.53492200742311,2781.45575404303
-0.534916724265466,2781.46575404303
-0.527395770088548,2781.47575404303
-0.508214864064407,2781.48575404303
-0.475119824417268,2781.49575404303
-0.428842477768372,2781.50575404303
-0.372477962479477,2781.51575404303
-0.311005070693966,2781.52575404303
-0.249139261154618,2781.53575404303
-0.19197843937886,2781.54575404303
-0.142629643947478,2781.55575404303
-0.102977025480698,2781.56575404303
-0.0735707112959197,2781.57575404303
-0.0542051548389163,2781.58575404303
-0.0437702802252073,2781.59575404303
-0.0395809790879046,2781.60575404303
-0.0401787529097006,2781.61575404303
-0.0438861708172928,2781.62575404303
-0.0495230811067725,2781.63575404303
-0.0558386876067118,2781.64575404303
-0.0624560922322574,2781.65575404303
-0.068862938474725,2781.66575404303
-0.0749284540082173,2781.67575404303
-0.0804026508774151,2781.68575404303
-0.085378540040388,2781.69575404303
-0.0899000066394953,2781.70575404303
-0.094427063747217,2781.71575404303
-0.0993485925843764,2781.72575404303
-0.10508292493403,2781.73575404303
-0.11240008461397,2781.74575404303
-0.120372141873138,2781.75575404303
-0.129195189001234,2781.76575404303
-0.13804943519128,2781.77575404303
-0.147088666147696,2781.78575404303
-0.155239547262509,2781.79575404303
-0.161847138286603,2781.80575404303
-0.166558571324321,2781.81575404303
-0.169438175575003,2781.82575404303
-0.170954284805449,2781.83575404303
-0.172012408549675,2781.84575404303
-0.17219077893618,2781.85575404303
-0.17220940760651,2781.86575404303
-0.171750621008265,2781.87575404303
-0.171143696127961,2781.88575404303
-0.170765257753492,2781.89575404303
-0.171231387446286,2781.90575404303
-0.172268610993153,2781.91575404303
-0.174187541855185,2781.92575404303
-0.176870221154902,2781.93575404303
-0.179755430394976,2781.94575404303
-0.182994855208128,2781.95575404303
-0.186552658510261,2781.96575404303
-0.190901824275343,2781.97575404303
-0.196634076132646,2781.98575404303
-0.203138160240929,2781.99575404303
-0.209896538332506,2782.00575404303
-0.217125689678541,2782.01575404303
-0.224567309439639,2782.02575404303
-0.231744933064265,2782.03575404303
-0.239627757966024,2782.04575404303
-0.247102452390794,2782.05575404303
-0.255020139573671,2782.06575404303
-0.262746192212396,2782.07575404303
-0.270544357322876,2782.08575404303
-0.278479866851755,2782.09575404303
-0.286320143311307,2782.10575404303
-0.293652306514151,2782.11575404303
-0.301230771089281,2782.12575404303
-0.308978277990431,2782.13575404303
-0.316668067111696,2782.14575404303
-0.324012940024099,2782.15575404303
-0.331749656921725,2782.16575404303
-0.339096291968339,2782.17575404303
-0.346255835470008,2782.18575404303
-0.353041385040536,2782.19575404303
-0.359574020599257,2782.20575404303
-0.366100548202646,2782.21575404303
-0.372823512200587,2782.22575404303
-0.379662352328696,2782.23575404303
-0.387463242589305,2782.24575404303
-0.395692025202418,2782.25575404303
-0.403179425612819,2782.26575404303
-0.410042380373508,2782.27575404303
-0.416406569706844,2782.28575404303
-0.421544020221046,2782.29575404303
-0.427039346467184,2782.30575404303
-0.43208399873172,2782.31575404303
-0.438051904786802,2782.32575404303
-0.444514692975858,2782.33575404303
-0.451170798911975,2782.34575404303
-0.457975835718578,2782.35575404303
-0.463776380330081,2782.36575404303
-0.467035873132177,2782.37575404303
-0.465334376313354,2782.38575404303
-0.455978448916225,2782.39575404303
-0.435971231884455,2782.40575404303
-0.403419157793767,2782.41575404303
-0.357933950911285,2782.42575404303
-0.302377683033337,2782.43575404303
-0.240534570630954,2782.44575404303
-0.17715604927951,2782.45575404303
-0.117034557777049,2782.46575404303
-0.0646221368344244,2782.47575404303
-0.0224838470588406,2782.48575404303
0.00821269552069251,2782.49575404303
0.028273348989283,2782.50575404303
0.0398197436078604,2782.51575404303
0.0445869479553405,2782.52575404303
0.0443858658815454,2782.53575404303
0.0403502255036492,2782.54575404303
0.0342390166487309,2782.55575404303
0.0264883733079522,2782.56575404303
0.0189198904378919,2782.57575404303
0.0119037857609668,2782.58575404303
0.00604253488960586,2782.59575404303
0.000697422321100822,2782.60575404303
-0.0038451205764591,2782.61575404303
-0.00840349077857034,2782.62575404303
-0.0129222834586281,2782.63575404303
-0.0179647668177733,2782.64575404303
-0.0231807281209495,2782.65575404303
-0.0291233332226638,2782.66575404303
-0.0364541207663258,2782.67575404303
-0.0446931869583806,2782.68575404303
-0.0532283186273144,2782.69575404303
-0.0616110689157267,2782.70575404303
-0.0692033225648584,2782.71575404303
-0.0750213034901199,2782.72575404303
-0.0790768806123324,2782.73575404303
-0.080787689222505,2782.74575404303
-0.0802859428482852,2782.75575404303
-0.0782370072553857,2782.76575404303
-0.0751986155113397,2782.77575404303
-0.0718768495384285,2782.78575404303
-0.0686202961286787,2782.79575404303
-0.0661865855902291,2782.80575404303
-0.0634991274202172,2782.81575404303
-0.0616505818870408,2782.82575404303
-0.060608684815593,2782.83575404303
-0.0604485959826705,2782.84575404303
-0.0619406393154632,2782.85575404303
-0.0651830943195664,2782.86575404303
-0.0696990556581769,2782.87575404303
-0.0747761069413046,2782.88575404303
-0.0801376688223962,2782.89575404303
-0.0856774336280907,2782.90575404303
-0.0905648432566117,2782.91575404303
-0.0960381049353941,2782.92575404303
-0.102314579278126,2782.93575404303
-0.108976390098953,2782.94575404303
-0.116224526184893,2782.95575404303
-0.124049524803062,2782.96575404303
-0.131919847120082,2782.97575404303
-0.140238246269765,2782.98575404303
-0.148485239924556,2782.99575404303
-0.156619604913677,2783.00575404303
-0.164469775600263,2783.01575404303
-0.172024490220677,2783.02575404303
-0.178763738656554,2783.03575404303
-0.185258311366818,2783.04575404303
-0.191794297771463,2783.05575404303
-0.198703817025084,2783.06575404303
-0.205794628502472,2783.07575404303
-0.213150553182736,2783.08575404303
-0.221133124154861,2783.09575404303
-0.229384801178115,2783.10575404303
-0.237453087003301,2783.11575404303
-0.245957405859976,2783.12575404303
-0.25334733788563,2783.13575404303
-0.260067464375424,2783.14575404303
-0.266638921867814,2783.15575404303
-0.273161807263061,2783.16575404303
-0.279300517168668,2783.17575404303
-0.28527928172674,2783.18575404303
-0.291550355775929,2783.19575404303
-0.297778378676251,2783.20575404303
-0.303892401350182,2783.21575404303
-0.310011159473137,2783.22575404303
-0.315991835148843,2783.23575404303
-0.321515509375425,2783.24575404303
-0.32660074027501,2783.25575404303
-0.32928367915698,2783.26575404303
-0.326356768529269,2783.27575404303
-0.313765254964423,2783.28575404303
-0.289013425819106,2783.29575404303
-0.250764681439501,2783.30575404303
-0.200045842631282,2783.31575404303
-0.141841820313387,2783.32575404303
-0.0796250865450076,2783.33575404303
-0.0188566248464473,2783.34575404303
0.0362796678449043,2783.35575404303
0.0828375399341969,2783.36575404303
0.118461961282321,2783.37575404303
0.144116791058527,2783.38575404303
0.159215910371568,2783.39575404303
0.166570436873662,2783.40575404303
0.168007563980113,2783.41575404303
0.165083874060162,2783.42575404303
0.159725134017826,2783.43575404303
0.152614659364086,2783.44575404303
0.145043239892768,2783.45575404303
0.136276945625173,2783.46575404303
0.127603194803341,2783.47575404303
0.119785844567682,2783.48575404303
0.112748756689654,2783.49575404303
0.106556301676847,2783.50575404303
0.100378124660601,2783.51575404303
0.0934013211773857,2783.52575404303
0.0852566465938166,2783.53575404303
0.0763558523905261,2783.54575404303
0.0662622732847606,2783.55575404303
0.0555018585600278,2783.56575404303
0.0452253339464323,2783.57575404303
0.0355354464476381,2783.58575404303
0.0272612564100401,2783.59575404303
0.0212345480168893,2783.60575404303
0.0176773434194878,2783.61575404303
0.0161789474875516,2783.62575404303
0.0164212105914135,2783.63575404303
0.0178874338645072,2783.64575404303
0.0204698626204949,2783.65575404303
0.0236624593048551,2783.66575404303
0.0274443884157686,2783.67575404303
0.031553872092841,2783.68575404303
0.0342107673041774,2783.69575404303
0.0357186950272275,2783.70575404303
0.0357632592477452,2783.71575404303
0.0342106237485264,2783.72575404303
0.0316082016980472,2783.73575404303
0.0283047254303411,2783.74575404303
0.0247738975967771,2783.75575404303
0.0206018863387922,2783.76575404303
0.0160621384096596,2783.77575404303
0.00989313601521996,2783.78575404303
0.00309804913761926,2783.79575404303
-0.00425310173182065,2783.80575404303
-0.0124756970656678,2783.81575404303
-0.0206632371924198,2783.82575404303
-0.0284882484074179,2783.83575404303
-0.0360531617332317,2783.84575404303
-0.0437278886406039,2783.85575404303
-0.0515489799237176,2783.86575404303
-0.0593988671878145,2783.87575404303
-0.0678280974685055,2783.88575404303
-0.0766160760622755,2783.89575404303
-0.0856068324905938,2783.90575404303
-0.0946355153072744,2783.91575404303
-0.102914389593812,2783.92575404303
-0.11084766804601,2783.93575404303
-0.118339585399571,2783.94575404303
-0.125744071436938,2783.95575404303
-0.133036815907599,2783.96575404303
-0.140646978694588,2783.97575404303
-0.147822028897653,2783.98575404303
-0.154755847770898,2783.99575404303
-0.161378100912019,2784.00575404303
-0.167719857305861,2784.01575404303
-0.17414926692866,2784.02575404303
-0.1810895668725,2784.03575404303
-0.188604499378855,2784.04575404303
-0.195803121275343,2784.05575404303
-0.202806897050358,2784.06575404303
-0.209900680819771,2784.07575404303
-0.216238408176752,2784.08575404303
-0.22321596580236,2784.09575404303
-0.229639689974921,2784.10575404303
-0.234411109702656,2784.11575404303
-0.234754146549316,2784.12575404303
-0.226826348663566,2784.13575404303
-0.207227158785452,2784.14575404303
-0.173610633632675,2784.15575404303
-0.126778032420583,2784.16575404303
-0.0694422152860566,2784.17575404303
-0.00668121262787225,2784.18575404303
0.0557193026147826,2784.19575404303
0.112598730655606,2784.20575404303
0.161575148366149,2784.21575404303
0.201210239496208,2784.22575404303
0.231533570979623,2784.23575404303
0.253110540015311,2784.24575404303
0.267006699184586,2784.25575404303
0.274957035999745,2784.26575404303
0.27801961030921,2784.27575404303
0.27794378802089,2784.28575404303
0.27550738192196,2784.29575404303
0.271227402095671,2784.30575404303
0.26609165183928,2784.31575404303
0.260900943784504,2784.32575404303
0.255265463310035,2784.33575404303
0.250150996293807,2784.34575404303
0.244319037163952,2784.35575404303
0.238121303321855,2784.36575404303
0.231847253843949,2784.37575404303
0.224304049576642,2784.38575404303
0.216287526862206,2784.39575404303
0.207289520254948,2784.40575404303
0.197522747104448,2784.41575404303
0.187209048628949,2784.42575404303
0.177816237198967,2784.43575404303
0.168370296679717,2784.44575404303
0.159920213534486,2784.45575404303
0.152570917892648,2784.46575404303
0.146668548724709,2784.47575404303
0.142366495202535,2784.48575404303
0.13972900476334,2784.49575404303
0.138603282232627,2784.50575404303
0.138284458934543,2784.51575404303
0.138363329369483,2784.52575404303
0.137894132147277,2784.53575404303
0.137227658717376,2784.54575404303
0.13587270190649,2784.55575404303
0.134455555311163,2784.56575404303
0.132469836856422,2784.57575404303
0.130253983611048,2784.58575404303
0.127752332589122,2784.59575404303
0.124542176620762,2784.60575404303
0.12086831576393,2784.61575404303
0.116332125086413,2784.62575404303
0.110663125178588,2784.63575404303
0.104124523934044,2784.64575404303
0.0969481581551773,2784.65575404303
0.0889106865876172,2784.66575404303
0.0805412834808535,2784.67575404303
0.0722228139903134,2784.68575404303
0.0635746563198974,2784.69575404303
0.0552271417864746,2784.70575404303
0.0469449587635236,2784.71575404303
0.0382092790740789,2784.72575404303
