PPG,time
-0.28049442259894,3264.67688199941
-0.558267292418658,3264.68688199941
-0.488624061647051,3264.69688199941
-0.499156245031021,3264.70688199941
-0.414186898788563,3264.71688199941
-0.315252855539488,3264.72688199941
-0.143001218148471,3264.73688199941
0.0480094778660168,3264.74688199941
0.250829645069465,3264.75688199941
0.423691729546574,3264.76688199941
0.555934505859927,3264.77688199941
0.640627665682935,3264.78688199941
0.684669218890793,3264.79688199941
0.698920980236713,3264.80688199941
0.694749220189331,3264.81688199941
0.680630710212614,3264.82688199941
0.661662979335045,3264.83688199941
0.640425042521056,3264.84688199941
0.618157392459554,3264.85688199941
0.594482477850196,3264.86688199941
0.570220476961276,3264.87688199941
0.546368878730754,3264.88688199941
0.523469546130833,3264.89688199941
0.502153559584993,3264.90688199941
0.482818719022904,3264.91688199941
0.465127019275412,3264.92688199941
0.449229982802985,3264.93688199941
0.434857084626075,3264.94688199941
0.422081580435154,3264.95688199941
0.410918054910296,3264.96688199941
0.401245778790204,3264.97688199941
0.392780055765683,3264.98688199941
0.384485839444499,3264.99688199941
0.375449724619746,3265.00688199941
0.363557979086872,3265.01688199941
0.348568311929498,3265.02688199941
0.329951449005044,3265.03688199941
0.309518639708656,3265.04688199941
0.288817123332488,3265.05688199941
0.271366010233461,3265.06688199941
0.258855052425809,3265.07688199941
0.251924071022575,3265.08688199941
0.25079290758767,3265.09688199941
0.253806261303893,3265.10688199941
0.260898969852249,3265.11688199941
0.270293543179759,3265.12688199941
0.280040776859411,3265.13688199941
0.289241827794621,3265.14688199941
0.295983494898066,3265.15688199941
0.299457734751455,3265.16688199941
0.299518669311743,3265.17688199941
0.295402995736753,3265.18688199941
0.287793137092474,3265.19688199941
0.277015367255795,3265.20688199941
0.264157544129845,3265.21688199941
0.249733985340013,3265.22688199941
0.233396373811118,3265.23688199941
0.21580722749773,3265.24688199941
0.196845077652684,3265.25688199941
0.177398427945048,3265.26688199941
0.157392833287907,3265.27688199941
0.137107536616175,3265.28688199941
0.118082323274014,3265.29688199941
0.0997752909289948,3265.30688199941
0.0817718235247422,3265.31688199941
0.0640476419503766,3265.32688199941
0.0463950727787818,3265.33688199941
0.0285770158025506,3265.34688199941
0.0113015494285737,3265.35688199941
-0.00591789056016116,3265.36688199941
-0.022744076320011,3265.37688199941
-0.0395987216985568,3265.38688199941
-0.0565235657289172,3265.39688199941
-0.0727362405972755,3265.40688199941
-0.0902263747553459,3265.41688199941
-0.107797086928257,3265.42688199941
-0.125344470646664,3265.43688199941
-0.141447319911504,3265.44688199941
-0.156266477485522,3265.45688199941
-0.169810585807896,3265.46688199941
-0.182525053244951,3265.47688199941
-0.195078037796669,3265.48688199941
-0.207793840320981,3265.49688199941
-0.220395069979961,3265.50688199941
-0.23341737037054,3265.51688199941
-0.246440677856361,3265.52688199941
-0.258926029844574,3265.53688199941
-0.270895621485137,3265.54688199941
-0.282735991064684,3265.55688199941
-0.294387860616001,3265.56688199941
-0.306363961820873,3265.57688199941
-0.318128525468068,3265.58688199941
-0.330210540313807,3265.59688199941
-0.342277206644108,3265.60688199941
-0.353338666302334,3265.61688199941
-0.363136791212591,3265.62688199941
-0.372248703360713,3265.63688199941
-0.381636828037936,3265.64688199941
-0.391056267701724,3265.65688199941
-0.400600652874701,3265.66688199941
-0.409984504242074,3265.67688199941
-0.419144071077644,3265.68688199941
-0.427974317350529,3265.69688199941
-0.436027616251945,3265.70688199941
-0.443672840175293,3265.71688199941
-0.450567195435991,3265.72688199941
-0.457470787681097,3265.73688199941
-0.463955997035886,3265.74688199941
-0.46997048452784,3265.75688199941
-0.476126106465019,3265.76688199941
-0.481794529017554,3265.77688199941
-0.487605148898433,3265.78688199941
-0.494174523562071,3265.79688199941
-0.501480138656655,3265.80688199941
-0.509246986537241,3265.81688199941
-0.517629254697764,3265.82688199941
-0.52465136962465,3265.83688199941
-0.525996930414835,3265.84688199941
-0.511261637636834,3265.85688199941
-0.46610691805689,3265.86688199941
-0.375872773123201,3265.87688199941
-0.23491134400417,3265.88688199941
-0.0528794332383953,3265.89688199941
0.145601351952768,3265.90688199941
0.330857915311901,3265.91688199941
0.480059944353153,3265.92688199941
0.583170157312617,3265.93688199941
0.64233347961373,3265.94688199941
0.666472018239296,3265.95688199941
0.666575269635728,3265.96688199941
0.652835155654685,3265.97688199941
0.63186479372585,3265.98688199941
0.607690346184293,3265.99688199941
0.581729215896814,3266.00688199941
0.55525951060661,3266.01688199941
0.528440987847,3266.02688199941
0.502231681588551,3266.03688199941
0.476758339785775,3266.04688199941
0.452416363219972,3266.05688199941
0.42983617283898,3266.06688199941
0.409032113468186,3266.07688199941
0.390801763422174,3266.08688199941
0.374424062154471,3266.09688199941
0.359379634478481,3266.10688199941
0.34554223033489,3266.11688199941
0.33274156131167,3266.12688199941
0.321032557024776,3266.13688199941
0.309185575470535,3266.14688199941
0.29597764940002,3266.15688199941
0.280608188345501,3266.16688199941
0.263181943647441,3266.17688199941
0.244742260929873,3266.18688199941
0.226196494038413,3266.19688199941
0.211123289578198,3266.20688199941
0.201198614050491,3266.21688199941
0.198040297162495,3266.22688199941
0.201958547333259,3266.23688199941
0.21200897705979,3266.24688199941
0.227012729765275,3266.25688199941
0.245038774753885,3266.26688199941
0.262890404038084,3266.27688199941
0.27898609035263,3266.28688199941
0.292222825557335,3266.29688199941
0.300748354668182,3266.30688199941
0.304587979280341,3266.31688199941
0.303557971352467,3266.32688199941
0.297536336579951,3266.33688199941
0.286965663377486,3266.34688199941
0.273397990411226,3266.35688199941
0.257613719443942,3266.36688199941
0.24032124975543,3266.37688199941
0.222480239195909,3266.38688199941
0.204174063379995,3266.39688199941
0.186373016962009,3266.40688199941
0.169532293299573,3266.41688199941
0.153337942456693,3266.42688199941
0.13774218573558,3266.43688199941
0.122122632988547,3266.44688199941
0.106835919236861,3266.45688199941
0.0918716081564584,3266.46688199941
0.0767627330968027,3266.47688199941
0.0615604266824508,3266.48688199941
0.0467683255853613,3266.49688199941
0.0321337287743639,3266.50688199941
0.0173579146481653,3266.51688199941
0.00274580742489742,3266.52688199941
-0.0114847595782211,3266.53688199941
-0.0252287899005251,3266.54688199941
-0.0390942845816271,3266.55688199941
-0.0534390315350689,3266.56688199941
-0.0677313104708444,3266.57688199941
-0.0821913184307499,3266.58688199941
-0.0958206065846494,3266.59688199941
-0.109432671627746,3266.60688199941
-0.122709035589983,3266.61688199941
-0.135603160766079,3266.62688199941
-0.148449214940641,3266.63688199941
-0.160829928122195,3266.64688199941
-0.173484210480553,3266.65688199941
-0.186068812556796,3266.66688199941
-0.198093882148136,3266.67688199941
-0.209752398723072,3266.68688199941
-0.220965098891473,3266.69688199941
-0.231814977781593,3266.70688199941
-0.242721755634643,3266.71688199941
-0.252943989766404,3266.72688199941
-0.263268677696883,3266.73688199941
-0.273652252903832,3266.74688199941
-0.28345896873732,3266.75688199941
-0.293304234317996,3266.76688199941
-0.3034626583045,3266.77688199941
-0.313180792545315,3266.78688199941
-0.322325898151289,3266.79688199941
-0.331507452642399,3266.80688199941
-0.340827871189385,3266.81688199941
-0.349163000502542,3266.82688199941
-0.356722439673383,3266.83688199941
-0.363705380637958,3266.84688199941
-0.370302203852029,3266.85688199941
-0.376803682678647,3266.86688199941
-0.383484202203539,3266.87688199941
-0.39058019091334,3266.88688199941
-0.398340466420153,3266.89688199941
-0.406400447460182,3266.90688199941
-0.415065077575401,3266.91688199941
-0.423886337780677,3266.92688199941
-0.432177931360842,3266.93688199941
-0.437652612414927,3266.94688199941
-0.435151086410891,3266.95688199941
-0.412566400597133,3266.96688199941
-0.353612094358136,3266.97688199941
-0.246225582568268,3266.98688199941
-0.0896318422620454,3266.99688199941
0.0991370303466801,3267.00688199941
0.292670785093551,3267.01688199941
0.46309080653863,3267.02688199941
0.59307201746472,3267.03688199941
0.678772069237171,3267.04688199941
0.725270032448709,3267.05688199941
0.743286329901318,3267.06688199941
0.742466905827249,3267.07688199941
0.731236139726543,3267.08688199941
0.715512299164052,3267.09688199941
0.697555255304044,3267.10688199941
0.678950094317533,3267.11688199941
0.659968951263358,3267.12688199941
0.641082984082778,3267.13688199941
0.622677503760081,3267.14688199941
0.605867809617991,3267.15688199941
0.590643913206463,3267.16688199941
0.576818390893822,3267.17688199941
0.564538150976798,3267.18688199941
0.554324535742101,3267.19688199941
0.545331530313085,3267.20688199941
0.537240694029345,3267.21688199941
0.53077910744956,3267.22688199941
0.525016246705961,3267.23688199941
0.519127054787152,3267.24688199941
0.513160024877493,3267.25688199941
0.506392689557769,3267.26688199941
0.496212739508395,3267.27688199941
0.482157845861356,3267.28688199941
0.464901286310472,3267.29688199941
0.445655555982443,3267.30688199941
0.427263294335075,3267.31688199941
0.411564314459709,3267.32688199941
0.399832087500758,3267.33688199941
0.393251623090601,3267.34688199941
0.391533686422019,3267.35688199941
0.393833670602476,3267.36688199941
0.399495102298817,3267.37688199941
0.406740989292878,3267.38688199941
0.415454145397076,3267.39688199941
0.423317210527339,3267.40688199941
0.429059705659098,3267.41688199941
0.432241518311223,3267.42688199941
0.431684417420662,3267.43688199941
0.427081103618154,3267.44688199941
0.419287994360555,3267.45688199941
0.408749981989004,3267.46688199941
0.396350270908431,3267.47688199941
0.381548642298598,3267.48688199941
0.365569844252352,3267.49688199941
0.348383897425686,3267.50688199941
0.33041683582533,3267.51688199941
0.312412075673845,3267.52688199941
0.294431015675938,3267.53688199941
0.276543478797527,3267.54688199941
0.258482721705398,3267.55688199941
0.240642398093489,3267.56688199941
0.223070091932963,3267.57688199941
0.205889950054561,3267.58688199941
0.188845212120617,3267.59688199941
0.171659186759497,3267.60688199941
0.154938734459593,3267.61688199941
0.138035021410948,3267.62688199941
0.121667430662405,3267.63688199941
0.105972403621139,3267.64688199941
0.0906981327847877,3267.65688199941
0.0757552230117613,3267.66688199941
0.0605175202390531,3267.67688199941
0.0455958224556981,3267.68688199941
0.0306400403520132,3267.69688199941
0.0155418344628112,3267.70688199941
0.000599019972969892,3267.71688199941
-0.0139495412535995,3267.72688199941
-0.0285787352139049,3267.73688199941
-0.0429137027371914,3267.74688199941
-0.0569762034615352,3267.75688199941
-0.0710146629783893,3267.76688199941
-0.0851503529459278,3267.77688199941
-0.0987236352447302,3267.78688199941
-0.111865368162554,3267.79688199941
-0.124421319403626,3267.80688199941
-0.136299275389937,3267.81688199941
-0.147736156389382,3267.82688199941
-0.158446460615138,3267.83688199941
-0.169012617207612,3267.84688199941
-0.179544526154956,3267.85688199941
-0.189642901401835,3267.86688199941
-0.200161777339034,3267.87688199941
-0.210455053431127,3267.88688199941
-0.220572769598699,3267.89688199941
-0.231018076739341,3267.90688199941
-0.24145426468525,3267.91688199941
-0.251677508312088,3267.92688199941
-0.262039266012211,3267.93688199941
-0.272711750364752,3267.94688199941
-0.282742794225348,3267.95688199941
-0.292287764314787,3267.96688199941
-0.302338699874551,3267.97688199941
-0.312048134299304,3267.98688199941
-0.321095197078012,3267.99688199941
-0.330030087702825,3268.00688199941
-0.338845090187143,3268.01688199941
-0.347765701520039,3268.02688199941
-0.356184562088867,3268.03688199941
-0.364003846860828,3268.04688199941
-0.37198707554283,3268.05688199941
-0.378798466977667,3268.06688199941
-0.385984406842887,3268.07688199941
-0.393240748718919,3268.08688199941
-0.400491203208166,3268.09688199941
-0.408440124459715,3268.10688199941
-0.41679005159828,3268.11688199941
-0.42596801946053,3268.12688199941
-0.435654675392601,3268.13688199941
-0.443682802425193,3268.14688199941
-0.446901332208496,3268.15688199941
-0.436557312900042,3268.16688199941
-0.39701085283654,3268.17688199941
-0.313832116181706,3268.18688199941
-0.179408257408683,3268.19688199941
-0.00188918443443658,3268.20688199941
0.193715570348919,3268.21688199941
0.377964296380599,3268.22688199941
0.528041289006595,3268.23688199941
0.633209284046586,3268.24688199941
0.695651935025733,3268.25688199941
0.723771844374202,3268.26688199941
0.72903301853818,3268.27688199941
0.720793891186178,3268.28688199941
0.705531652564829,3268.29688199941
0.687045716967266,3268.30688199941
0.66764462841085,3268.31688199941
0.64833165123438,3268.32688199941
0.628202354676492,3268.33688199941
0.609112146301141,3268.34688199941
0.591118664147483,3268.35688199941
0.573932975001429,3268.36688199941
0.55823250229925,3268.37688199941
0.543700940303018,3268.38688199941
0.530071507814684,3268.39688199941
0.518316971576854,3268.40688199941
0.507582983841466,3268.41688199941
0.497958929369444,3268.42688199941
0.489364174940521,3268.43688199941
0.480941789259774,3268.44688199941
0.472452531239622,3268.45688199941
0.462512597987347,3268.46688199941
0.450091587749638,3268.47688199941
0.43423616345059,3268.48688199941
0.415060371421234,3268.49688199941
0.394325123887099,3268.50688199941
0.372993105898538,3268.51688199941
0.354015715450048,3268.52688199941
0.340256597878698,3268.53688199941
0.331663859271961,3268.54688199941
0.328808466273128,3268.55688199941
0.331148343222358,3268.56688199941
0.337599335618823,3268.57688199941
0.346587295532369,3268.58688199941
0.35624476376784,3268.59688199941
0.365252204352048,3268.60688199941
0.371719094194999,3268.61688199941
0.375395049976092,3268.62688199941
0.375295900665612,3268.63688199941
0.371783719892199,3268.64688199941
0.363674070630004,3268.65688199941
0.351647167885924,3268.66688199941
0.33686979281017,3268.67688199941
0.319360999095446,3268.68688199941
0.300515809391641,3268.69688199941
0.281034831463535,3268.70688199941
0.261724205225765,3268.71688199941
0.242902280919954,3268.72688199941
0.224748947857378,3268.73688199941
0.206235013052501,3268.74688199941
0.188197294937754,3268.75688199941
0.169590030560906,3268.76688199941
0.151257360792529,3268.77688199941
0.132236295751132,3268.78688199941
0.113894976472534,3268.79688199941
0.0953358930245586,3268.80688199941
0.0769320493206382,3268.81688199941
0.0588372931784212,3268.82688199941
0.0408641778535404,3268.83688199941
0.0229059385143869,3268.84688199941
0.00533615649605559,3268.85688199941
-0.011987859028497,3268.86688199941
-0.0288800420124961,3268.87688199941
-0.0454835128610441,3268.88688199941
-0.0616445827969689,3268.89688199941
-0.0777968344554134,3268.90688199941
-0.0942429607664338,3268.91688199941
-0.110307809244346,3268.92688199941
-0.125930500888708,3268.93688199941
-0.141030013194986,3268.94688199941
-0.155821237873076,3268.95688199941
-0.170200621102383,3268.96688199941
-0.183662476080024,3268.97688199941
-0.196859265154668,3268.98688199941
-0.210710488775871,3268.99688199941
-0.223963139431586,3269.00688199941
-0.236599731534294,3269.01688199941
-0.248661966383403,3269.02688199941
-0.260777255819379,3269.03688199941
-0.272686920368962,3269.04688199941
-0.284701146856703,3269.05688199941
-0.296630562858119,3269.06688199941
-0.308500840386274,3269.07688199941
-0.320234358212635,3269.08688199941
-0.330968632174202,3269.09688199941
-0.341580927452013,3269.10688199941
-0.351864368314641,3269.11688199941
-0.362077839559953,3269.12688199941
-0.372080814132607,3269.13688199941
-0.382101543859457,3269.14688199941
-0.391870865881045,3269.15688199941
-0.401855248414086,3269.16688199941
-0.411666578477377,3269.17688199941
-0.421701544244968,3269.18688199941
-0.431427896992283,3269.19688199941
-0.440683309165243,3269.20688199941
-0.449298061732896,3269.21688199941
-0.457771222536594,3269.22688199941
-0.465760507775087,3269.23688199941
-0.473740289406536,3269.24688199941
-0.481351870221905,3269.25688199941
-0.489123825452353,3269.26688199941
-0.496415993647952,3269.27688199941
-0.504161237178692,3269.28688199941
-0.512106550582581,3269.29688199941
-0.520305406860344,3269.30688199941
-0.529380905455763,3269.31688199941
-0.538728407821473,3269.32688199941
-0.547247359489583,3269.33688199941
-0.549884110664233,3269.34688199941
-0.536233247278532,3269.35688199941
-0.491110200722011,3269.36688199941
-0.3997980342634,3269.37688199941
-0.256281269885092,3269.38688199941
-0.0714024353386434,3269.39688199941
0.128692552972248,3269.40688199941
0.313972765824685,3269.41688199941
0.461702709439932,3269.42688199941
0.56163077712199,3269.43688199941
0.616916538799326,3269.44688199941
0.637849871508968,3269.45688199941
0.635629644034976,3269.46688199941
0.620185595950925,3269.47688199941
0.598423263460148,3269.48688199941
0.574158007055642,3269.49688199941
0.548573974776682,3269.50688199941
0.522061692399735,3269.51688199941
0.494850058127811,3269.52688199941
0.467105170293718,3269.53688199941
0.439444002831243,3269.54688199941
0.413026427857477,3269.55688199941
0.387822880314878,3269.56688199941
0.36502824743749,3269.57688199941
0.343682200729776,3269.58688199941
0.325266988059906,3269.59688199941
0.308896887623507,3269.60688199941
0.294166713313283,3269.61688199941
0.281107289356694,3269.62688199941
0.268767712416657,3269.63688199941
0.256459192397546,3269.64688199941
0.242474783311573,3269.65688199941
0.225948883744666,3269.66688199941
0.207040910680763,3269.67688199941
0.18615789581086,3269.68688199941
0.166062976269199,3269.69688199941
0.149972761649452,3269.70688199941
0.139418852485653,3269.71688199941
0.137093467388218,3269.72688199941
0.14194586781531,3269.73688199941
0.152977319587421,3269.74688199941
0.169028998470349,3269.75688199941
0.187065131258295,3269.76688199941
0.205246211423251,3269.77688199941
0.221798172070256,3269.78688199941
0.235860356152619,3269.79688199941
0.245352780081477,3269.80688199941
0.249555001261312,3269.81688199941
0.248612255983121,3269.82688199941
0.242425422646666,3269.83688199941
0.232202888323245,3269.84688199941
0.218277903005651,3269.85688199941
0.201959030877075,3269.86688199941
0.184560736009049,3269.87688199941
0.166505455445995,3269.88688199941
0.148702567397964,3269.89688199941
0.131642144014831,3269.90688199941
0.114379945553559,3269.91688199941
0.0972625133334735,3269.92688199941
0.0805100449137129,3269.93688199941
0.0638730647661057,3269.94688199941
0.0480894286484322,3269.95688199941
0.0329171778002971,3269.96688199941
0.0182982812988844,3269.97688199941
0.00412797150110774,3269.98688199941
-0.00958083623376105,3269.99688199941
-0.0230403617969069,3270.00688199941
-0.0363929881327896,3270.01688199941
-0.0498109573545986,3270.02688199941
-0.0633096151267073,3270.03688199941
-0.0774008959706641,3270.04688199941
-0.091753523865889,3270.05688199941
-0.106035903078574,3270.06688199941
-0.120783295669311,3270.07688199941
-0.135883788829033,3270.08688199941
-0.151066068205483,3270.09688199941
-0.166240212903811,3270.10688199941
-0.180652997870129,3270.11688199941
-0.193870255043362,3270.12688199941
-0.206605593609388,3270.13688199941
-0.218562199061686,3270.14688199941
-0.23046854339035,3270.15688199941
-0.242338279281392,3270.16688199941
-0.254553414821386,3270.17688199941
-0.266616738675816,3270.18688199941
-0.278714664016514,3270.19688199941
-0.290247283490693,3270.20688199941
-0.301438327665538,3270.21688199941
-0.311672827134889,3270.22688199941
-0.322051484125966,3270.23688199941
-0.332092724339901,3270.24688199941
-0.342136920566652,3270.25688199941
-0.351947174712378,3270.26688199941
-0.36168697381915,3270.27688199941
-0.371192208938693,3270.28688199941
-0.380142889005586,3270.29688199941
-0.388507816559709,3270.30688199941
-0.396388072111925,3270.31688199941
-0.403276783909945,3270.32688199941
-0.410040357958507,3270.33688199941
-0.416992636960698,3270.34688199941
-0.423933146954641,3270.35688199941
-0.431187501404199,3270.36688199941
-0.438205814902793,3270.37688199941
-0.446038168922814,3270.38688199941
-0.454816701180175,3270.39688199941
-0.463167149799498,3270.40688199941
-0.467942737176401,3270.41688199941
-0.46162720419659,3270.42688199941
-0.430125691125545,3270.43688199941
-0.358901100902269,3270.44688199941
-0.23810174413527,3270.45688199941
-0.0710319120498294,3270.46688199941
0.120159833245527,3270.47688199941
0.306511240736361,3270.48688199941
0.463022423205692,3270.49688199941
0.576484703081447,3270.50688199941
0.646323189163684,3270.51688199941
0.680186698451634,3270.52688199941
0.688173035488253,3270.53688199941
0.680509153503911,3270.54688199941
0.665138926495331,3270.55688199941
0.646022097964306,3270.56688199941
0.626425413593411,3270.57688199941
0.607358694693272,3270.58688199941
0.588855831376943,3270.59688199941
0.5710425976351,3270.60688199941
0.553545782837838,3270.61688199941
0.537334686375277,3270.62688199941
0.522153034293643,3270.63688199941
0.50874559385336,3270.64688199941
0.497640257531871,3270.65688199941
0.488135868516988,3270.66688199941
0.479568344107823,3270.67688199941
0.471878757074374,3270.68688199941
0.464958480871827,3270.69688199941
0.458379152989306,3270.70688199941
0.451569405368961,3270.71688199941
0.444162921715591,3270.72688199941
0.434877900266992,3270.73688199941
0.422701754958874,3270.74688199941
0.407360734129269,3270.75688199941
0.388944876932657,3270.76688199941
0.368666196503216,3270.77688199941
0.349735713229937,3270.78688199941
0.333783579419559,3270.79688199941
0.323019590096716,3270.80688199941
0.317475827027255,3270.81688199941
0.317259461324014,3270.82688199941
0.321936344719776,3270.83688199941
0.32936447041452,3270.84688199941
0.338791038596237,3270.85688199941
0.348363561078342,3270.86688199941
0.356516908203307,3270.87688199941
0.36247968762464,3270.88688199941
0.365034802218674,3270.89688199941
0.36351487921827,3270.90688199941
0.357448761761498,3270.91688199941
0.347440889133168,3270.92688199941
0.334310726934444,3270.93688199941
0.319107841435584,3270.94688199941
0.302446434446098,3270.95688199941
0.284851244725015,3270.96688199941
0.266868612688888,3270.97688199941
0.24905683184409,3270.98688199941
0.230602056287396,3270.99688199941
0.212532263757117,3271.00688199941
0.194236768848923,3271.01688199941
0.176162426495192,3271.02688199941
0.158346572309296,3271.03688199941
0.140406635915567,3271.04688199941
0.122993732308897,3271.05688199941
0.105805853192739,3271.06688199941
0.0893613786268778,3271.07688199941
0.0736990004103046,3271.08688199941
0.0576063821644982,3271.09688199941
0.0417558813455664,3271.10688199941
0.0262623804093512,3271.11688199941
0.0105908719621364,3271.12688199941
-0.00559947289490143,3271.13688199941
-0.0218567430200502,3271.14688199941
-0.0383010751364021,3271.15688199941
-0.0550719269945583,3271.16688199941
-0.0718982621952513,3271.17688199941
-0.0884833708304882,3271.18688199941
-0.104001315169271,3271.19688199941
-0.117980370486678,3271.20688199941
-0.131504803939301,3271.21688199941
-0.144920093731894,3271.22688199941
-0.157741319079465,3271.23688199941
-0.171042878823491,3271.24688199941
-0.183985444242584,3271.25688199941
-0.197055816507397,3271.26688199941
-0.209841503636892,3271.27688199941
-0.222277213107261,3271.28688199941
-0.234863688578413,3271.29688199941
-0.246854387702916,3271.30688199941
-0.258987483513721,3271.31688199941
-0.270540437267737,3271.32688199941
-0.281704878711906,3271.33688199941
-0.292931586394326,3271.34688199941
-0.303868942769008,3271.35688199941
-0.313828362250387,3271.36688199941
-0.323521591045181,3271.37688199941
-0.333018997861254,3271.38688199941
-0.342358063613293,3271.39688199941
-0.351586284469355,3271.40688199941
-0.360662313600069,3271.41688199941
-0.369641955534317,3271.42688199941
-0.378645036084312,3271.43688199941
-0.387439142772715,3271.44688199941
-0.39585190375026,3271.45688199941
-0.404702667851626,3271.46688199941
-0.41360538048945,3271.47688199941
-0.422375196759344,3271.48688199941
-0.431106244016493,3271.49688199941
-0.439868774050423,3271.50688199941
-0.449144555178623,3271.51688199941
-0.458351666309606,3271.52688199941
-0.466803693925188,3271.53688199941
-0.475086452638671,3271.54688199941
-0.483322700638641,3271.55688199941
-0.490886298996801,3271.56688199941
-0.498564771985166,3271.57688199941
-0.505504557726879,3271.58688199941
-0.512237438618158,3271.59688199941
-0.519118343230369,3271.60688199941
-0.525476720924382,3271.61688199941
-0.531632572513589,3271.62688199941
-0.538291503552708,3271.63688199941
-0.545760038380461,3271.64688199941
-0.553226067014894,3271.65688199941
-0.561243411527273,3271.66688199941
-0.568607748616738,3271.67688199941
-0.572667997320878,3271.68688199941
-0.56654478694966,3271.69688199941
-0.536786582605663,3271.70688199941
-0.467339571427059,3271.71688199941
-0.346560409549418,3271.72688199941
-0.174702284156101,3271.73688199941
0.0285287080404694,3271.74688199941
0.231875738995867,3271.75688199941
0.406688669783328,3271.76688199941
0.536479271152233,3271.77688199941
0.618113077203917,3271.78688199941
0.658220185604992,3271.79688199941
0.668940597029092,3271.80688199941
0.661673267485574,3271.81688199941
0.644942568715819,3271.82688199941
0.624294208030506,3271.83688199941
0.602017517363472,3271.84688199941
0.578344368421769,3271.85688199941
0.553835587885666,3271.86688199941
0.529212530088882,3271.87688199941
0.505017195437793,3271.88688199941
0.481484143699764,3271.89688199941
0.460334056675315,3271.90688199941
0.441102320991162,3271.91688199941
0.423231211767054,3271.92688199941
0.406505519253293,3271.93688199941
0.390819901971567,3271.94688199941
0.375519404864755,3271.95688199941
0.36082157230929,3271.96688199941
0.346725265742363,3271.97688199941
0.333340534524079,3271.98688199941
0.32032758997888,3271.99688199941
0.306736286459741,3272.00688199941
0.291440871058254,3272.01688199941
0.273754181119334,3272.02688199941
0.254048816957968,3272.03688199941
0.233895355540676,3272.04688199941
0.215252747323692,3272.05688199941
0.200262452962268,3272.06688199941
0.190680203308819,3272.07688199941
0.187287234350893,3272.08688199941
0.189768636236434,3272.09688199941
0.197514378593576,3272.10688199941
0.208542767301312,3272.11688199941
0.221451431640414,3272.12688199941
0.234477509581255,3272.13688199941
0.245503047978313,3272.14688199941
0.253008565911503,3272.15688199941
0.256494381763246,3272.16688199941
0.255108625021644,3272.17688199941
0.249320161524284,3272.18688199941
0.239994587843779,3272.19688199941
0.226840425447923,3272.20688199941
0.211438445166285,3272.21688199941
0.19425073514449,3272.22688199941
0.176411353962954,3272.23688199941
0.158343803072746,3272.24688199941
0.140311945943784,3272.25688199941
0.1223169194174,3272.26688199941
0.104335842928525,3272.27688199941
0.0856860319757264,3272.28688199941
0.0671554554723791,3272.29688199941
0.0482832373371326,3272.30688199941
0.0295883679663394,3272.31688199941
0.0110688167206024,3272.32688199941
-0.00680319252977571,3272.33688199941
-0.0247190931878858,3272.34688199941
-0.0420534246516922,3272.35688199941
-0.0596747010747495,3272.36688199941
-0.0773854077896878,3272.37688199941
-0.0951087858598632,3272.38688199941
-0.112548720566279,3272.39688199941
-0.130505736797516,3272.40688199941
-0.148253474766373,3272.41688199941
-0.165725464084207,3272.42688199941
-0.182424144363549,3272.43688199941
-0.198395539232317,3272.44688199941
-0.214297091833299,3272.45688199941
-0.22984393996725,3272.46688199941
-0.245047667647518,3272.47688199941
-0.260686845672052,3272.48688199941
-0.27608550374524,3272.49688199941
-0.291647646748521,3272.50688199941
-0.307150685924792,3272.51688199941
-0.322871957718336,3272.52688199941
-0.337950201578192,3272.53688199941
-0.35279772167913,3272.54688199941
-0.367082357413794,3272.55688199941
-0.381212651073886,3272.56688199941
-0.395527350780483,3272.57688199941
-0.410075417294481,3272.58688199941
-0.423948513331712,3272.59688199941
-0.43759526286509,3272.60688199941
-0.450486977600115,3272.61688199941
-0.462198869329936,3272.62688199941
-0.473383593681524,3272.63688199941
-0.483491628741136,3272.64688199941
-0.493560947653685,3272.65688199941
-0.503623555425397,3272.66688199941
-0.513518302393718,3272.67688199941
-0.523611567331973,3272.68688199941
-0.533485489599962,3272.69688199941
-0.543182774658937,3272.70688199941
-0.552677906268616,3272.71688199941
-0.561586511281444,3272.72688199941
-0.569892347165199,3272.73688199941
-0.576850301016089,3272.74688199941
-0.583142196514296,3272.75688199941
-0.589048523484158,3272.76688199941
-0.595191133958491,3272.77688199941
-0.602308347569858,3272.78688199941
-0.609802815485736,3272.79688199941
-0.617730834121936,3272.80688199941
-0.625006113610275,3272.81688199941
-0.631132879753641,3272.82688199941
-0.631869394895397,3272.83688199941
-0.618698385325219,3272.84688199941
-0.576780996283772,3272.85688199941
-0.491329814116973,3272.86688199941
-0.354894446722564,3272.87688199941
-0.173768981712283,3272.88688199941
0.029644942829014,3272.89688199941
0.225218397458987,3272.90688199941
0.387507820802321,3272.91688199941
0.502901773518501,3272.92688199941
0.571341250342473,3272.93688199941
0.600788024928437,3272.94688199941
0.60358699647117,3272.95688199941
0.589996469849161,3272.96688199941
0.567971698815637,3272.97688199941
0.541872185445364,3272.98688199941
0.514114592397188,3272.99688199941
0.485774244824056,3273.00688199941
0.456701191751977,3273.01688199941
0.427201997679804,3273.02688199941
0.398443904780199,3273.03688199941
0.370935512709194,3273.04688199941
0.344814498250977,3273.05688199941
0.319849656957132,3273.06688199941
0.296328224813111,3273.07688199941
0.274252672073249,3273.08688199941
0.254551983093178,3273.09688199941
0.236038900783386,3273.10688199941
0.218718810402335,3273.11688199941
0.202292665399922,3273.12688199941
0.186078612083915,3273.13688199941
0.168749649648129,3273.14688199941
0.149402443141598,3273.15688199941
0.12825703573275,3273.16688199941
0.106184798683175,3273.17688199941
0.0846280387275719,3273.18688199941
0.0658297845958088,3273.19688199941
0.0522507855796457,3273.20688199941
0.0459640215656225,3273.21688199941
0.0486423637144697,3273.22688199941
0.0589107892482985,3273.23688199941
0.0752055976659449,3273.24688199941
0.095224266634482,3273.25688199941
0.11630668200016,3273.26688199941
0.137288880496802,3273.27688199941
0.15559796787373,3273.28688199941
0.169497906608721,3273.29688199941
0.177779232014538,3273.30688199941
0.180295055741754,3273.31688199941
0.176696027432671,3273.32688199941
0.167756771677037,3273.33688199941
0.154633373720489,3273.34688199941
0.138742922435899,3273.35688199941
0.121796969230573,3273.36688199941
0.103863842393413,3273.37688199941
0.0856476554217599,3273.38688199941
0.0676867749557582,3273.39688199941
0.05000172442857,3273.40688199941
0.0328765224006257,3273.41688199941
0.0166118170911455,3273.42688199941
0.00063073287000251,3273.43688199941
-0.0149415747242687,3273.44688199941
-0.0303983573279424,3273.45688199941
-0.045755295772182,3273.46688199941
-0.0605520932051061,3273.47688199941
-0.075282430220968,3273.48688199941
-0.0892586463571789,3273.49688199941
-0.103264322662002,3273.50688199941
-0.1173316611665,3273.51688199941
-0.131662433936502,3273.52688199941
-0.145411258164543,3273.53688199941
-0.158152233791864,3273.54688199941
-0.170520341141848,3273.55688199941
-0.183213240149298,3273.56688199941
-0.195431792231968,3273.57688199941
-0.207613400129916,3273.58688199941
-0.219957305427964,3273.59688199941
-0.231947916763629,3273.60688199941
-0.244849607791069,3273.61688199941
-0.258097931501211,3273.62688199941
-0.271461002005426,3273.63688199941
-0.284027063362674,3273.64688199941
-0.297098904223602,3273.65688199941
-0.309881940193434,3273.66688199941
-0.321985881916951,3273.67688199941
-0.334325196016936,3273.68688199941
-0.345322049291014,3273.69688199941
-0.356324494539929,3273.70688199941
-0.366928485490263,3273.71688199941
-0.377483678795289,3273.72688199941
-0.388184303013874,3273.73688199941
-0.398539276555995,3273.74688199941
-0.407680570084648,3273.75688199941
-0.415766642843617,3273.76688199941
-0.423307701403617,3273.77688199941
-0.430090606197166,3273.78688199941
-0.43710951685992,3273.79688199941
-0.443417970781481,3273.80688199941
-0.449545503419064,3273.81688199941
-0.456314700599019,3273.82688199941
-0.463257234477102,3273.83688199941
-0.470516181446343,3273.84688199941
-0.477278785668329,3273.85688199941
-0.484355295817363,3273.86688199941
-0.490756080083118,3273.87688199941
-0.493230819068919,3273.88688199941
-0.485216344369354,3273.89688199941
-0.453395019522521,3273.90688199941
-0.382261519443372,3273.91688199941
-0.26189913973514,3273.92688199941
-0.0948550531415826,3273.93688199941
0.0987460574072488,3273.94688199941
0.289705525838988,3273.95688199941
0.452062800659573,3273.96688199941
0.571702035880425,3273.97688199941
0.646388444298981,3273.98688199941
0.683196101322728,3273.99688199941
0.69257318760755,3274.00688199941
0.685350684039714,3274.01688199941
0.670122578065698,3274.02688199941
0.651802219716167,3274.03688199941
0.6316334387362,3274.04688199941
0.610627847581745,3274.05688199941
0.589942044156318,3274.06688199941
0.569271593214655,3274.07688199941
0.549604679077376,3274.08688199941
0.531353394403713,3274.09688199941
0.515117727188628,3274.10688199941
0.501017161308652,3274.11688199941
0.488759538822594,3274.12688199941
0.478128423152914,3274.13688199941
0.469244214855032,3274.14688199941
0.461819171315835,3274.15688199941
0.455670597177915,3274.16688199941
0.450911191877571,3274.17688199941
0.446340406789935,3274.18688199941
0.44124030891591,3274.19688199941
0.433774253400837,3274.20688199941
0.422936289969429,3274.21688199941
0.40895607484159,3274.22688199941
0.391877478841775,3274.23688199941
0.373152426255473,3274.24688199941
0.35543287029962,3274.25688199941
0.341297315616713,3274.26688199941
0.332022415237245,3274.27688199941
0.328148592895199,3274.28688199941
0.329456785791091,3274.29688199941
0.334834357371407,3274.30688199941
0.342899991631488,3274.31688199941
0.352553329973792,3274.32688199941
0.36232490945922,3274.33688199941
0.370777741811587,3274.34688199941
0.377166501953828,3274.35688199941
0.380048685994637,3274.36688199941
0.379690002899686,3274.37688199941
0.375702154412208,3274.38688199941
0.3682464017927,3274.39688199941
0.357441852908132,3274.40688199941
0.343843979173261,3274.41688199941
0.328263204145635,3274.42688199941
0.311584559921445,3274.43688199941
0.294753519304116,3274.44688199941
0.277644850579349,3274.45688199941
0.26084141177944,3274.46688199941
0.244474863188629,3274.47688199941
0.226906444153297,3274.48688199941
0.209969624472669,3274.49688199941
0.192555021700996,3274.50688199941
0.174827408216964,3274.51688199941
0.157552088714602,3274.52688199941
0.140786482002004,3274.53688199941
0.124458254119325,3274.54688199941
0.109199801025927,3274.55688199941
0.0937658107595579,3274.56688199941
0.0783614700035238,3274.57688199941
0.0633783417206551,3274.58688199941
0.0486324178942561,3274.59688199941
0.0340871881899504,3274.60688199941
0.0190867330391082,3274.61688199941
0.00428109105750193,3274.62688199941
-0.0102403066238274,3274.63688199941
-0.0250045076322626,3274.64688199941
-0.0391555073926216,3274.65688199941
-0.0526226743424397,3274.66688199941
-0.0659184387243952,3274.67688199941
-0.0786918766081636,3274.68688199941
-0.0918232775876581,3274.69688199941
-0.104794817924548,3274.70688199941
-0.117192028375102,3274.71688199941
-0.129605814372792,3274.72688199941
-0.141635371311677,3274.73688199941
-0.15366436525413,3274.74688199941
-0.165382438668407,3274.75688199941
-0.177049306149306,3274.76688199941
-0.188400752033364,3274.77688199941
-0.199350263937877,3274.78688199941
-0.210199074920443,3274.79688199941
-0.220759136800071,3274.80688199941
-0.230765682826899,3274.81688199941
-0.240702072936065,3274.82688199941
-0.250077358044143,3274.83688199941
-0.259175283161284,3274.84688199941
-0.268459552122721,3274.85688199941
-0.277323917583152,3274.86688199941
-0.286046312282027,3274.87688199941
-0.295008122713066,3274.88688199941
-0.303973657129045,3274.89688199941
-0.312617845861246,3274.90688199941
-0.320444599740937,3274.91688199941
-0.328272462588588,3274.92688199941
-0.335884069816692,3274.93688199941
-0.343857667014768,3274.94688199941
-0.351958237328744,3274.95688199941
-0.360309259371448,3274.96688199941
-0.368112885730879,3274.97688199941
-0.374719500366364,3274.98688199941
-0.38041703526494,3274.99688199941
-0.385981587633452,3275.00688199941
-0.391772072196269,3275.01688199941
-0.397864635834326,3275.02688199941
-0.404287566216349,3275.03688199941
-0.411156251900841,3275.04688199941
-0.418330979678045,3275.05688199941
-0.42619869215381,3275.06688199941
-0.433416177518863,3275.07688199941
-0.437519573849123,3275.08688199941
-0.430372189556293,3275.09688199941
-0.398297700507532,3275.10688199941
-0.326235199634764,3275.11688199941
-0.204402673981435,3275.12688199941
-0.0378327263541149,3275.13688199941
0.152428671260063,3275.14688199941
0.336932562866575,3275.15688199941
0.491574887129848,3275.16688199941
0.603419910606534,3275.17688199941
0.67092838096048,3275.18688199941
0.702597427125878,3275.19688199941
0.708789627882468,3275.20688199941
0.698950842589952,3275.21688199941
0.68121705214759,3275.22688199941
0.660043544780468,3275.23688199941
0.637551595129486,3275.24688199941
0.614599014219187,3275.25688199941
0.590762866817746,3275.26688199941
0.567304322074783,3275.27688199941
0.544296525794534,3275.28688199941
0.522572800015435,3275.29688199941
0.502750150557512,3275.30688199941
0.485253574627649,3275.31688199941
0.470381107576666,3275.32688199941
0.457674091521558,3275.33688199941
0.447018299026853,3275.34688199941
0.4380508971948,3275.35688199941
0.430347893068804,3275.36688199941
0.423551331951435,3275.37688199941
0.417448351910328,3275.38688199941
0.410797174540508,3275.39688199941
0.402481630937007,3275.40688199941
0.391239534715349,3275.41688199941
0.376880290879881,3275.42688199941
0.361215953563694,3275.43688199941
0.345760005525032,3275.44688199941
0.332653066201321,3275.45688199941
0.323199217858474,3275.46688199941
0.319189026759516,3275.47688199941
0.320643757962199,3275.48688199941
0.326608908080641,3275.49688199941
0.336735739270607,3275.50688199941
0.34858801395411,3275.51688199941
0.360779878651572,3275.52688199941
0.371709483669117,3275.53688199941
0.379923773426505,3275.54688199941
0.384026264578027,3275.55688199941
0.384334985710786,3275.56688199941
0.380868525273542,3275.57688199941
0.373107731472516,3275.58688199941
0.362672859567404,3275.59688199941
0.34991406404168,3275.60688199941
0.335121963382899,3275.61688199941
0.318715884909606,3275.62688199941
0.300923855070789,3275.63688199941
0.282677067123387,3275.64688199941
0.265155093803153,3275.65688199941
0.247498261155512,3275.66688199941
0.229491372635219,3275.67688199941
0.211535113355461,3275.68688199941
0.193154440827911,3275.69688199941
0.175474414446838,3275.70688199941
0.158214516730541,3275.71688199941
0.141709315899068,3275.72688199941
0.125522824514467,3275.73688199941
0.110011422648346,3275.74688199941
0.094894098032222,3275.75688199941
0.079841933939451,3275.76688199941
0.0648402139414451,3275.77688199941
0.0498407252482345,3275.78688199941
0.0351615694393873,3275.79688199941
0.0201774233462761,3275.80688199941
0.00573270863206771,3275.81688199941
-0.00867363244496477,3275.82688199941
-0.0228194459242001,3275.83688199941
-0.0376426454935254,3275.84688199941
-0.0523123432767476,3275.85688199941
-0.0659037493166005,3275.86688199941
-0.0781898601978766,3275.87688199941
-0.08949533047236,3275.88688199941
-0.0998378885662176,3275.89688199941
-0.110367800685,3275.90688199941
-0.12123028363388,3275.91688199941
-0.132727171591638,3275.92688199941
-0.144073178742006,3275.93688199941
-0.155006801162751,3275.94688199941
-0.166048827769242,3275.95688199941
-0.176067717085482,3275.96688199941
-0.185904914053093,3275.97688199941
-0.195430118036306,3275.98688199941
-0.204919197314773,3275.99688199941
-0.214553008179235,3276.00688199941
-0.224161371099478,3276.01688199941
-0.233455613489835,3276.02688199941
-0.242450464194403,3276.03688199941
-0.251108192311516,3276.04688199941
-0.25944407308923,3276.05688199941
-0.267488172781277,3276.06688199941
-0.275406222643033,3276.07688199941
-0.282816644571679,3276.08688199941
-0.290017256979844,3276.09688199941
-0.297318129001311,3276.10688199941
-0.305093823261044,3276.11688199941
-0.313651871955771,3276.12688199941
-0.323028785902127,3276.13688199941
-0.333572622770099,3276.14688199941
-0.344624550584303,3276.15688199941
-0.355532137978464,3276.16688199941
-0.36300414240213,3276.17688199941
-0.359455546815236,3276.18688199941
-0.331973073911652,3276.19688199941
-0.266198610669567,3276.20688199941
-0.152651663918528,3276.21688199941
0.00260926241266215,3276.22688199941
0.177748848933449,3276.23688199941
0.34661322724619,3276.24688199941
0.486567287651046,3276.25688199941
0.586685288817148,3276.26688199941
0.64680328996646,3276.27688199941
0.673528723348457,3276.28688199941
0.675846457119007,3276.29688199941
0.663430784732628,3276.30688199941
0.643600842074781,3276.31688199941
0.619291101572518,3276.32688199941
0.594006303282103,3276.33688199941
0.568746480289337,3276.34688199941
0.544582478080688,3276.35688199941
0.521418508033447,3276.36688199941
0.49943302650957,3276.37688199941
0.479585782985357,3276.38688199941
0.46180460268224,3276.39688199941
0.446553838900848,3276.40688199941
0.433667780157417,3276.41688199941
0.422808179169452,3276.42688199941
0.413464065975735,3276.43688199941
0.405894684344737,3276.44688199941
0.399211410997264,3276.45688199941
0.391689886661407,3276.46688199941
0.382728698240827,3276.47688199941
0.372206950838395,3276.48688199941
0.359383833058688,3276.49688199941
0.344722548117663,3276.50688199941
0.329289913474486,3276.51688199941
0.31525422213464,3276.52688199941
0.304713304981249,3276.53688199941
0.299969909774352,3276.54688199941
0.302105084814092,3276.55688199941
0.310525218994697,3276.56688199941
0.323457749527632,3276.57688199941
0.339369727361906,3276.58688199941
0.356510501357003,3276.59688199941
0.372439375202431,3276.60688199941
0.385825091307332,3276.61688199941
0.395484184824003,3276.62688199941
0.400506495461689,3276.63688199941
0.401023997632654,3276.64688199941
0.397764116645765,3276.65688199941
0.390623952280464,3276.66688199941
0.380040835955954,3276.67688199941
0.366527449242107,3276.68688199941
0.350166803768954,3276.69688199941
0.333110677746261,3276.70688199941
0.31498457350601,3276.71688199941
0.296292966748473,3276.72688199941
0.278475929582903,3276.73688199941
0.260870463473904,3276.74688199941
0.244059560523036,3276.75688199941
0.227884344443034,3276.76688199941
0.212153579130254,3276.77688199941
0.196960345459407,3276.78688199941
0.182019114933249,3276.79688199941
0.167901478126411,3276.80688199941
0.154423769700587,3276.81688199941
0.141264225919388,3276.82688199941
0.128109978713614,3276.83688199941
0.114872875161511,3276.84688199941
0.101757713682273,3276.85688199941
0.0880765922395639,3276.86688199941
0.0742680146719014,3276.87688199941
0.0603581486126413,3276.88688199941
0.0461368398819557,3276.89688199941
0.0324015408921907,3276.90688199941
0.0191174092974396,3276.91688199941
0.00625764452248884,3276.92688199941
-0.00595469003535587,3276.93688199941
-0.0190254483730666,3276.94688199941
-0.0315359472520634,3276.95688199941
-0.0437305581312062,3276.96688199941
-0.0550686989041395,3276.97688199941
-0.0657345981187101,3276.98688199941
-0.0755562982447819,3276.99688199941
-0.0845154936673009,3277.00688199941
-0.0927049915345797,3277.01688199941
-0.0994493848997372,3277.02688199941
-0.105509814878118,3277.03688199941
-0.111850104127084,3277.04688199941
-0.118452452773302,3277.05688199941
-0.125223874190877,3277.06688199941
-0.133186768875184,3277.07688199941
-0.141562961300562,3277.08688199941
-0.150091000498055,3277.09688199941
-0.159908242949656,3277.10688199941
-0.169377860766729,3277.11688199941
-0.177971063845112,3277.12688199941
-0.181633276051511,3277.13688199941
-0.171316023925934,3277.14688199941
-0.134028657208063,3277.15688199941
-0.0571950846887835,3277.16688199941
0.0612997391094759,3277.17688199941
0.209497969892622,3277.18688199941
0.365297442071468,3277.19688199941
0.505782430083089,3277.20688199941
0.616028248221162,3277.21688199941
0.691387588483291,3277.22688199941
0.734155894654545,3277.23688199941
0.751280726031852,3277.24688199941
0.751126627784623,3277.25688199941
0.740979633010271,3277.26688199941
0.726599755556307,3277.27688199941
0.710676084089947,3277.28688199941
0.694930034228841,3277.29688199941
0.679853028819224,3277.30688199941
0.665169668913927,3277.31688199941
0.651830371074436,3277.32688199941
0.640315765183355,3277.33688199941
0.631075768522189,3277.34688199941
0.624093020705837,3277.35688199941
0.619094930509952,3277.36688199941
0.616532007682672,3277.37688199941
0.615844619443358,3277.38688199941
0.616325667370481,3277.39688199941
0.617663163500752,3277.40688199941
0.61944696749571,3277.41688199941
0.620589741631881,3277.42688199941
0.619322522956806,3277.43688199941
0.614765743920042,3277.44688199941
0.605638619667621,3277.45688199941
0.592175326257156,3277.46688199941
0.576207398637473,3277.47688199941
0.559943230592439,3277.48688199941
0.545720950322745,3277.49688199941
0.535165374946256,3277.50688199941
0.52968593579434,3277.51688199941
0.528901495757306,3277.52688199941
0.532678231548949,3277.53688199941
0.539180177789523,3277.54688199941
0.547372293227637,3277.55688199941
0.554886861109687,3277.56688199941
0.561421485599591,3277.57688199941
0.56561247647416,3277.58688199941
0.567488053068058,3277.59688199941
0.566368190195156,3277.60688199941
0.562157956991355,3277.61688199941
0.554810916844516,3277.62688199941
0.544120152378366,3277.63688199941
0.530913213471844,3277.64688199941
0.515961155355792,3277.65688199941
0.500362847282655,3277.66688199941
0.484314768959703,3277.67688199941
0.468437902158526,3277.68688199941
0.452431699555772,3277.69688199941
0.436640767714934,3277.70688199941
0.421075234990439,3277.71688199941
0.405902806022755,3277.72688199941
0.391463252076148,3277.73688199941
0.377343674689496,3277.74688199941
0.36351298719383,3277.75688199941
0.349997945194267,3277.76688199941
0.336366965369913,3277.77688199941
0.323194062144468,3277.78688199941
0.310376707210333,3277.79688199941
0.297895033780014,3277.80688199941
0.28588284807031,3277.81688199941
0.273426594511226,3277.82688199941
0.261454826212484,3277.83688199941
0.249775139559607,3277.84688199941
0.237760424098931,3277.85688199941
0.22618163605951,3277.86688199941
0.214841540376836,3277.87688199941
0.203633316274826,3277.88688199941
0.191372488656167,3277.89688199941
0.179190930104781,3277.90688199941
0.167245773100808,3277.91688199941
0.155151225931847,3277.92688199941
0.14443462250517,3277.93688199941
0.133530022506777,3277.94688199941
0.122693790056026,3277.95688199941
0.111767411397836,3277.96688199941
0.101367072201375,3277.97688199941
0.0907396875646868,3277.98688199941
0.0807476959156181,3277.99688199941
0.0705953228363099,3278.00688199941
0.0607942268310225,3278.01688199941
0.0515764007817305,3278.02688199941
0.0435792884275579,3278.03688199941
0.0363233117384015,3278.04688199941
0.0291006867905415,3278.05688199941
0.0226292902481941,3278.06688199941
0.0167033773066881,3278.07688199941
0.0103645285307813,3278.08688199941
0.00327019057760108,3278.09688199941
-0.00474422084137493,3278.10688199941
-0.0137843358228171,3278.11688199941
-0.0235084318978278,3278.12688199941
-0.0330192211535763,3278.13688199941
-0.0412835598604025,3278.14688199941
-0.0444340217635683,3278.15688199941
-0.0334159769126858,3278.16688199941
0.0046530626989159,3278.17688199941
0.0793214908672841,3278.18688199941
0.190045240581793,3278.19688199941
0.322601200310381,3278.20688199941
0.457802626570984,3278.21688199941
0.577005995023018,3278.22688199941
0.668673479419196,3278.23688199941
0.729409943101551,3278.24688199941
0.762687583722476,3278.25688199941
0.774717134824572,3278.26688199941
0.773024343829548,3278.27688199941
0.763819761096851,3278.28688199941
0.750418893982442,3278.29688199941
0.736468240496807,3278.30688199941
0.721786792281289,3278.31688199941
0.707450710345953,3278.32688199941
0.694107180973612,3278.33688199941
0.682479817596783,3278.34688199941
0.672790248260221,3278.35688199941
0.665590347431484,3278.36688199941
0.660642014254247,3278.37688199941
0.658645235101772,3278.38688199941
0.658262378002767,3278.39688199941
0.659460397576901,3278.40688199941
0.662005568589467,3278.41688199941
0.665085543791384,3278.42688199941
0.667936936273469,3278.43688199941
0.669409757783594,3278.44688199941
0.668440280550257,3278.45688199941
0.663014756090814,3278.46688199941
0.653136629263469,3278.47688199941
0.639481114328278,3278.48688199941
0.623684114518825,3278.49688199941
0.607590255705992,3278.50688199941
0.593636730679991,3278.51688199941
0.582739730370897,3278.52688199941
0.57587495150972,3278.53688199941
0.572525155609997,3278.54688199941
0.57241033881501,3278.55688199941
0.574167053432084,3278.56688199941
0.576896544129196,3278.57688199941
0.579817876633168,3278.58688199941
0.582338245952804,3278.59688199941
0.583866176945603,3278.60688199941
0.583569745191072,3278.61688199941
0.581338982828504,3278.62688199941
0.576466813751746,3278.63688199941
0.569430255479429,3278.64688199941
0.560151604216308,3278.65688199941
0.549312223479336,3278.66688199941
0.536947183124191,3278.67688199941
0.523400752295353,3278.68688199941
0.509394187324744,3278.69688199941
0.494954213553512,3278.70688199941
0.480264785952252,3278.71688199941
0.465193295355074,3278.72688199941
0.450365656861476,3278.73688199941
0.435404852538125,3278.74688199941
0.420901574150282,3278.75688199941
0.405685813238398,3278.76688199941
0.390705015461046,3278.77688199941
0.375986895734252,3278.78688199941
0.36135995234776,3278.79688199941
0.34746090336325,3278.80688199941
0.333995991216621,3278.81688199941
0.321200213082552,3278.82688199941
0.308756926823895,3278.83688199941
0.296485854942404,3278.84688199941
0.284662871626212,3278.85688199941
0.272933099572296,3278.86688199941
0.261413403109398,3278.87688199941
0.250165322143565,3278.88688199941
0.238984611862895,3278.89688199941
0.228265832949332,3278.90688199941
0.217962797704591,3278.91688199941
0.207675684058146,3278.92688199941
0.197074727167287,3278.93688199941
0.186111810858951,3278.94688199941
0.17511522765582,3278.95688199941
0.164538529755897,3278.96688199941
0.154073337572439,3278.97688199941
0.143884210242547,3278.98688199941
0.13345105396317,3278.99688199941
0.123565209323897,3279.00688199941
0.113589338161286,3279.01688199941
0.104142337325919,3279.02688199941
0.0941889171119562,3279.03688199941
0.0847137545298449,3279.04688199941
0.0756772640756409,3279.05688199941
0.0666871488805815,3279.06688199941
0.0577574978672306,3279.07688199941
0.0489699878360952,3279.08688199941
0.0406442214290047,3279.09688199941
0.0317974014548733,3279.10688199941
0.022650310682928,3279.11688199941
0.0125439266394577,3279.12688199941
0.0026216060047737,3279.13688199941
-0.00668510598443629,3279.14688199941
-0.0151532758048235,3279.15688199941
-0.0235698054663967,3279.16688199941
-0.0316398335698692,3279.17688199941
-0.0401014136621998,3279.18688199941
-0.0487875006085258,3279.19688199941
-0.058018534836179,3279.20688199941
-0.0668618031514771,3279.21688199941
-0.0755392564855482,3279.22688199941
-0.0844791104584814,3279.23688199941
-0.0934150226323719,3279.24688199941
-0.10229006030748,3279.25688199941
-0.111238415792685,3279.26688199941
-0.120659431992379,3279.27688199941
-0.130090434774645,3279.28688199941
-0.139232193397102,3279.29688199941
-0.147329529968369,3279.30688199941
-0.15465005549029,3279.31688199941
-0.161112095934877,3279.32688199941
-0.16786464665956,3279.33688199941
-0.174818496978227,3279.34688199941
-0.182059543909307,3279.35688199941
-0.189445424627972,3279.36688199941
-0.196940406453946,3279.37688199941
-0.205126369887689,3279.38688199941
-0.213716913505962,3279.39688199941
-0.222575181974406,3279.40688199941
-0.231869702955172,3279.41688199941
-0.240527271314231,3279.42688199941
-0.245294762645663,3279.43688199941
-0.238584893642113,3279.44688199941
-0.205893234846689,3279.45688199941
-0.134545505969315,3279.46688199941
-0.0210628777508696,3279.47688199941
0.120148766462367,3279.48688199941
0.267653817881213,3279.49688199941
0.400779643901141,3279.50688199941
0.50419807943132,3279.51688199941
0.574488951532017,3279.52688199941
0.614167509169311,3279.53688199941
0.62923441368655,3279.54688199941
0.628222276853897,3279.55688199941
0.617293296955206,3279.56688199941
0.601065707218629,3279.57688199941
0.582446562765029,3279.58688199941
0.563634175031034,3279.59688199941
0.545106635365087,3279.60688199941
0.526739751761063,3279.61688199941
0.509588642573797,3279.62688199941
0.493392858725383,3279.63688199941
0.479139871129394,3279.64688199941
0.466989194645271,3279.65688199941
0.457372788578285,3279.66688199941
0.450115286961651,3279.67688199941
0.444375250291505,3279.68688199941
0.439858225595839,3279.69688199941
0.436472562075972,3279.70688199941
0.434926782272958,3279.71688199941
0.433902966152518,3279.72688199941
0.431720242079656,3279.73688199941
0.426979868211342,3279.74688199941
0.419304066343175,3279.75688199941
0.408746442866134,3279.76688199941
0.398073404994979,3279.77688199941
0.387441806443492,3279.78688199941
0.37944155148022,3279.79688199941
0.374541368823287,3279.80688199941
0.373357241509913,3279.81688199941
0.375974511260982,3279.82688199941
0.380316121086412,3279.83688199941
0.386426617755755,3279.84688199941
0.393247935368701,3279.85688199941
0.399877185491422,3279.86688199941
0.404650370276478,3279.87688199941
0.40840818725857,3279.88688199941
0.410528209872264,3279.89688199941
0.409959648960544,3279.90688199941
0.407469771537648,3279.91688199941
0.403013115972589,3279.92688199941
0.397170547431284,3279.93688199941
0.389711855462267,3279.94688199941
0.38129717758105,3279.95688199941
0.372292997153464,3279.96688199941
0.363329855912521,3279.97688199941
0.35390484950723,3279.98688199941
0.344691202541086,3279.99688199941
0.335626988105081,3280.00688199941
0.326417134370425,3280.01688199941
0.31788093389726,3280.02688199941
0.309436853811994,3280.03688199941
0.301772651603161,3280.04688199941
0.294579163241071,3280.05688199941
0.287386339620533,3280.06688199941
0.27986824235587,3280.07688199941
0.272616901122596,3280.08688199941
0.265311435842901,3280.09688199941
0.258501142806287,3280.10688199941
0.251156163015979,3280.11688199941
0.24333826817668,3280.12688199941
0.234999292166224,3280.13688199941
0.225705326729382,3280.14688199941
0.216246317393683,3280.15688199941
0.206801401758571,3280.16688199941
0.196573546966418,3280.17688199941
0.186897555705826,3280.18688199941
0.177484789486494,3280.19688199941
0.168882434226521,3280.20688199941
0.16060786839088,3280.21688199941
0.152271690251616,3280.22688199941
0.143815338852084,3280.23688199941
0.134838518234051,3280.24688199941
0.125778636234795,3280.25688199941
0.116462965464403,3280.26688199941
0.106780556967352,3280.27688199941
0.0969065138182825,3280.28688199941
0.0871171695688421,3280.29688199941
0.0776015929866189,3280.30688199941
0.0681775161671534,3280.31688199941
0.0593080165259121,3280.32688199941
0.0501039539568293,3280.33688199941
0.0409228878692665,3280.34688199941
0.0322819198488854,3280.35688199941
0.0237291978700813,3280.36688199941
0.0156908573213193,3280.37688199941
0.00829478361482762,3280.38688199941
0.00164933126784283,3280.39688199941
-0.00460195759014268,3280.40688199941
-0.0104697483425181,3280.41688199941
-0.0166151405796848,3280.42688199941
-0.0232102962480805,3280.43688199941
-0.0293276961757085,3280.44688199941
-0.0356016623874094,3280.45688199941
-0.0415442184337227,3280.46688199941
-0.0480447598324596,3280.47688199941
-0.0550058329622416,3280.48688199941
-0.0625701802180946,3280.49688199941
-0.0699542963040518,3280.50688199941
-0.0766759887868032,3280.51688199941
-0.0801930955774237,3280.52688199941
-0.0729255060558932,3280.53688199941
-0.0436393223397777,3280.54688199941
0.0169058620960654,3280.55688199941
0.108766240872231,3280.56688199941
0.221328283448531,3280.57688199941
0.3389825576165,3280.58688199941
0.4450518318358,3280.59688199941
0.529192956608315,3280.60688199941
0.587486351742302,3280.61688199941
0.621159268906474,3280.62688199941
0.63559352916691,3280.63688199941
0.636463657567013,3280.64688199941
0.629194424122933,3280.65688199941
0.617645642010097,3280.66688199941
0.604125047559804,3280.67688199941
0.589901611247315,3280.68688199941
0.57602573056659,3280.69688199941
0.562869034741024,3280.70688199941
0.551656161837479,3280.71688199941
0.541246985643301,3280.72688199941
0.532770733828304,3280.73688199941
0.526333365795881,3280.74688199941
0.52146261538629,3280.75688199941
0.519028071785897,3280.76688199941
0.517688023952703,3280.77688199941
0.517867767630743,3280.78688199941
0.519171437524013,3280.79688199941
0.520372430639359,3280.80688199941
0.521274581996832,3280.81688199941
0.521165982588463,3280.82688199941
0.519075482060577,3280.83688199941
0.514421655411738,3280.84688199941
0.506441200910672,3280.85688199941
0.496154605642112,3280.86688199941
0.484193884949495,3280.87688199941
0.472388512608645,3280.88688199941
0.461950899328112,3280.89688199941
0.454451919280637,3280.90688199941
0.450489953441578,3280.91688199941
0.448958249400101,3280.92688199941
0.450004993830981,3280.93688199941
0.452094403818119,3280.94688199941
0.45440733175112,3280.95688199941
0.457625245507884,3280.96688199941
0.460224794171578,3280.97688199941
0.461914426723089,3280.98688199941
0.461342640858701,3280.99688199941
0.459332002543838,3281.00688199941
0.455319046522513,3281.01688199941
0.449846050734804,3281.02688199941
0.443013480717007,3281.03688199941
0.434561135246859,3281.04688199941
0.425036404511522,3281.05688199941
0.413974395225613,3281.06688199941
0.402508362971306,3281.07688199941
0.390625143233918,3281.08688199941
0.378466409092951,3281.09688199941
0.366562214389213,3281.10688199941
0.354308411907478,3281.11688199941
0.342159365903228,3281.12688199941
0.329773962020885,3281.13688199941
0.317418946323974,3281.14688199941
0.30527035654651,3281.15688199941
0.293601491867575,3281.16688199941
0.28275247904997,3281.17688199941
0.272385152186809,3281.18688199941
0.262742089841127,3281.19688199941
0.253192981110583,3281.20688199941
0.243530214104362,3281.21688199941
0.234010973316447,3281.22688199941
0.224474303676177,3281.23688199941
0.215253542580133,3281.24688199941
0.205933214156267,3281.25688199941
0.196284092086148,3281.26688199941
0.186897906536201,3281.27688199941
0.176684312215535,3281.28688199941
0.166238366949931,3281.29688199941
0.156241293331776,3281.30688199941
0.14679293192101,3281.31688199941
0.137899752043465,3281.32688199941
0.129080739553074,3281.33688199941
0.120472866235427,3281.34688199941
0.112035508327311,3281.35688199941
0.103300084667169,3281.36688199941
0.0949138345531335,3281.37688199941
0.0863602230089695,3281.38688199941
0.0777261666536094,3281.39688199941
0.0693519844457604,3281.40688199941
0.0609601566584346,3281.41688199941
0.0523989783212662,3281.42688199941
0.0437493407300779,3281.43688199941
0.0355671723214545,3281.44688199941
0.0272317109109388,3281.45688199941
0.0185389295879167,3281.46688199941
0.010236983404163,3281.47688199941
0.00179336237401069,3281.48688199941
-0.00631629576295352,3281.49688199941
-0.0148218299097066,3281.50688199941
-0.0232617127791869,3281.51688199941
-0.0318603106387841,3281.52688199941
-0.0410320254608148,3281.53688199941
-0.0502571205936621,3281.54688199941
-0.0595605791325654,3281.55688199941
-0.0685917208005912,3281.56688199941
-0.0775636149752159,3281.57688199941
-0.086621399142269,3281.58688199941
-0.0954040816907051,3281.59688199941
-0.104854039896742,3281.60688199941
-0.113842677949973,3281.61688199941
-0.123105186573021,3281.62688199941
-0.131937367043628,3281.63688199941
-0.141184572689434,3281.64688199941
-0.150830226630703,3281.65688199941
-0.16050399095558,3281.66688199941
-0.170775981044071,3281.67688199941
-0.181294261650911,3281.68688199941
-0.191825580868016,3281.69688199941
-0.2021038513323,3281.70688199941
-0.212037993603883,3281.71688199941
-0.221736253708808,3281.72688199941
-0.231915997893766,3281.73688199941
-0.243004806113815,3281.74688199941
-0.254247788721384,3281.75688199941
-0.265645267285441,3281.76688199941
-0.27749130580783,3281.77688199941
-0.289303095361687,3281.78688199941
-0.301234093938976,3281.79688199941
-0.311362597062825,3281.80688199941
-0.316152121005023,3281.81688199941
-0.308338331130868,3281.82688199941
-0.273839714999285,3281.83688199941
-0.199900502869922,3281.84688199941
-0.0855878758573998,3281.85688199941
0.0557369011014597,3281.86688199941
0.201650727630037,3281.87688199941
0.332635371055624,3281.88688199941
0.43371549075596,3281.89688199941
0.50116225706827,3281.90688199941
0.537393804413227,3281.91688199941
0.549961375957397,3281.92688199941
0.547973929381548,3281.93688199941
0.538175685268294,3281.94688199941
0.524755212583389,3281.95688199941
0.509005651272067,3281.96688199941
0.491912290450417,3281.97688199941
0.474127179855855,3281.98688199941
0.455874875400816,3281.99688199941
0.438046728687852,3282.00688199941
0.421356989340606,3282.01688199941
0.406797759606748,3282.02688199941
0.394750254109339,3282.03688199941
0.383992325567026,3282.04688199941
0.375966583172468,3282.05688199941
0.368697205433402,3282.06688199941
0.362166194788847,3282.07688199941
0.356865737200293,3282.08688199941
0.352156940125469,3282.09688199941
0.348426431314059,3282.10688199941
0.34462254318153,3282.11688199941
0.340729918423188,3282.12688199941
0.335373039221559,3282.13688199941
0.328146649944063,3282.14688199941
0.318915398176128,3282.15688199941
0.308040409326808,3282.16688199941
0.29736310331972,3282.17688199941
0.288097195929945,3282.18688199941
0.281853655356471,3282.19688199941
0.278946121713773,3282.20688199941
0.278542238071778,3282.21688199941
0.280704450262961,3282.22688199941
0.283798798386095,3282.23688199941
0.288472479199275,3282.24688199941
0.293265650693565,3282.25688199941
0.298049911482179,3282.26688199941
0.30184489223857,3282.27688199941
0.303455200712956,3282.28688199941
0.30340643514353,3282.29688199941
0.301096380971071,3282.30688199941
0.296632509811703,3282.31688199941
0.289936045960428,3282.32688199941
0.281934552091013,3282.33688199941
0.272508099205872,3282.34688199941
0.262268539754603,3282.35688199941
0.251386940212472,3282.36688199941
0.238981695707979,3282.37688199941
0.22569459041371,3282.38688199941
0.21157436099423,3282.39688199941
0.197084351271764,3282.40688199941
0.18297407473411,3282.41688199941
0.169018962965762,3282.42688199941
0.155508757735401,3282.43688199941
0.141777421654432,3282.44688199941
0.128364262161145,3282.45688199941
0.114686691916333,3282.46688199941
0.101014348449906,3282.47688199941
0.0877118967085491,3282.48688199941
0.0753701475989763,3282.49688199941
0.0641057555900271,3282.50688199941
0.0534227211311524,3282.51688199941
0.0429308907728284,3282.52688199941
0.0326544675239113,3282.53688199941
0.022186773637094,3282.54688199941
0.0116606664510919,3282.55688199941
0.00227916404842866,3282.56688199941
-0.00655102765528375,3282.57688199941
-0.0151763013323843,3282.58688199941
-0.0234193315964298,3282.59688199941
-0.0316522045926795,3282.60688199941
-0.0400687360146646,3282.61688199941
-0.0488082613776041,3282.62688199941
-0.057956487052297,3282.63688199941
-0.0668246531020047,3282.64688199941
-0.0755300714488218,3282.65688199941
-0.0844261352227567,3282.66688199941
-0.092076715573465,3282.67688199941
-0.0991657249993799,3282.68688199941
-0.106005438120871,3282.69688199941
-0.11262806577169,3282.70688199941
-0.119105216980546,3282.71688199941
-0.125669167833003,3282.72688199941
-0.132856290192074,3282.73688199941
-0.140074158935435,3282.74688199941
-0.147138085752193,3282.75688199941
-0.154128417596676,3282.76688199941
-0.161239507374255,3282.77688199941
-0.168354770829448,3282.78688199941
-0.175322817912212,3282.79688199941
-0.181780951355618,3282.80688199941
-0.188060658360613,3282.81688199941
-0.192742067964695,3282.82688199941
-0.197694390299793,3282.83688199941
-0.202218927150984,3282.84688199941
-0.207280484752524,3282.85688199941
-0.213139185955719,3282.86688199941
-0.218243046131302,3282.87688199941
-0.223059099834391,3282.88688199941
-0.227763363465128,3282.89688199941
-0.233084073076421,3282.90688199941
-0.239277328045469,3282.91688199941
-0.246592888401556,3282.92688199941
-0.253532341038551,3282.93688199941
-0.258001053665025,3282.94688199941
-0.253803824015278,3282.95688199941
-0.228847211693884,3282.96688199941
-0.171736438484169,3282.97688199941
-0.0772252807597383,3282.98688199941
0.0445153236459316,3282.99688199941
0.175399388740217,3283.00688199941
0.296946183738281,3283.01688199941
0.394490309017781,3283.02688199941
0.462558642121454,3283.03688199941
0.502418756009621,3283.04688199941
0.519622066415264,3283.05688199941
0.520618032550664,3283.06688199941
0.512234500547415,3283.07688199941
0.4982133214072,3283.08688199941
0.481564035606604,3283.09688199941
0.463941015782764,3283.10688199941
0.445339368750862,3283.11688199941
0.426319938918151,3283.12688199941
0.407954686581706,3283.13688199941
0.391188909827318,3283.14688199941
0.375768353126649,3283.15688199941
0.363055937336873,3283.16688199941
0.352051790525152,3283.17688199941
0.342472199247322,3283.18688199941
0.333839191695896,3283.19688199941
0.325886390958504,3283.20688199941
0.319446755811671,3283.21688199941
0.313803393545941,3283.22688199941
0.308826527127485,3283.23688199941
0.303609870653126,3283.24688199941
0.297127907935361,3283.25688199941
0.288906861392905,3283.26688199941
0.278668459646002,3283.27688199941
0.267592552919203,3283.28688199941
0.256830628043893,3283.29688199941
0.247350982450481,3283.30688199941
0.24062472483087,3283.31688199941
0.237426804714952,3283.32688199941
0.23789186903531,3283.33688199941
0.241640091743016,3283.34688199941
0.248251066980045,3283.35688199941
0.256333729192124,3283.36688199941
0.264303099283854,3283.37688199941
0.271200668978806,3283.38688199941
0.27626536153895,3283.39688199941
0.27845384143585,3283.40688199941
0.278069281743941,3283.41688199941
0.275005206774286,3283.42688199941
0.269080136964703,3283.43688199941
0.261948570187088,3283.44688199941
0.252855629877829,3283.45688199941
0.242002429681923,3283.46688199941
0.229918714854883,3283.47688199941
0.217379054563131,3283.48688199941
0.204588724213756,3283.49688199941
0.191676979641121,3283.50688199941
0.178595663601506,3283.51688199941
0.165461880911409,3283.52688199941
0.15224257803702,3283.53688199941
0.139418038091503,3283.54688199941
0.127257392459908,3283.55688199941
0.115746670969511,3283.56688199941
0.104839204693581,3283.57688199941
0.0939984190907117,3283.58688199941
0.0836779308794868,3283.59688199941
0.072946926246537,3283.60688199941
0.0614465840728559,3283.61688199941
0.0501911578960625,3283.62688199941
0.0385639515359537,3283.63688199941
0.0272693900813838,3283.64688199941
0.0161236588718967,3283.65688199941
0.00564937652903969,3283.66688199941
-0.00491253133388651,3283.67688199941
-0.0149416146726289,3283.68688199941
-0.0251910905913993,3283.69688199941
-0.0355123203251004,3283.70688199941
-0.0457777693645407,3283.71688199941
-0.0569096315388134,3283.72688199941
-0.0679908988069203,3283.73688199941
-0.0790848745385388,3283.74688199941
-0.0902724578650512,3283.75688199941
-0.100815164989901,3283.76688199941
-0.110787798660996,3283.77688199941
-0.120460515853786,3283.78688199941
-0.129329971132486,3283.79688199941
-0.137917053640066,3283.80688199941
-0.146285276102702,3283.81688199941
-0.154518503682655,3283.82688199941
-0.16207025176453,3283.83688199941
-0.169481751522274,3283.84688199941
-0.17755821946122,3283.85688199941
-0.185455090661284,3283.86688199941
-0.19365886957709,3283.87688199941
-0.201602854294909,3283.88688199941
-0.208924492139662,3283.89688199941
-0.216075400263753,3283.90688199941
-0.223189358385456,3283.91688199941
-0.2306934672525,3283.92688199941
-0.237495015606967,3283.93688199941
-0.243390264874807,3283.94688199941
-0.248483878362669,3283.95688199941
-0.252874614385675,3283.96688199941
-0.257719255821526,3283.97688199941
-0.262700830054086,3283.98688199941
-0.268535053577076,3283.99688199941
-0.27527830268087,3284.00688199941
-0.28244031035862,3284.01688199941
-0.290548571937468,3284.02688199941
-0.299352663809047,3284.03688199941
-0.308447901714956,3284.04688199941
-0.316247638310611,3284.05688199941
-0.320136211351115,3284.06688199941
-0.311511291313316,3284.07688199941
-0.276743168170893,3284.08688199941
-0.203381968317599,3284.09688199941
-0.089904104958403,3284.10688199941
0.0493222483114521,3284.11688199941
0.192578971421065,3284.12688199941
0.320661963821587,3284.13688199941
0.419823813423577,3284.14688199941
0.486870525388102,3284.15688199941
0.523545600640348,3284.16688199941
0.538207455131262,3284.17688199941
0.537748227376686,3284.18688199941
0.528563231425495,3284.19688199941
0.515290526987228,3284.20688199941
0.500026212357524,3284.21688199941
0.484859677740867,3284.22688199941
0.468208595922427,3284.23688199941
0.451219421562279,3284.24688199941
0.434874651690345,3284.25688199941
0.420051153187311,3284.26688199941
0.406834482588494,3284.27688199941
0.395797967131789,3284.28688199941
0.38607079419683,3284.29688199941
0.378084735338074,3284.30688199941
0.370933142014163,3284.31688199941
0.364410894700573,3284.32688199941
0.359034209090547,3284.33688199941
0.35479046847448,3284.34688199941
0.351605609873285,3284.35688199941
0.348926315606256,3284.36688199941
0.345764782065591,3284.37688199941
0.340895662957357,3284.38688199941
0.333554759814908,3284.39688199941
0.323685697416999,3284.40688199941
0.311623672010232,3284.41688199941
0.298817193994433,3284.42688199941
0.287242338197671,3284.43688199941
0.278514580926146,3284.44688199941
0.272347813508976,3284.45688199941
0.268986935228161,3284.46688199941
0.267898984804556,3284.47688199941
0.267743520155808,3284.48688199941
0.269105297130001,3284.49688199941
0.271294619510838,3284.50688199941
0.274586961234677,3284.51688199941
0.277293051439298,3284.52688199941
0.278469421086,3284.53688199941
0.278103911639834,3284.54688199941
0.275876410296972,3284.55688199941
0.271382689798882,3284.56688199941
0.264780530145163,3284.57688199941
0.256364157292809,3284.58688199941
0.246379517833224,3284.59688199941
0.235030652627299,3284.60688199941
0.222814724059775,3284.61688199941
0.209712251051996,3284.62688199941
0.195784195937767,3284.63688199941
0.181665645826338,3284.64688199941
0.167136800351752,3284.65688199941
0.152945075716512,3284.66688199941
0.138515046367341,3284.67688199941
0.12438083849979,3284.68688199941
0.110261990495421,3284.69688199941
0.095399752015285,3284.70688199941
0.0807805588409587,3284.71688199941
0.065945744808866,3284.72688199941
0.0512357259938279,3284.73688199941
0.0370396096632118,3284.74688199941
0.0230084343539425,3284.75688199941
0.00931543134466683,3284.76688199941
-0.00389333197499874,3284.77688199941
-0.017771836651108,3284.78688199941
-0.0311300295828488,3284.79688199941
-0.0441847282812876,3284.80688199941
-0.0570527547215375,3284.81688199941
-0.0693898985635081,3284.82688199941
-0.0813591471298727,3284.83688199941
-0.0930226873161219,3284.84688199941
-0.104705714338388,3284.85688199941
-0.116046408202319,3284.86688199941
-0.127088425818143,3284.87688199941
-0.137928844233733,3284.88688199941
-0.148156171806511,3284.89688199941
-0.158186275431459,3284.90688199941
-0.168033011782352,3284.91688199941
-0.177997851617471,3284.92688199941
-0.187575019668378,3284.93688199941
-0.197321712133694,3284.94688199941
-0.207112356154582,3284.95688199941
-0.21679784614832,3284.96688199941
-0.225995073630945,3284.97688199941
-0.234619327716515,3284.98688199941
-0.243312749627874,3284.99688199941
-0.251316099125052,3285.00688199941
-0.259663632950752,3285.01688199941
-0.267680837124682,3285.02688199941
-0.275782862403191,3285.03688199941
-0.283089873895134,3285.04688199941
-0.290098188656702,3285.05688199941
-0.296443470606711,3285.06688199941
-0.302012848773869,3285.07688199941
-0.307232397252398,3285.08688199941
-0.313019946178772,3285.09688199941
-0.318656796690379,3285.10688199941
-0.325239375830576,3285.11688199941
-0.332414887167386,3285.12688199941
-0.339690747592301,3285.13688199941
-0.347389456135342,3285.14688199941
-0.35526591673675,3285.15688199941
-0.363835624747648,3285.16688199941
-0.372715685315112,3285.17688199941
-0.380175539941889,3285.18688199941
-0.38299540873777,3285.19688199941
-0.372385829029114,3285.20688199941
-0.333176493895129,3285.21688199941
-0.252154375519177,3285.22688199941
-0.128072873912022,3285.23688199941
0.0227262968692481,3285.24688199941
0.176751689969294,3285.25688199941
0.311427116274774,3285.26688199941
0.41332725187939,3285.27688199941
0.479268707771216,3285.28688199941
0.51413330979784,3285.29688199941
0.525531403806255,3285.30688199941
0.521408159392572,3285.31688199941
0.508901424975465,3285.32688199941
0.492806478824048,3285.33688199941
0.474205519421127,3285.34688199941
0.454468407618498,3285.35688199941
0.434951980352779,3285.36688199941
0.414524837853334,3285.37688199941
0.394594130270713,3285.38688199941
0.375576200719431,3285.39688199941
0.358143680685469,3285.40688199941
0.341942528684747,3285.41688199941
0.328230094928956,3285.42688199941
0.316666071015115,3285.43688199941
0.306428305178747,3285.44688199941
0.298006335119117,3285.45688199941
0.290238308476521,3285.46688199941
0.282928193482106,3285.47688199941
0.275204167093134,3285.48688199941
0.266958960813048,3285.49688199941
0.25788287337568,3285.50688199941
0.247207237937853,3285.51688199941
0.235295868583074,3285.52688199941
0.222885963041399,3285.53688199941
0.211215891476503,3285.54688199941
0.201935359975892,3285.55688199941
0.195615105830958,3285.56688199941
0.193089813057167,3285.57688199941
0.194716824556666,3285.58688199941
0.199828668935596,3285.59688199941
0.207489827681557,3285.60688199941
0.217496569404438,3285.61688199941
0.228012783328676,3285.62688199941
0.237497026090175,3285.63688199941
0.244155134383101,3285.64688199941
0.24856199812148,3285.65688199941
0.249994818605939,3285.66688199941
0.247918764470944,3285.67688199941
0.243027468543569,3285.68688199941
0.235499121124507,3285.69688199941
0.22612860891254,3285.70688199941
0.215625125060106,3285.71688199941
0.204453678904702,3285.72688199941
0.193031941880164,3285.73688199941
0.181538625468181,3285.74688199941
0.169738767746555,3285.75688199941
0.157676134127881,3285.76688199941
0.145718926197085,3285.77688199941
0.133703722032022,3285.78688199941
0.122113652274262,3285.79688199941
0.110729065502984,3285.80688199941
0.0994736882177368,3285.81688199941
0.0883272844018366,3285.82688199941
0.076906317331147,3285.83688199941
0.0656265502284008,3285.84688199941
0.0539083087891015,3285.85688199941
0.0413034046265498,3285.86688199941
0.028585826346894,3285.87688199941
0.0156761105541503,3285.88688199941
0.00330217885645089,3285.89688199941
-0.00859587405024325,3285.90688199941
-0.0200099026262204,3285.91688199941
-0.0312904084474696,3285.92688199941
-0.0428107584911669,3285.93688199941
-0.0540439664546593,3285.94688199941
-0.0641719171325194,3285.95688199941
-0.0742860794173673,3285.96688199941
-0.0846762025013885,3285.97688199941
-0.0951290464772722,3285.98688199941
-0.105229834413469,3285.99688199941
-0.114457486563589,3286.00688199941
-0.123477957466219,3286.01688199941
-0.132079059787845,3286.02688199941
-0.140427132724148,3286.03688199941
-0.148169372661577,3286.04688199941
-0.155860664393651,3286.05688199941
-0.163458044470497,3286.06688199941
-0.170930209435567,3286.07688199941
-0.178857060484182,3286.08688199941
-0.187144188675481,3286.09688199941
-0.195842197168095,3286.10688199941
-0.204341210912615,3286.11688199941
-0.21261991332091,3286.12688199941
-0.22152127382572,3286.13688199941
-0.23097916065537,3286.14688199941
-0.239969036048806,3286.15688199941
-0.246414399928794,3286.16688199941
-0.245543461434394,3286.17688199941
-0.227267688619125,3286.18688199941
-0.177275827247327,3286.19688199941
-0.0887263893285673,3286.20688199941
0.0326350059978764,3286.21688199941
0.169906631371639,3286.22688199941
0.302193439119542,3286.23688199941
0.413283994818359,3286.24688199941
0.495319571616502,3286.25688199941
0.547793841332187,3286.26688199941
0.575391367003922,3286.27688199941
0.585336229616511,3286.28688199941
0.583566221812713,3286.29688199941
0.575593332452249,3286.30688199941
0.56402292519418,3286.31688199941
0.550477100745775,3286.32688199941
0.536299497487102,3286.33688199941
0.521078939478936,3286.34688199941
0.506526837311449,3286.35688199941
0.492910060176084,3286.36688199941
0.480717827178224,3286.37688199941
0.47056581686755,3286.38688199941
0.461770521106909,3286.39688199941
0.45438914069879,3286.40688199941
0.447950699272159,3286.41688199941
0.442152682332128,3286.42688199941
0.437016836869572,3286.43688199941
0.433523004338023,3286.44688199941
0.430846542615108,3286.45688199941
0.428706883212066,3286.46688199941
0.426386204250354,3286.47688199941
0.422362900308922,3286.48688199941
0.41578705082593,3286.49688199941
0.407088993922405,3286.50688199941
0.39580559339513,3286.51688199941
0.382581612120851,3286.52688199941
0.369926245111465,3286.53688199941
0.358878079511966,3286.54688199941
0.350114751213655,3286.55688199941
0.344778337584163,3286.56688199941
0.342270381953443,3286.57688199941
0.342670544243405,3286.58688199941
0.344550104005053,3286.59688199941
0.348382964927555,3286.60688199941
0.352646485497368,3286.61688199941
0.356846645006358,3286.62688199941
0.36006329261678,3286.63688199941
0.361670030372562,3286.64688199941
0.36128590391474,3286.65688199941
0.358492453816465,3286.66688199941
0.353806627545617,3286.67688199941
0.346404109316326,3286.68688199941
0.337816973811001,3286.69688199941
0.327916080258114,3286.70688199941
0.316554168294765,3286.71688199941
0.304556605692121,3286.72688199941
0.292556492444471,3286.73688199941
0.280036651937794,3286.74688199941
0.268044480805422,3286.75688199941
0.255160470274632,3286.76688199941
0.241653898846369,3286.77688199941
0.227752088126327,3286.78688199941
0.21372877628938,3286.79688199941
0.199797995752283,3286.80688199941
0.186291723922152,3286.81688199941
0.173333068233486,3286.82688199941
0.160588872825662,3286.83688199941
0.148228829787453,3286.84688199941
0.136318979644508,3286.85688199941
0.124404485930664,3286.86688199941
0.112217163045977,3286.87688199941
0.100152294918395,3286.88688199941
0.0874111509533119,3286.89688199941
0.0746414000949543,3286.90688199941
0.0623134602103268,3286.91688199941
0.0501401056416908,3286.92688199941
0.0380154126893706,3286.93688199941
0.0259177886178176,3286.94688199941
0.0142918738278561,3286.95688199941
0.00207751002525276,3286.96688199941
-0.0104042010769723,3286.97688199941
-0.0233205739586489,3286.98688199941
-0.0355121867832775,3286.99688199941
-0.0477834159024832,3287.00688199941
-0.0600933568892373,3287.01688199941
-0.0725285904447118,3287.02688199941
-0.0854704458557561,3287.03688199941
-0.098347688298622,3287.04688199941
-0.110140188923858,3287.05688199941
-0.12086208209304,3287.06688199941
-0.130496773331976,3287.07688199941
-0.13964726624939,3287.08688199941
-0.148679309397593,3287.09688199941
-0.157163744319328,3287.10688199941
-0.166020922088741,3287.11688199941
-0.174118747405214,3287.12688199941
-0.182384143761264,3287.13688199941
-0.190459088811696,3287.14688199941
-0.198911107288376,3287.15688199941
-0.208033911544242,3287.16688199941
-0.217397249550605,3287.17688199941
-0.227440352464326,3287.18688199941
-0.237275804350413,3287.19688199941
-0.244875601650042,3287.20688199941
-0.243148760633724,3287.21688199941
-0.222278026889145,3287.22688199941
-0.167207575908192,3287.23688199941
-0.0708710734436124,3287.24688199941
0.0588445088565175,3287.25688199941
0.202279038259308,3287.26688199941
0.3378488997543,3287.27688199941
0.449064194118408,3287.28688199941
0.527945071554595,3287.29688199941
0.576033333581932,3287.30688199941
0.599347019619861,3287.31688199941
0.605147492403894,3287.32688199941
0.600087375315979,3287.33688199941
0.588894674306891,3287.34688199941
0.573971180417963,3287.35688199941
0.556738698306221,3287.36688199941
0.539113808790171,3287.37688199941
0.522039016367883,3287.38688199941
0.506129192543656,3287.39688199941
0.491791664522368,3287.40688199941
0.478757505160624,3287.41688199941
0.466810317442879,3287.42688199941
0.455660376105431,3287.43688199941
0.446156407515959,3287.44688199941
0.437555756598076,3287.45688199941
0.429682153720637,3287.46688199941
0.422545440166098,3287.47688199941
0.416146324691427,3287.48688199941
0.410233534947065,3287.49688199941
0.404673929719681,3287.50688199941
0.398390917021547,3287.51688199941
0.390174954809023,3287.52688199941
0.3803183233316,3287.53688199941
0.368499432329892,3287.54688199941
0.355573185660596,3287.55688199941
0.342646047710965,3287.56688199941
0.331093493974355,3287.57688199941
0.321754555362415,3287.58688199941
0.315837502819184,3287.59688199941
0.313191873784101,3287.60688199941
0.313473345448319,3287.61688199941
0.315875331561876,3287.62688199941
0.319913513107569,3287.63688199941
0.325436350676061,3287.64688199941
0.331204651676205,3287.65688199941
0.336330418128083,3287.66688199941
0.339882495679092,3287.67688199941
0.341288095989337,3287.68688199941
0.340212117493975,3287.69688199941
0.336508527893617,3287.70688199941
0.330080159869486,3287.71688199941
0.32180601951076,3287.72688199941
0.310848794554427,3287.73688199941
0.299019708756607,3287.74688199941
0.286358994000492,3287.75688199941
0.272871585684078,3287.76688199941
0.259777829381029,3287.77688199941
0.246364247712036,3287.78688199941
0.233211636719497,3287.79688199941
0.219693827742915,3287.80688199941
0.206587160654536,3287.81688199941
0.193403601308423,3287.82688199941
0.179707359807822,3287.83688199941
0.166097772324528,3287.84688199941
0.152525451437425,3287.85688199941
0.139535255775544,3287.86688199941
0.1277255926593,3287.87688199941
0.115682028550423,3287.88688199941
0.104531492675572,3287.89688199941
0.0933914699312742,3287.90688199941
0.0816330468576421,3287.91688199941
0.0699481338956502,3287.92688199941
0.0576001141256521,3287.93688199941
0.0456801276809078,3287.94688199941
0.0339864341883803,3287.95688199941
0.0230209319700924,3287.96688199941
0.0117681758808381,3287.97688199941
0.00131581018224893,3287.98688199941
-0.00879832045808295,3287.99688199941
-0.0188559991068372,3288.00688199941
-0.0281916459707289,3288.01688199941
-0.0374106405927496,3288.02688199941
-0.0464677478104635,3288.03688199941
-0.0551620468319381,3288.04688199941
-0.0636754114118768,3288.05688199941
-0.0721806633978696,3288.06688199941
-0.0805696656265949,3288.07688199941
-0.0889030095930001,3288.08688199941
-0.0972472194596411,3288.09688199941
-0.106714979046644,3288.10688199941
-0.116502075190444,3288.11688199941
-0.127576123473745,3288.12688199941
-0.139072742475541,3288.13688199941
-0.150195668835589,3288.14688199941
-0.158373477313094,3288.15688199941
-0.157469143135306,3288.16688199941
-0.136917645207998,3288.17688199941
-0.0837921774939424,3288.18688199941
0.00582434389114007,3288.19688199941
0.123819385989644,3288.20688199941
0.252977232602888,3288.21688199941
0.374157737906877,3288.22688199941
0.473656103901699,3288.23688199941
0.545242699976975,3288.24688199941
0.589239457976751,3288.25688199941
0.610883100109973,3288.26688199941
0.615864383001318,3288.27688199941
0.610028602094669,3288.28688199941
0.597826533990824,3288.29688199941
0.58238453132088,3288.30688199941
0.56520335184609,3288.31688199941
0.547827287907728,3288.32688199941
0.530905026422329,3288.33688199941
0.514707736451382,3288.34688199941
0.499611556053692,3288.35688199941
0.485824934956935,3288.36688199941
0.474011642482481,3288.37688199941
0.463623142707564,3288.38688199941
0.455410445406751,3288.39688199941
0.447972701490188,3288.40688199941
0.441295990166682,3288.41688199941
0.43556868097616,3288.42688199941
0.430376794723047,3288.43688199941
0.424763107345939,3288.44688199941
0.417848927881759,3288.45688199941
0.409157728963236,3288.46688199941
0.398046164447828,3288.47688199941
0.384356365047769,3288.48688199941
0.369708060205795,3288.49688199941
0.35568545248457,3288.50688199941
0.343638055898023,3288.51688199941
0.334878404309399,3288.52688199941
0.329822727882636,3288.53688199941
0.328143059149979,3288.54688199941
0.329866217796749,3288.55688199941
0.333652865826256,3288.56688199941
0.338688714588908,3288.57688199941
0.344287846921078,3288.58688199941
0.348707365910432,3288.59688199941
0.351638658030138,3288.60688199941
0.352836189363636,3288.61688199941
0.352181181505108,3288.62688199941
0.349226387032584,3288.63688199941
0.344129257183054,3288.64688199941
0.336265927485416,3288.65688199941
0.326313478547489,3288.66688199941
0.315127107893709,3288.67688199941
0.302894412247014,3288.68688199941
0.29033087145709,3288.69688199941
0.277483893831159,3288.70688199941
0.264576313813235,3288.71688199941
0.251148817418655,3288.72688199941
0.237200513034332,3288.73688199941
0.222968104793254,3288.74688199941
0.208763343691178,3288.75688199941
0.195176151563315,3288.76688199941
0.181688947551145,3288.77688199941
0.16871402537702,3288.78688199941
0.155425030994406,3288.79688199941
0.142301716537059,3288.80688199941
0.130155081289035,3288.81688199941
0.117602321907498,3288.82688199941
0.105697230296545,3288.83688199941
0.0935984392782624,3288.84688199941
0.0814242672809676,3288.85688199941
0.0689521108812236,3288.86688199941
0.0556033096895324,3288.87688199941
0.0420610039335212,3288.88688199941
0.0287492422333168,3288.89688199941
0.0162722440571376,3288.90688199941
0.00455328643068752,3288.91688199941
-0.00623923416606226,3288.92688199941
-0.01734043598853,3288.93688199941
-0.0279112617620223,3288.94688199941
-0.0387015889300026,3288.95688199941
-0.0500967068613728,3288.96688199941
-0.0614995570828555,3288.97688199941
-0.0730163884000828,3288.98688199941
-0.0849634519354967,3288.99688199941
-0.096000886666053,3289.00688199941
-0.106933225485392,3289.01688199941
-0.117616124586174,3289.02688199941
-0.128416187466199,3289.03688199941
-0.139736077691757,3289.04688199941
-0.151271713214915,3289.05688199941
-0.162220748300142,3289.06688199941
-0.17229617494675,3289.07688199941
-0.182171942822712,3289.08688199941
-0.192377724702781,3289.09688199941
-0.203247490960472,3289.10688199941
-0.214757954063275,3289.11688199941
-0.227209009016643,3289.12688199941
-0.239126447782402,3289.13688199941
-0.248084505326702,3289.14688199941
-0.248298175287761,3289.15688199941
-0.2273571804517,3289.16688199941
-0.170450139320593,3289.17688199941
-0.0718178197807448,3289.18688199941
0.0593055602944915,3289.19688199941
0.202528647911003,3289.20688199941
0.33668787461928,3289.21688199941
0.445742670124827,3289.22688199941
0.523881130791548,3289.23688199941
0.571733789529525,3289.24688199941
0.595035506466233,3289.25688199941
0.601114398440996,3289.26688199941
0.595862872641579,3289.27688199941
0.584495272208432,3289.28688199941
0.569954111653969,3289.29688199941
0.554110098716251,3289.30688199941
0.537961543810442,3289.31688199941
0.521517549656742,3289.32688199941
0.506086359097001,3289.33688199941
0.491875247488776,3289.34688199941
0.478601261659951,3289.35688199941
0.466982623474239,3289.36688199941
0.4566750783916,3289.37688199941
0.448673392562683,3289.38688199941
0.442554131327067,3289.39688199941
0.437786023818104,3289.40688199941
0.434683195858858,3289.41688199941
0.43259558802254,3289.42688199941
0.430783496383918,3289.43688199941
0.429041152145352,3289.44688199941
0.425809904199862,3289.45688199941
0.420349054537173,3289.46688199941
0.412508133800881,3289.47688199941
0.402548796210021,3289.48688199941
0.392114959544972,3289.49688199941
0.381845402382309,3289.50688199941
0.373375957034495,3289.51688199941
0.366898641928392,3289.52688199941
0.363723153201839,3289.53688199941
0.363642215931099,3289.54688199941
0.367133690876347,3289.55688199941
0.372388294659065,3289.56688199941
0.377886301473343,3289.57688199941
0.382903830851523,3289.58688199941
0.385962803961656,3289.59688199941
0.387306948128185,3289.60688199941
0.386000165857751,3289.61688199941
0.382721697339195,3289.62688199941
0.377442369209008,3289.63688199941
0.36976418142222,3289.64688199941
0.360156337783426,3289.65688199941
0.34868827425981,3289.66688199941
0.335761805503628,3289.67688199941
0.321782542237268,3289.68688199941
0.30737397112758,3289.69688199941
0.292831891619918,3289.70688199941
0.278415435770293,3289.71688199941
0.263821954739788,3289.72688199941
0.249523502715108,3289.73688199941
0.234708716221743,3289.74688199941
0.219216495292712,3289.75688199941
0.204191253401365,3289.76688199941
0.189421850292917,3289.77688199941
0.174998925124261,3289.78688199941
0.160893477534635,3289.79688199941
0.146883972855344,3289.80688199941
0.133714366758104,3289.81688199941
0.12018877047943,3289.82688199941
0.10648010330659,3289.83688199941
0.0928341129957971,3289.84688199941
0.0801048225897232,3289.85688199941
0.0676207309136103,3289.86688199941
0.0564686382977153,3289.87688199941
0.0458216739593933,3289.88688199941
0.0353578851494577,3289.89688199941
0.0245029002612673,3289.90688199941
0.0134941475837467,3289.91688199941
0.00294618971049233,3289.92688199941
-0.00725395154898664,3289.93688199941
-0.0171927918019055,3289.94688199941
-0.0268025275416613,3289.95688199941
-0.036649208143634,3289.96688199941
-0.0466704631403847,3289.97688199941
-0.0564923312895352,3289.98688199941
-0.0669037274972256,3289.99688199941
-0.0770548574815398,3290.00688199941
-0.0864028537186933,3290.01688199941
-0.0955202188003898,3290.02688199941
-0.105004139168032,3290.03688199941
-0.114569153980288,3290.04688199941
-0.124224940059467,3290.05688199941
-0.134026989547456,3290.06688199941
-0.144516532479443,3290.07688199941
-0.15459994013731,3290.08688199941
-0.163465831400925,3290.09688199941
-0.16815588924949,3290.10688199941
-0.161346115214411,3290.11688199941
-0.129213036710665,3290.12688199941
-0.0595848837716195,3290.13688199941
0.046988655146041,3290.14688199941
0.177608882030975,3290.15688199941
0.311948352443382,3290.16688199941
0.432033204578826,3290.17688199941
0.526428833680348,3290.18688199941
0.590967793451876,3290.19688199941
0.62908427637484,3290.20688199941
0.646930202721068,3290.21688199941
0.650735043722194,3290.22688199941
0.646255762087879,3290.23688199941
0.636483422583778,3290.24688199941
0.623503637404829,3290.25688199941
0.609324350877508,3290.26688199941
0.594697467179912,3290.27688199941
0.580381158308208,3290.28688199941
0.566372045378842,3290.29688199941
0.553695411965684,3290.30688199941
0.541260568887519,3290.31688199941
0.530220605147811,3290.32688199941
0.521745801874659,3290.33688199941
0.515894277259843,3290.34688199941
0.512659203659658,3290.35688199941
0.510724620875611,3290.36688199941
0.509660191108688,3290.37688199941
0.508122775451884,3290.38688199941
0.505269195881018,3290.39688199941
0.501081555472599,3290.40688199941
0.493747726293966,3290.41688199941
0.483058192262328,3290.42688199941
0.468722840168421,3290.43688199941
0.452441096960748,3290.44688199941
0.435821722014862,3290.45688199941
0.42103250296518,3290.46688199941
0.409067452818293,3290.47688199941
0.400996328110319,3290.48688199941
0.396490553822797,3290.49688199941
0.395201539536218,3290.50688199941
0.396211768898968,3290.51688199941
0.398761084985876,3290.52688199941
0.401799360078988,3290.53688199941
0.40471957749909,3290.54688199941
0.407747574190825,3290.55688199941
0.40918267605577,3290.56688199941
0.408262995525531,3290.57688199941
0.404509282197587,3290.58688199941
0.398266649638608,3290.59688199941
0.389299796405998,3290.60688199941
0.378491161578826,3290.61688199941
0.366301684195336,3290.62688199941
0.352349767431681,3290.63688199941
0.337917210851209,3290.64688199941
0.323198253561998,3290.65688199941
0.308083527168339,3290.66688199941
0.2934967415169,3290.67688199941
0.278892528095579,3290.68688199941
0.26360365904079,3290.69688199941
0.248853567741092,3290.70688199941
0.233133581649568,3290.71688199941
0.217270284046331,3290.72688199941
0.20189684166537,3290.73688199941
0.187293352669285,3290.74688199941
0.173445153443769,3290.75688199941
0.160406456574552,3290.76688199941
0.14824342831678,3290.77688199941
0.13588315249264,3290.78688199941
0.123241147774126,3290.79688199941
0.110324955366975,3290.80688199941
0.0972869425404868,3290.81688199941
0.0838890631740054,3290.82688199941
0.0702686702391518,3290.83688199941
0.0565574307530999,3290.84688199941
0.0425647078127099,3290.85688199941
0.0291128545358544,3290.86688199941
0.01601584203845,3290.87688199941
0.00334729612487538,3290.88688199941
-0.00929900502129743,3290.89688199941
-0.0219803676555816,3290.90688199941
-0.034961353782172,3290.91688199941
-0.0476556395714053,3290.92688199941
-0.0605101228191737,3290.93688199941
-0.0732923402510157,3290.94688199941
-0.0864600547531115,3290.95688199941
-0.0992706046851416,3290.96688199941
-0.112001166735615,3290.97688199941
-0.125700955415798,3290.98688199941
-0.139134910294206,3290.99688199941
-0.152942458123728,3291.00688199941
-0.166764132375369,3291.01688199941
-0.181072446312899,3291.02688199941
-0.195058285998993,3291.03688199941
-0.208462579213598,3291.04688199941
-0.221221740692244,3291.05688199941
-0.23202052414157,3291.06688199941
-0.242015520379867,3291.07688199941
-0.251268719629139,3291.08688199941
-0.26089024284699,3291.09688199941
-0.270775699556603,3291.10688199941
-0.28173792007711,3291.11688199941
-0.292129330352887,3291.12688199941
-0.302272811354878,3291.13688199941
-0.311864366707274,3291.14688199941
-0.32252100833079,3291.15688199941
-0.333416704249837,3291.16688199941
-0.343363399417777,3291.17688199941
-0.349231281819943,3291.18688199941
-0.341704875563919,3291.19688199941
-0.306191384547428,3291.20688199941
-0.227780160501577,3291.21688199941
-0.104672777634892,3291.22688199941
0.04838971459628,3291.23688199941
0.207175571118341,3291.24688199941
0.34828931528599,3291.25688199941
0.456605430820487,3291.26688199941
0.528935194011868,3291.27688199941
0.569170841360547,3291.28688199941
0.585419713440584,3291.29688199941
0.586178901267082,3291.30688199941
0.577471974091345,3291.31688199941
0.564029501834178,3291.32688199941
0.547520848461184,3291.33688199941
0.529253688177395,3291.34688199941
0.510539629434524,3291.35688199941
0.490967854004149,3291.36688199941
0.471397735233971,3291.37688199941
0.453145413033517,3291.38688199941
0.435806823332156,3291.39688199941
0.421106942501555,3291.40688199941
0.408821541665873,3291.41688199941
0.398071367561021,3291.42688199941
0.388487529585324,3291.43688199941
0.380352808395411,3291.44688199941
0.373766009077142,3291.45688199941
0.367442228830876,3291.46688199941
0.360638746832442,3291.47688199941
0.353456677536718,3291.48688199941
0.344431414230457,3291.49688199941
0.332233476700045,3291.50688199941
0.317922826386273,3291.51688199941
0.301426400173266,3291.52688199941
0.284651833563096,3291.53688199941
0.268752461608377,3291.54688199941
0.255540951892527,3291.55688199941
0.246981562432386,3291.56688199941
0.242438387200257,3291.57688199941
0.242389259014226,3291.58688199941
0.245598136767315,3291.59688199941
0.251156671049279,3291.60688199941
0.257994201237888,3291.61688199941
0.264692229208292,3291.62688199941
0.270140313494392,3291.63688199941
0.273331698295027,3291.64688199941
0.273630878747388,3291.65688199941
0.27051772719321,3291.66688199941
0.264386930813547,3291.67688199941
0.254667965521781,3291.68688199941
0.242103043502243,3291.69688199941
0.227860594845251,3291.70688199941
0.212996108003494,3291.71688199941
0.197813861279406,3291.72688199941
0.182656402039541,3291.73688199941
0.166265158700191,3291.74688199941
0.149876549984432,3291.75688199941
0.132884642378594,3291.76688199941
0.116251696356732,3291.77688199941
0.0999891010739146,3291.78688199941
0.0842844412266204,3291.79688199941
0.0689975540417767,3291.80688199941
0.0543381701288148,3291.81688199941
0.0393733443497616,3291.82688199941
0.0236309848907595,3291.83688199941
0.00756429304464589,3291.84688199941
-0.008404269119885,3291.85688199941
-0.0235040434269045,3291.86688199941
-0.0375802569127484,3291.87688199941
-0.0509817432416166,3291.88688199941
-0.0638210089245306,3291.89688199941
-0.0775546266543953,3291.90688199941
-0.0908845642776636,3291.91688199941
-0.10395417917783,3291.92688199941
-0.116817114951254,3291.93688199941
-0.12956788352076,3291.94688199941
-0.142374762833678,3291.95688199941
-0.154763692694852,3291.96688199941
-0.167291433745161,3291.97688199941
-0.17997856299263,3291.98688199941
-0.192493603486338,3291.99688199941
-0.204921297851261,3292.00688199941
-0.216725115056304,3292.01688199941
-0.227537628927689,3292.02688199941
-0.238249918366349,3292.03688199941
-0.24806410332916,3292.04688199941
-0.257143927063869,3292.05688199941
-0.266375910916703,3292.06688199941
-0.275158716677262,3292.07688199941
-0.284369668435569,3292.08688199941
-0.293803995329517,3292.09688199941
-0.303823507199687,3292.10688199941
-0.315195380419481,3292.11688199941
-0.326660868333659,3292.12688199941
-0.337867245525951,3292.13688199941
-0.347508764369063,3292.14688199941
-0.349357607109362,3292.15688199941
-0.332741271015209,3292.16688199941
-0.281416982016273,3292.17688199941
-0.185746995137553,3292.18688199941
-0.0525421140533775,3292.19688199941
0.0983143136129394,3292.20688199941
0.243163090580545,3292.21688199941
0.363942128810257,3292.22688199941
0.451762332724638,3292.23688199941
0.506671428042484,3292.24688199941
0.534000914990546,3292.25688199941
0.541289923243159,3292.26688199941
0.536177843225351,3292.27688199941
0.524262890099486,3292.28688199941
0.508566018196502,3292.29688199941
0.49086974374864,3292.30688199941
0.472175980572748,3292.31688199941
0.453110994635651,3292.32688199941
0.434746767603229,3292.33688199941
0.417140441434535,3292.34688199941
0.401728415800853,3292.35688199941
0.387282670149798,3292.36688199941
0.373977616930268,3292.37688199941
0.361841043763355,3292.38688199941
0.350936503598436,3292.39688199941
0.341233233256589,3292.40688199941
0.332397817123439,3292.41688199941
0.323991213599083,3292.42688199941
0.315146715977958,3292.43688199941
0.305446626348378,3292.44688199941
0.293671383761496,3292.45688199941
0.279263318561032,3292.46688199941
0.262967985035158,3292.47688199941
0.246358842165583,3292.48688199941
0.231193001311604,3292.49688199941
0.220419766625582,3292.50688199941
0.21508603359353,3292.51688199941
0.214881158841798,3292.52688199941
0.219901999107575,3292.53688199941
0.229518542550617,3292.54688199941
0.242076335376492,3292.55688199941
0.255982135295758,3292.56688199941
0.269751792022775,3292.57688199941
0.281442309745826,3292.58688199941
0.289864793481929,3292.59688199941
0.293641665233975,3292.60688199941
0.293282412379113,3292.61688199941
0.288546666943057,3292.62688199941
0.279604492673203,3292.63688199941
0.266447582714013,3292.64688199941
0.25122721772094,3292.65688199941
0.234676889561939,3292.66688199941
0.218049381921608,3292.67688199941
0.201933573959226,3292.68688199941
0.185425566894449,3292.69688199941
0.168378803019218,3292.70688199941
0.150434557482579,3292.71688199941
0.132464216965569,3292.72688199941
0.114638407025472,3292.73688199941
0.0962085527089541,3292.74688199941
0.0788325039393773,3292.75688199941
0.0612529846027377,3292.76688199941
0.0441139123302699,3292.77688199941
0.0272137655905715,3292.78688199941
0.00942712144119012,3292.79688199941
-0.00832219278939853,3292.80688199941
-0.0263143836766023,3292.81688199941
-0.0428822889085387,3292.82688199941
-0.0593807594202437,3292.83688199941
-0.0755699792594419,3292.84688199941
-0.0914757803951161,3292.85688199941
-0.106674289305258,3292.86688199941
-0.121915046693606,3292.87688199941
-0.136217603345707,3292.88688199941
-0.150073469792519,3292.89688199941
-0.163408801498503,3292.90688199941
-0.176928853004465,3292.91688199941
-0.189961688704276,3292.92688199941
-0.203427765509177,3292.93688199941
-0.216282944760967,3292.94688199941
-0.228052855745217,3292.95688199941
-0.23918122138255,3292.96688199941
-0.248945728382342,3292.97688199941
-0.258815288030997,3292.98688199941
-0.268674484901341,3292.99688199941
-0.278344630822385,3293.00688199941
-0.288399429646537,3293.01688199941
-0.298632552271846,3293.02688199941
-0.309343708360888,3293.03688199941
-0.320887182728271,3293.04688199941
-0.333176514666192,3293.05688199941
-0.34570425529513,3293.06688199941
-0.357361051061795,3293.07688199941
-0.365730409618627,3293.08688199941
-0.364462692903514,3293.09688199941
-0.340838036026329,3293.10688199941
-0.278330694925139,3293.11688199941
-0.169839959472858,3293.12688199941
-0.0252163665720541,3293.13688199941
0.133191870924942,3293.14688199941
0.281648122940742,3293.15688199941
0.402343172892673,3293.16688199941
0.488450552088034,3293.17688199941
0.5409583907198,3293.18688199941
0.566771896497639,3293.19688199941
0.574004852268162,3293.20688199941
0.56993842557887,3293.21688199941
0.559763613067115,3293.22688199941
0.546702571466833,3293.23688199941
0.531831015377075,3293.24688199941
0.516781299575887,3293.25688199941
0.500664913777378,3293.26688199941
0.48460738904695,3293.27688199941
0.46924762494941,3293.28688199941
0.454686958668906,3293.29688199941
0.442476861993478,3293.30688199941
0.431608312637934,3293.31688199941
0.422317651632399,3293.32688199941
0.41406236331134,3293.33688199941
0.407445316162947,3293.34688199941
0.401958278726605,3293.35688199941
0.397334816575547,3293.36688199941
0.392572845022781,3293.37688199941
0.386956109359074,3293.38688199941
0.380081789691543,3293.39688199941
0.370036013979717,3293.40688199941
0.356904631383171,3293.41688199941
0.340703734491045,3293.42688199941
0.32255169311129,3293.43688199941
0.304576952119972,3293.44688199941
0.289325228018251,3293.45688199941
0.277609341614876,3293.46688199941
0.270055252244679,3293.47688199941
0.267096792820482,3293.48688199941
0.267630864366105,3293.49688199941
0.271482736023009,3293.50688199941
0.277060345240972,3293.51688199941
0.283111373672142,3293.52688199941
0.288086785664763,3293.53688199941
0.291101264144928,3293.54688199941
0.291659870614999,3293.55688199941
0.289294537749103,3293.56688199941
0.283471672493325,3293.57688199941
0.27509500430617,3293.58688199941
0.263536784389596,3293.59688199941
0.250224675440622,3293.60688199941
0.234850105655486,3293.61688199941
0.218209759252935,3293.62688199941
0.201363045012213,3293.63688199941
0.18420542073061,3293.64688199941
0.16717442099558,3293.65688199941
0.150284679742622,3293.66688199941
0.133319377936371,3293.67688199941
0.116287295207708,3293.68688199941
0.0990873045120536,3293.69688199941
0.0820917389149893,3293.70688199941
0.0655436671547267,3293.71688199941
0.0490089259629315,3293.72688199941
0.032756485561359,3293.73688199941
0.0167713340243448,3293.74688199941
0.00150453344980572,3293.75688199941
-0.0130508959432268,3293.76688199941
-0.0277362305382084,3293.77688199941
-0.0423399754371108,3293.78688199941
-0.058046340019487,3293.79688199941
-0.0737116571280749,3293.80688199941
-0.089865411137904,3293.81688199941
-0.105848437135291,3293.82688199941
-0.121767580006094,3293.83688199941
-0.136957173556999,3293.84688199941
-0.151477791966103,3293.85688199941
-0.165056245436795,3293.86688199941
-0.178487695420867,3293.87688199941
-0.191612049336958,3293.88688199941
-0.205169663687112,3293.89688199941
-0.218668726729066,3293.90688199941
-0.23200234954629,3293.91688199941
-0.245314642190908,3293.92688199941
-0.257054290814148,3293.93688199941
-0.268473430722638,3293.94688199941
-0.278845393408868,3293.95688199941
-0.288750753021849,3293.96688199941
-0.298598571065053,3293.97688199941
-0.308356231714386,3293.98688199941
-0.318783117688631,3293.99688199941
-0.33055416390673,3294.00688199941
-0.343460769347483,3294.01688199941
-0.356103315786038,3294.02688199941
-0.3687018843744,3294.03688199941
-0.379815411025988,3294.04688199941
-0.387027137445908,3294.05688199941
-0.383538243028707,3294.06688199941
-0.354369861879752,3294.07688199941
-0.284865517222057,3294.08688199941
-0.169799497056833,3294.09688199941
-0.0202624089194323,3294.10688199941
0.140021380835732,3294.11688199941
0.286573177027506,3294.12688199941
0.403375559278589,3294.13688199941
0.483378447193484,3294.14688199941
0.529532609073726,3294.15688199941
0.549099452423969,3294.16688199941
0.551396685805997,3294.17688199941
0.542241930146979,3294.18688199941
0.528215412241382,3294.19688199941
0.511110174751465,3294.20688199941
0.491801932150829,3294.21688199941
0.472185121833992,3294.22688199941
0.451920877564319,3294.23688199941
0.432697736272152,3294.24688199941
0.414801184162756,3294.25688199941
0.398676300549349,3294.26688199941
0.38444757629617,3294.27688199941
0.371990948122365,3294.28688199941
0.360762059688392,3294.29688199941
0.35075005702073,3294.30688199941
0.341909506291884,3294.31688199941
0.333105525874869,3294.32688199941
0.324750415930862,3294.33688199941
0.316659444488402,3294.34688199941
0.307411485178293,3294.35688199941
0.296347264737777,3294.36688199941
0.281780739891394,3294.37688199941
0.264280031971147,3294.38688199941
0.244546974683605,3294.39688199941
0.224207790323831,3294.40688199941
0.205628040434365,3294.41688199941
0.189624220357251,3294.42688199941
0.1773136690379,3294.43688199941
0.169893370866273,3294.44688199941
0.168047642300047,3294.45688199941
0.170461666268471,3294.46688199941
0.17628450528991,3294.47688199941
0.183256763738617,3294.48688199941
0.189753408903035,3294.49688199941
0.194542589284916,3294.50688199941
0.197319978061353,3294.51688199941
0.196825940781637,3294.52688199941
0.192716468930776,3294.53688199941
0.185003328005956,3294.54688199941
0.174562943974043,3294.55688199941
0.161966139167462,3294.56688199941
0.147726173308286,3294.57688199941
0.13221907717348,3294.58688199941
0.11606179568967,3294.59688199941
0.0990675119593624,3294.60688199941
0.0816745579392767,3294.61688199941
0.0637186056005339,3294.62688199941
0.0449711039298686,3294.63688199941
0.0257623386509544,3294.64688199941
0.00720649153316689,3294.65688199941
-0.0104888762499321,3294.66688199941
-0.0279306114442189,3294.67688199941
-0.0453633678947161,3294.68688199941
-0.0631394495712012,3294.69688199941
-0.0802504731622847,3294.70688199941
-0.0976662634339888,3294.71688199941
-0.114003470135249,3294.72688199941
-0.130036899750169,3294.73688199941
-0.145297391580884,3294.74688199941
-0.159946988520835,3294.75688199941
-0.174313191118921,3294.76688199941
-0.188527848205651,3294.77688199941
-0.202682365721677,3294.78688199941
-0.216387670529865,3294.79688199941
-0.229489470869255,3294.80688199941
-0.242337486824307,3294.81688199941
-0.254917108174103,3294.82688199941
-0.267557326998176,3294.83688199941
-0.280321189109561,3294.84688199941
-0.292418684039392,3294.85688199941
-0.303772693087592,3294.86688199941
-0.315329076733462,3294.87688199941
-0.325903605401973,3294.88688199941
-0.336247617600776,3294.89688199941
-0.346996812593571,3294.90688199941
-0.35755591559528,3294.91688199941
-0.36826634978696,3294.92688199941
-0.379223967175249,3294.93688199941
-0.391464145599751,3294.94688199941
-0.404403004773659,3294.95688199941
-0.417325609230267,3294.96688199941
-0.429111419713772,3294.97688199941
-0.436397648034154,3294.98688199941
-0.433061028336418,3294.99688199941
-0.405140660784881,3295.00688199941
-0.338064586685019,3295.01688199941
-0.225675393599333,3295.02688199941
-0.0780681103506585,3295.03688199941
0.0806402198409228,3295.04688199941
0.226641558952071,3295.05688199941
0.343580593869726,3295.06688199941
0.423458814630021,3295.07688199941
0.468852965234221,3295.08688199941
0.486799817925304,3295.09688199941
0.485552134260562,3295.10688199941
0.472071102663438,3295.11688199941
0.452458359368751,3295.12688199941
0.431955504716457,3295.13688199941
0.411760027022767,3295.14688199941
0.392291334093938,3295.15688199941
0.372483772194544,3295.16688199941
0.352920971824855,3295.17688199941
0.33371635444845,3295.18688199941
0.315564065056073,3295.19688199941
0.298645843817113,3295.20688199941
0.283846687368499,3295.21688199941
0.270882923377839,3295.22688199941
0.259815925884415,3295.23688199941
0.250296591537128,3295.24688199941
0.241616716335722,3295.25688199941
0.232273168668053,3295.26688199941
0.22076559436171,3295.27688199941
0.207395057847753,3295.28688199941
0.190733475963849,3295.29688199941
0.171869144175496,3295.30688199941
0.151730751725605,3295.31688199941
0.132757364018147,3295.32688199941
0.116837651564268,3295.33688199941
0.105195685784219,3295.34688199941
0.0991014806032056,3295.35688199941
0.098784343477558,3295.36688199941
0.103116730185337,3295.37688199941
0.111453176880154,3295.38688199941
0.122864070593006,3295.39688199941
0.135080164054569,3295.40688199941
0.146360569790234,3295.41688199941
0.155323034178601,3295.42688199941
0.160402886468995,3295.43688199941
0.160705856432594,3295.44688199941
0.157148477472471,3295.45688199941
0.149131563077869,3295.46688199941
0.137631346252681,3295.47688199941
0.123775792650158,3295.48688199941
0.10855393795777,3295.49688199941
0.0924939415369039,3295.50688199941
0.0772663471154844,3295.51688199941
0.0625258852754508,3295.52688199941
0.0478044711614895,3295.53688199941
0.0333695261426912,3295.54688199941
0.0192020033377205,3295.55688199941
0.00525483026052337,3295.56688199941
-0.00878781721932069,3295.57688199941
-0.0226058019585052,3295.58688199941
-0.036906991400966,3295.59688199941
-0.0514861141218093,3295.60688199941
-0.0658914189007279,3295.61688199941
-0.0797935367684594,3295.62688199941
-0.0928780119657202,3295.63688199941
-0.106144902268504,3295.64688199941
-0.11910371652712,3295.65688199941
-0.132096395606709,3295.66688199941
-0.145543076979898,3295.67688199941
-0.158779330964495,3295.68688199941
-0.172216507216451,3295.69688199941
-0.18545402900422,3295.70688199941
-0.198746462118513,3295.71688199941
-0.211852324276848,3295.72688199941
-0.225574431834625,3295.73688199941
-0.239744760316473,3295.74688199941
-0.253250011830282,3295.75688199941
-0.266033989361852,3295.76688199941
-0.277497915613477,3295.77688199941
-0.287740421328277,3295.78688199941
-0.297582615347576,3295.79688199941
-0.307024025399589,3295.80688199941
-0.317139199229129,3295.81688199941
-0.327147074612029,3295.82688199941
-0.337373248274602,3295.83688199941
-0.347835888116386,3295.84688199941
-0.359046955028553,3295.85688199941
-0.370975017939989,3295.86688199941
-0.3833358215564,3295.87688199941
-0.396276622950856,3295.88688199941
-0.407118538120363,3295.89688199941
-0.412821390965974,3295.90688199941
-0.405097490850899,3295.91688199941
-0.367883209094311,3295.92688199941
-0.287754564752485,3295.93688199941
-0.1642551111514,3295.94688199941
-0.0129592564616613,3295.95688199941
0.142218022680207,3295.96688199941
0.279323529855459,3295.97688199941
0.384660478778327,3295.98688199941
0.455028726839762,3295.99688199941
0.494224974230733,3296.00688199941
0.509721571259041,3296.01688199941
0.509739526158661,3296.02688199941
0.500982906373812,3296.03688199941
0.487351140606106,3296.04688199941
0.471671896864079,3296.05688199941
0.454660885099977,3296.06688199941
0.43709572042885,3296.07688199941
0.419739502084852,3296.08688199941
0.403453354175058,3296.09688199941
0.387764998222202,3296.10688199941
0.37392208583833,3296.11688199941
0.362107050877085,3296.12688199941
0.351886180638583,3296.13688199941
0.343272482004091,3296.14688199941
0.336296853841308,3296.15688199941
0.330315551727495,3296.16688199941
0.325148800107858,3296.17688199941
0.320189177345345,3296.18688199941
0.314696189106079,3296.19688199941
0.307193998915347,3296.20688199941
0.29642744312629,3296.21688199941
0.28273485435608,3296.22688199941
0.266461659451313,3296.23688199941
0.249668497058245,3296.24688199941
0.233597443813933,3296.25688199941
0.219498440755885,3296.26688199941
0.20956570176666,3296.27688199941
0.204214232660531,3296.28688199941
0.20360337203397,3296.29688199941
0.207694220645312,3296.30688199941
0.215095722363194,3296.31688199941
0.224312411816231,3296.32688199941
0.233703415617906,3296.33688199941
0.241206264149124,3296.34688199941
0.246124623798582,3296.35688199941
0.24656197279254,3296.36688199941
0.242716024175717,3296.37688199941
0.234182863415022,3296.38688199941
0.222646415060158,3296.39688199941
0.208825090718645,3296.40688199941
0.193729867553971,3296.41688199941
0.17831976196679,3296.42688199941
0.162390462742583,3296.43688199941
0.145288156581459,3296.44688199941
0.127602563453775,3296.45688199941
0.109303656418332,3296.46688199941
0.0904876219778264,3296.47688199941
0.0712513066354657,3296.48688199941
0.0514786695463732,3296.49688199941
0.0320565445322071,3296.50688199941
0.0134484139201105,3296.51688199941
-0.00464048408316162,3296.52688199941
-0.0222415027726265,3296.53688199941
-0.0391066658107745,3296.54688199941
-0.0554527310364335,3296.55688199941
-0.0704793695529124,3296.56688199941
-0.085335783255813,3296.57688199941
-0.0995881047234093,3296.58688199941
-0.113521292617446,3296.59688199941
-0.127218557942587,3296.60688199941
-0.140215310720282,3296.61688199941
-0.153054966394521,3296.62688199941
-0.165506350687778,3296.63688199941
-0.178413453396315,3296.64688199941
-0.192497316714081,3296.65688199941
-0.207547942003675,3296.66688199941
-0.222412875839142,3296.67688199941
-0.23697938887751,3296.68688199941
-0.250759185022568,3296.69688199941
-0.264683056310509,3296.70688199941
-0.278547867636381,3296.71688199941
-0.292626908140496,3296.72688199941
-0.306777652254007,3296.73688199941
-0.320524163313065,3296.74688199941
-0.334078271301301,3296.75688199941
-0.346916153563266,3296.76688199941
-0.359318142648124,3296.77688199941
-0.371282124558187,3296.78688199941
-0.382678033257406,3296.79688199941
-0.394773552217989,3296.80688199941
-0.407112240825991,3296.81688199941
-0.418925599728802,3296.82688199941
-0.430533983631835,3296.83688199941
-0.441844753974856,3296.84688199941
-0.453119118506878,3296.85688199941
-0.464750641375726,3296.86688199941
-0.477039241228331,3296.87688199941
-0.489590770794409,3296.88688199941
-0.50146086224255,3296.89688199941
-0.510646029013604,3296.90688199941
-0.510991371634988,3296.91688199941
-0.488846817973314,3296.92688199941
-0.427484415805924,3296.93688199941
-0.315753144084835,3296.94688199941
-0.161710572671248,3296.95688199941
0.0109873308751514,3296.96688199941
0.174404471809868,3296.97688199941
0.308375481928791,3296.98688199941
0.40324992389842,3296.99688199941
0.46014821213779,3297.00688199941
0.486816127851087,3297.01688199941
0.493289696041215,3297.02688199941
0.488182235401067,3297.03688199941
0.477412935453097,3297.04688199941
0.463386804113871,3297.05688199941
0.448445547861508,3297.06688199941
0.433314424371426,3297.07688199941
0.417847197014937,3297.08688199941
0.402410674936313,3297.09688199941
0.38759740228161,3297.10688199941
0.373007570029452,3297.11688199941
0.360325381666504,3297.12688199941
0.349378832529705,3297.13688199941
0.341030906896073,3297.14688199941
0.335379472933899,3297.15688199941
0.331659293739821,3297.16688199941
0.329467626487217,3297.17688199941
0.3282106343798,3297.18688199941
0.327550024967335,3297.19688199941
0.32585569448049,3297.20688199941
0.321593996788123,3297.21688199941
0.313443904049964,3297.22688199941
0.301416005007003,3297.23688199941
0.286809706923434,3297.24688199941
0.271237399785411,3297.25688199941
0.256857876165334,3297.26688199941
0.244731565006741,3297.27688199941
0.234956826796506,3297.28688199941
0.229544281941259,3297.29688199941
0.22773692730478,3297.30688199941
0.229310132993599,3297.31688199941
0.233820713890588,3297.32688199941
0.239619254350748,3297.33688199941
0.245573475565709,3297.34688199941
0.25050950226893,3297.35688199941
0.253044827351239,3297.36688199941
0.253498764699239,3297.37688199941
0.251248027220727,3297.38688199941
0.245997652224785,3297.39688199941
0.238498132870452,3297.40688199941
0.228506763573189,3297.41688199941
0.216364573535944,3297.42688199941
0.203039779185493,3297.43688199941
0.188038534254384,3297.44688199941
0.172809401828423,3297.45688199941
0.15783217646807,3297.46688199941
0.14340521908535,3297.47688199941
0.129088750447126,3297.48688199941
0.114586034267608,3297.49688199941
0.100172162843905,3297.50688199941
0.0846705485505884,3297.51688199941
0.0689628484881749,3297.52688199941
0.052425018391911,3297.53688199941
0.0365089476945751,3297.54688199941
0.0204035036058209,3297.55688199941
0.00528969606307851,3297.56688199941
-0.00973865356089202,3297.57688199941
-0.024617129185259,3297.58688199941
-0.0396512125976916,3297.59688199941
-0.0550813299641901,3297.60688199941
-0.0703570916974672,3297.61688199941
-0.0845339293565544,3297.62688199941
-0.0980444645282388,3297.63688199941
-0.11069744530822,3297.64688199941
-0.123343587829453,3297.65688199941
-0.135575319637892,3297.66688199941
-0.147967236781535,3297.67688199941
-0.160455920243752,3297.68688199941
-0.172888467966159,3297.69688199941
-0.185255461841766,3297.70688199941
-0.197701061979568,3297.71688199941
-0.209880315404183,3297.72688199941
-0.221926160113654,3297.73688199941
-0.23427516154608,3297.74688199941
-0.246334943300363,3297.75688199941
-0.257940075422738,3297.76688199941
-0.26804994648776,3297.77688199941
-0.276991987689974,3297.78688199941
-0.284742031762039,3297.79688199941
-0.292187719934324,3297.80688199941
-0.300381957605574,3297.81688199941
-0.308709151461151,3297.82688199941
-0.317983496938537,3297.83688199941
-0.327785402193538,3297.84688199941
-0.338204348248956,3297.85688199941
-0.348921663985056,3297.86688199941
-0.359829060276233,3297.87688199941
-0.371413824687579,3297.88688199941
-0.38268336806913,3297.89688199941
-0.391991043348063,3297.90688199941
-0.392835746677738,3297.91688199941
-0.372979530673125,3297.92688199941
-0.31630620368793,3297.93688199941
-0.214325541494365,3297.94688199941
-0.0749838552755165,3297.95688199941
0.0793821202156419,3297.96688199941
0.225040355482956,3297.97688199941
0.343572732006609,3297.98688199941
0.426157636189898,3297.99688199941
0.475386208212971,3298.00688199941
0.497039234562192,3298.01688199941
0.499350068483221,3298.02688199941
0.490486033675014,3298.03688199941
0.475232330521117,3298.04688199941
0.457139014315022,3298.05688199941
0.437263812846017,3298.06688199941
0.416069170509944,3298.07688199941
0.395442279573083,3298.08688199941
0.375023757877399,3298.09688199941
0.355636884134715,3298.10688199941
0.337680177484528,3298.11688199941
0.321347125179284,3298.12688199941
0.307272921755537,3298.13688199941
0.295075056203773,3298.14688199941
0.284428759184984,3298.15688199941
0.274796138733702,3298.16688199941
0.265880113935096,3298.17688199941
0.257415757707462,3298.18688199941
0.248312084279333,3298.19688199941
0.238542174525511,3298.20688199941
0.22640442439967,3298.21688199941
0.211800161742784,3298.22688199941
0.195499358368215,3298.23688199941
0.1795335255324,3298.24688199941
0.16491197419092,3298.25688199941
0.154174033944837,3298.26688199941
0.147889605706559,3298.27688199941
0.145750247208184,3298.28688199941
0.148587849752699,3298.29688199941
0.154988875119655,3298.30688199941
0.16393479047778,3298.31688199941
0.173912481712307,3298.32688199941
0.182976903228887,3298.33688199941
0.190940395534292,3298.34688199941
0.19672548189462,3298.35688199941
0.199409147324149,3298.36688199941
0.198628002919277,3298.37688199941
0.193682460404127,3298.38688199941
0.184929763288707,3298.39688199941
0.174593073696655,3298.40688199941
0.16328673205549,3298.41688199941
0.151369539544405,3298.42688199941
0.138932126973323,3298.43688199941
0.125744521919258,3298.44688199941
0.112613406901585,3298.45688199941
0.0992397843887153,3298.46688199941
0.0860798140585642,3298.47688199941
0.0728572572165032,3298.48688199941
0.0592347521103367,3298.49688199941
0.0454731446951986,3298.50688199941
0.0317757708954399,3298.51688199941
0.0181316334858005,3298.52688199941
0.00473727354767356,3298.53688199941
