PPG,time
0.00563082561539587,2994.21979329299
0.0120386231737763,2994.22979329299
0.0176879487111408,2994.23979329299
0.0332416913860588,2994.24979329299
0.0567435753615657,2994.25979329299
0.090210065181139,2994.26979329299
0.133147486936948,2994.27979329299
0.185261569310959,2994.28979329299
0.243728270194504,2994.29979329299
0.306563791534971,2994.30979329299
0.370604406514089,2994.31979329299
0.432515171543884,2994.32979329299
0.489193412537993,2994.33979329299
0.538897442360482,2994.34979329299
0.580100102743943,2994.35979329299
0.612311753275363,2994.36979329299
0.636144166297064,2994.37979329299
0.652336017864569,2994.38979329299
0.662441850390236,2994.39979329299
0.667229147834379,2994.40979329299
0.669119302388717,2994.41979329299
0.668163760499129,2994.42979329299
0.665665865049239,2994.43979329299
0.662240268486728,2994.44979329299
0.658272063932671,2994.45979329299
0.653538908138523,2994.46979329299
0.647173033985988,2994.47979329299
0.639552297008959,2994.48979329299
0.630164853932103,2994.49979329299
0.619138702045327,2994.50979329299
0.606789022935174,2994.51979329299
0.593538152619769,2994.52979329299
0.580209829046534,2994.53979329299
0.566901625637478,2994.54979329299
0.553861791270008,2994.55979329299
0.541940755059553,2994.56979329299
0.531980016188705,2994.57979329299
0.524479433783573,2994.58979329299
0.519685668132382,2994.59979329299
0.517759971588853,2994.60979329299
0.518140297677688,2994.61979329299
0.520617242380822,2994.62979329299
0.524662333836385,2994.63979329299
0.529525121044912,2994.64979329299
0.534680490181415,2994.65979329299
0.539507154784321,2994.66979329299
0.543468755738641,2994.67979329299
0.546600851566749,2994.68979329299
0.548730150991904,2994.69979329299
0.54915861078961,2994.70979329299
0.548288504751586,2994.71979329299
0.545535999343731,2994.72979329299
0.541574803186925,2994.73979329299
0.535858451842022,2994.74979329299
0.528982343393033,2994.75979329299
0.521462307862673,2994.76979329299
0.51288089994671,2994.77979329299
0.504192948235763,2994.78979329299
0.494726789400526,2994.79979329299
0.484992626598645,2994.80979329299
0.475212151461581,2994.81979329299
0.465021192355145,2994.82979329299
0.455261747587413,2994.83979329299
0.445194508258572,2994.84979329299
0.434873230802568,2994.85979329299
0.424318167934273,2994.86979329299
0.413268044756251,2994.87979329299
0.401918754076047,2994.88979329299
0.390947807230218,2994.89979329299
0.380635036441914,2994.90979329299
0.370676171257635,2994.91979329299
0.360558456038039,2994.92979329299
0.350575655340936,2994.93979329299
0.341027592258174,2994.94979329299
0.331549124530596,2994.95979329299
0.322567416083817,2994.96979329299
0.313092701576613,2994.97979329299
0.303137062818877,2994.98979329299
0.292525256356004,2994.99979329299
0.280944370002693,2995.00979329299
0.26908910735245,2995.01979329299
0.257317367902625,2995.02979329299
0.245276903910271,2995.03979329299
0.233470243359754,2995.04979329299
0.221788587745317,2995.05979329299
0.210433618373984,2995.06979329299
0.200304933240886,2995.07979329299
0.191052904288227,2995.08979329299
0.182074349242692,2995.09979329299
0.173434486584616,2995.10979329299
0.163869304394425,2995.11979329299
0.154375311275895,2995.12979329299
0.144540568364327,2995.13979329299
0.135072813276562,2995.14979329299
0.125581389556612,2995.15979329299
0.116058922874743,2995.16979329299
0.106462074318754,2995.17979329299
0.0969131871819807,2995.18979329299
0.0879641837965285,2995.19979329299
0.0791408789828958,2995.20979329299
0.0705999509857622,2995.21979329299
0.0614492388389452,2995.22979329299
0.0520498533851745,2995.23979329299
0.0433386530112907,2995.24979329299
0.0346099400206328,2995.25979329299
0.0272053076065163,2995.26979329299
0.0222994680682682,2995.27979329299
0.0217549280191818,2995.28979329299
0.0279316890230949,2995.29979329299
0.0424796441575745,2995.30979329299
0.0671034843673209,2995.31979329299
0.101912274649352,2995.32979329299
0.147175509000929,2995.33979329299
0.20154418167636,2995.34979329299
0.262586124804464,2995.35979329299
0.328166161678139,2995.36979329299
0.394958561501486,2995.37979329299
0.460643397926138,2995.38979329299
0.52306284923081,2995.39979329299
0.578702687474884,2995.40979329299
0.62699410114229,2995.41979329299
0.667110837449998,2995.42979329299
0.69859281752632,2995.43979329299
0.722697119450425,2995.44979329299
0.739859155240151,2995.45979329299
0.75163898761681,2995.46979329299
0.758949321126253,2995.47979329299
0.763156055107784,2995.48979329299
0.765285015326153,2995.49979329299
0.765849031698698,2995.50979329299
0.765617114753453,2995.51979329299
0.764308208282012,2995.52979329299
0.762770456163297,2995.53979329299
0.76004380960126,2995.54979329299
0.757059390802416,2995.55979329299
0.752438253916338,2995.56979329299
0.744947704603449,2995.57979329299
0.734613018521075,2995.58979329299
0.721990428494424,2995.59979329299
0.707540447998513,2995.60979329299
0.692096298918453,2995.61979329299
0.67758446365991,2995.62979329299
0.663928633123365,2995.63979329299
0.651495495528944,2995.64979329299
0.641072677072391,2995.65979329299
0.632838527209825,2995.66979329299
0.627736377836757,2995.67979329299
0.624581959130324,2995.68979329299
0.62371737703929,2995.69979329299
0.624914078348988,2995.70979329299
0.626939628429999,2995.71979329299
0.628948939318965,2995.72979329299
0.630528705346295,2995.73979329299
0.631415248137812,2995.74979329299
0.631220830500742,2995.75979329299
0.63034356947177,2995.76979329299
0.628807219638404,2995.77979329299
0.626125673088717,2995.78979329299
0.622490384395655,2995.79979329299
0.617957919098156,2995.80979329299
0.612081173423861,2995.81979329299
0.604697981299576,2995.82979329299
0.596115574982427,2995.83979329299
0.58637032790944,2995.84979329299
0.576063130088302,2995.85979329299
0.565343798737516,2995.86979329299
0.554603307937964,2995.87979329299
0.543193423214642,2995.88979329299
0.532065581275779,2995.89979329299
0.520822648748348,2995.90979329299
0.509674762825189,2995.91979329299
0.498205967511935,2995.92979329299
0.486169715257391,2995.93979329299
0.474125423064221,2995.94979329299
0.462030008905917,2995.95979329299
0.449287908379803,2995.96979329299
0.436799325393949,2995.97979329299
0.424446723269996,2995.98979329299
0.411957523442682,2995.99979329299
0.399865875856225,2996.00979329299
0.38833911722078,2996.01979329299
0.376849761942407,2996.02979329299
0.365204114701467,2996.03979329299
0.353069227418318,2996.04979329299
0.339965355188684,2996.05979329299
0.326727776591955,2996.06979329299
0.313089225410521,2996.07979329299
0.299034062231522,2996.08979329299
0.285140230865962,2996.09979329299
0.271278042107225,2996.10979329299
0.257628969216206,2996.11979329299
0.244188000033506,2996.12979329299
0.231344962877823,2996.13979329299
0.219030922756668,2996.14979329299
0.207317466803569,2996.15979329299
0.196206563948172,2996.16979329299
0.1853178644856,2996.17979329299
0.174882593395391,2996.18979329299
0.1647941448997,2996.19979329299
0.154850758542959,2996.20979329299
0.145193014951436,2996.21979329299
0.135820923162275,2996.22979329299
0.126499742858725,2996.23979329299
0.116951877658586,2996.24979329299
0.107325346689839,2996.25979329299
0.0971419457918611,2996.26979329299
0.0871950403482196,2996.27979329299
0.0770071511770028,2996.28979329299
0.0663526898735008,2996.29979329299
0.0554592241674488,2996.30979329299
0.0450310436754473,2996.31979329299
0.035145530266826,2996.32979329299
0.0253962858768272,2996.33979329299
0.0161187196291925,2996.34979329299
0.00688099224544066,2996.35979329299
-0.00156584889105048,2996.36979329299
-0.00922148853428069,2996.37979329299
-0.0156997988909715,2996.38979329299
-0.0190802279612447,2996.39979329299
-0.0176830507640793,2996.40979329299
-0.00934599795880073,2996.41979329299
0.00781295829375043,2996.42979329299
0.0353025748057039,2996.43979329299
0.0731424995809889,2996.44979329299
0.121080287447608,2996.45979329299
0.177878379649834,2996.46979329299
0.240501074837889,2996.47979329299
0.306152590003572,2996.48979329299
0.372580520459188,2996.49979329299
0.435956085988059,2996.50979329299
0.494187032524046,2996.51979329299
0.545677952809139,2996.52979329299
0.589244199757105,2996.53979329299
0.624668959829084,2996.54979329299
0.652338784942958,2996.55979329299
0.672566262846137,2996.56979329299
0.685946472275719,2996.57979329299
0.694804809305516,2996.58979329299
0.700367801905534,2996.59979329299
0.703735485639494,2996.60979329299
0.704965141217295,2996.61979329299
0.704960957155189,2996.62979329299
0.704075551426917,2996.63979329299
0.70288006827035,2996.64979329299
0.701028100313192,2996.65979329299
0.698330968009659,2996.66979329299
0.694258062445024,2996.67979329299
0.689055927907387,2996.68979329299
0.681240085297797,2996.69979329299
0.671283474282714,2996.70979329299
0.659016060725558,2996.71979329299
0.644873089303658,2996.72979329299
0.629536030277751,2996.73979329299
0.614034145888192,2996.74979329299
0.599398915387755,2996.75979329299
0.586467350293719,2996.76979329299
0.576177293407334,2996.77979329299
0.56796103760294,2996.78979329299
0.562744320165144,2996.79979329299
0.559597988582327,2996.80979329299
0.558376763149064,2996.81979329299
0.558009659674793,2996.82979329299
0.558688522755739,2996.83979329299
0.559694158750498,2996.84979329299
0.560478216267859,2996.85979329299
0.560566616713869,2996.86979329299
0.560007745307866,2996.87979329299
0.558538616142593,2996.88979329299
0.555800699794119,2996.89979329299
0.551758427959352,2996.90979329299
0.546316345714047,2996.91979329299
0.539397567481811,2996.92979329299
0.531498718949224,2996.93979329299
0.522091361504019,2996.94979329299
0.512587337830314,2996.95979329299
0.502127462358946,2996.96979329299
0.491531153428136,2996.97979329299
0.480430826259702,2996.98979329299
0.468708533590028,2996.99979329299
0.456910059819519,2997.00979329299
0.445230394866861,2997.01979329299
0.433304411302463,2997.02979329299
0.420965571346161,2997.03979329299
0.40870708894917,2997.04979329299
0.39666186668602,2997.05979329299
0.383743350249183,2997.06979329299
0.370938080026497,2997.07979329299
0.357492929415408,2997.08979329299
0.344003406069308,2997.09979329299
0.329828205889183,2997.10979329299
0.315708417248679,2997.11979329299
0.301526784369071,2997.12979329299
0.287629001646098,2997.13979329299
0.273981242205274,2997.14979329299
0.26026227221061,2997.15979329299
0.246461336881003,2997.16979329299
0.232517398564619,2997.17979329299
0.218823434302286,2997.18979329299
0.204719304424017,2997.19979329299
0.190840417762271,2997.20979329299
0.177164505015924,2997.21979329299
0.164046507219633,2997.22979329299
0.151012054077931,2997.23979329299
0.138071247957104,2997.24979329299
0.124725664195751,2997.25979329299
0.11133367202367,2997.26979329299
0.0980599778019183,2997.27979329299
0.0856456264133307,2997.28979329299
0.074067694112092,2997.29979329299
0.0620843620398398,2997.30979329299
0.0500197890876553,2997.31979329299
0.0377290779903107,2997.32979329299
0.0255168677226452,2997.33979329299
0.0140497587425795,2997.34979329299
0.00364352480451849,2997.35979329299
-0.00627225405846648,2997.36979329299
-0.016262440954646,2997.37979329299
-0.0260211308927012,2997.38979329299
-0.0362138304298579,2997.39979329299
-0.04669235537473,2997.40979329299
-0.0570149880148465,2997.41979329299
-0.0669690780426533,2997.42979329299
-0.0768707144389798,2997.43979329299
-0.0867253741786952,2997.44979329299
-0.0967258028994737,2997.45979329299
-0.107110107830366,2997.46979329299
-0.117930151596103,2997.47979329299
-0.128924414974974,2997.48979329299
-0.139485148055963,2997.49979329299
-0.150051011413723,2997.50979329299
-0.160334524549464,2997.51979329299
-0.1703667672092,2997.52979329299
-0.180279824260811,2997.53979329299
-0.190339225638279,2997.54979329299
-0.200797624286004,2997.55979329299
-0.210524431636807,2997.56979329299
-0.220287174021661,2997.57979329299
-0.22967115041658,2997.58979329299
-0.238936110783132,2997.59979329299
-0.247566085659861,2997.60979329299
-0.255960802555333,2997.61979329299
-0.263575003084503,2997.62979329299
-0.269045347680541,2997.63979329299
-0.270301107469191,2997.64979329299
-0.265487368774355,2997.65979329299
-0.25207609983892,2997.66979329299
-0.22920898451125,2997.67979329299
-0.196764801942414,2997.68979329299
-0.15447672573123,2997.69979329299
-0.10428306987446,2997.70979329299
-0.0475454449540308,2997.71979329299
0.012821581607469,2997.72979329299
0.0739313250292728,2997.73979329299
0.133194709219556,2997.74979329299
0.189019198665529,2997.75979329299
0.238982552632536,2997.76979329299
0.281790663695301,2997.77979329299
0.316076553324911,2997.78979329299
0.342807909754945,2997.79979329299
0.362607056712944,2997.80979329299
0.375919692399751,2997.81979329299
0.383906332065282,2997.82979329299
0.387270578025422,2997.83979329299
0.387674021071611,2997.84979329299
0.38610205290671,2997.85979329299
0.383533713413552,2997.86979329299
0.380519471535028,2997.87979329299
0.37743622430983,2997.88979329299
0.373445234635301,2997.89979329299
0.368908315221204,2997.90979329299
0.363426144090747,2997.91979329299
0.356594795483456,2997.92979329299
0.347855316857232,2997.93979329299
0.337573963035033,2997.94979329299
0.325825272942209,2997.95979329299
0.312896894599905,2997.96979329299
0.299775209545582,2997.97979329299
0.28770220922736,2997.98979329299
0.276971504986878,2997.99979329299
0.26785471770688,2998.00979329299
0.260914005923519,2998.01979329299
0.25609383028475,2998.02979329299
0.253415421707657,2998.03979329299
0.252455334310645,2998.04979329299
0.253869372821663,2998.05979329299
0.256544330850951,2998.06979329299
0.260345882156858,2998.07979329299
0.264819417116686,2998.08979329299
0.269432300333236,2998.09979329299
0.272635378356775,2998.10979329299
0.274695164984511,2998.11979329299
0.275320535155965,2998.12979329299
0.275066817327811,2998.13979329299
0.273881930215214,2998.14979329299
0.2713942244255,2998.15979329299
0.268612737562307,2998.16979329299
0.264395854442241,2998.17979329299
0.258648518764635,2998.18979329299
0.250929506098266,2998.19979329299
0.241639201779293,2998.20979329299
0.231318899177246,2998.21979329299
0.221481034018107,2998.22979329299
0.211116738224825,2998.23979329299
0.200844509968153,2998.24979329299
0.190818210970006,2998.25979329299
0.180404526862438,2998.26979329299
0.170171600325841,2998.27979329299
0.160131719835993,2998.28979329299
0.149671053995897,2998.29979329299
0.139652205355172,2998.30979329299
0.129402416233411,2998.31979329299
0.118991745384166,2998.32979329299
0.108563178477999,2998.33979329299
0.0988042341282564,2998.34979329299
0.0888624500213434,2998.35979329299
0.0796079585559574,2998.36979329299
0.070591670394098,2998.37979329299
0.0617371291256609,2998.38979329299
0.0531163235249887,2998.39979329299
0.0435248349758907,2998.40979329299
0.0337301495509028,2998.41979329299
0.0239319435342666,2998.42979329299
0.0131129464490706,2998.43979329299
0.00266629482851684,2998.44979329299
-0.00710752592099064,2998.45979329299
-0.0169253602086405,2998.46979329299
-0.0260939557926346,2998.47979329299
-0.0348843889262069,2998.48979329299
-0.0433317882617947,2998.49979329299
-0.0520327569644315,2998.50979329299
-0.0615692584599049,2998.51979329299
-0.0709323479241084,2998.52979329299
-0.0802888999499596,2998.53979329299
-0.0894293465301657,2998.54979329299
-0.0978503493896919,2998.55979329299
-0.105999366294882,2998.56979329299
-0.113530666802031,2998.57979329299
-0.121615979599546,2998.58979329299
-0.129870713811724,2998.59979329299
-0.138464391036827,2998.60979329299
-0.147179417171448,2998.61979329299
-0.155439120596404,2998.62979329299
-0.163922803970965,2998.63979329299
-0.172169246318365,2998.64979329299
-0.180379540856704,2998.65979329299
-0.188790135869551,2998.66979329299
-0.196583012592806,2998.67979329299
-0.204080870003424,2998.68979329299
-0.21084314677772,2998.69979329299
-0.217836351806695,2998.70979329299
-0.22436171993065,2998.71979329299
-0.231140854900292,2998.72979329299
-0.238246838749255,2998.73979329299
-0.245328666539299,2998.74979329299
-0.252779492287616,2998.75979329299
-0.258902955323804,2998.76979329299
-0.262628579152711,2998.77979329299
-0.26121793468405,2998.78979329299
-0.253137058868296,2998.79979329299
-0.237117528747509,2998.80979329299
-0.211713405342317,2998.81979329299
-0.176908442174695,2998.82979329299
-0.133119389800633,2998.83979329299
-0.0820540636622184,2998.84979329299
-0.0254387608729692,2998.85979329299
0.034494859008589,2998.86979329299
0.0945206499291459,2998.87979329299
0.151656569829956,2998.88979329299
0.203767252827401,2998.89979329299
0.248650200475392,2998.90979329299
0.285665425351364,2998.91979329299
0.315654739949568,2998.92979329299
0.33861157641655,2998.93979329299
0.354716518867326,2998.94979329299
0.365608838581991,2998.95979329299
0.371696392726472,2998.96979329299
0.374312764639841,2998.97979329299
0.374669695817919,2998.98979329299
0.373769294230368,2998.99979329299
0.37146381035845,2999.00979329299
0.368445901679972,2999.01979329299
0.365570830004405,2999.02979329299
0.362194913651896,2999.03979329299
0.358110973314872,2999.04979329299
0.351604117645017,2999.05979329299
0.343295633818335,2999.06979329299
0.332754358551658,2999.07979329299
0.320840298038321,2999.08979329299
0.307828431538684,2999.09979329299
0.294368051203511,2999.10979329299
0.281054141140801,2999.11979329299
0.268718942422593,2999.12979329299
0.258690272242353,2999.13979329299
0.251296267278539,2999.14979329299
0.247474470654675,2999.15979329299
0.246881594007804,2999.16979329299
0.248649818616708,2999.17979329299
0.251903445690708,2999.18979329299
0.255876124425033,2999.19979329299
0.260175576300878,2999.20979329299
0.264330604471329,2999.21979329299
0.268634473455744,2999.22979329299
0.272971382630076,2999.23979329299
0.276136879117103,2999.24979329299
0.278286117994832,2999.25979329299
0.279158698814331,2999.26979329299
0.278724778070259,2999.27979329299
0.277018510630368,2999.28979329299
0.273887473188474,2999.29979329299
0.26909336732956,2999.30979329299
0.263031603112369,2999.31979329299
0.255669537776033,2999.32979329299
0.24742187824554,2999.33979329299
0.238930805608256,2999.34979329299
0.230001203057049,2999.35979329299
0.220632054715001,2999.36979329299
0.211029733151614,2999.37979329299
0.20145110289264,2999.38979329299
0.191498423564952,2999.39979329299
0.181528314538531,2999.40979329299
0.171565660944861,2999.41979329299
0.161675439034235,2999.42979329299
0.151811354218675,2999.43979329299
0.142159305759838,2999.44979329299
0.133032402147513,2999.45979329299
0.123796324410995,2999.46979329299
0.114956832058737,2999.47979329299
0.106382192625369,2999.48979329299
0.097126672551261,2999.49979329299
0.0873459635007843,2999.50979329299
0.0774551660087287,2999.51979329299
0.0667027901776351,2999.52979329299
0.0558327326775365,2999.53979329299
0.0446592778302426,2999.54979329299
0.033748694950878,2999.55979329299
0.0229683735254608,2999.56979329299
0.0120966474798464,2999.57979329299
0.00174960607411551,2999.58979329299
-0.00797089326508173,2999.59979329299
-0.0176534045319001,2999.60979329299
-0.0269538635320589,2999.61979329299
-0.0359824277885342,2999.62979329299
-0.0448656265410401,2999.63979329299
-0.0537798063063804,2999.64979329299
-0.0629990135736625,2999.65979329299
-0.0723907105433401,2999.66979329299
-0.0819798905596929,2999.67979329299
-0.0920103929626802,2999.68979329299
-0.102076438728705,2999.69979329299
-0.112003975365803,2999.70979329299
-0.121549882435654,2999.71979329299
-0.130887485940998,2999.72979329299
-0.139460006761853,2999.73979329299
-0.147682810429545,2999.74979329299
-0.156008064492299,2999.75979329299
-0.164354168877346,2999.76979329299
-0.172708299633137,2999.77979329299
-0.181141957436001,2999.78979329299
-0.18922923855792,2999.79979329299
-0.197473412528684,2999.80979329299
-0.206358404242471,2999.81979329299
-0.215397453867544,2999.82979329299
-0.224734581794931,2999.83979329299
-0.233913900222974,2999.84979329299
-0.242387562889028,2999.85979329299
-0.250363432398884,2999.86979329299
-0.257990628393189,2999.87979329299
-0.265159308928618,2999.88979329299
-0.272239134063243,2999.89979329299
-0.279430329518986,2999.90979329299
-0.286603661788515,2999.91979329299
-0.293239065231497,2999.92979329299
-0.297033899667268,2999.93979329299
-0.296720738032868,2999.94979329299
-0.290374810712604,2999.95979329299
-0.276038571950335,2999.96979329299
-0.25257252608982,2999.97979329299
-0.219985341148944,2999.98979329299
-0.177541960185505,2999.99979329299
-0.125927995948837,3000.00979329299
-0.067372878568649,3000.01979329299
-0.00358709946636237,3000.02979329299
0.0624558544828034,3000.03979329299
0.12801547364595,3000.04979329299
0.191282503274174,3000.05979329299
0.249277840061086,3000.06979329299
0.300407551795775,3000.07979329299
0.3437759575873,3000.08979329299
0.37855821605508,3000.09979329299
0.40642028502799,3000.10979329299
0.42717672993832,3000.11979329299
0.442289301399981,3000.12979329299
0.45253888482721,3000.13979329299
0.459213558742137,3000.14979329299
0.463307861739034,3000.15979329299
0.465608390219843,3000.16979329299
0.467223336851454,3000.17979329299
0.46855042730023,3000.18979329299
0.46893685885409,3000.19979329299
0.468561201487902,3000.20979329299
0.467723920690576,3000.21979329299
0.466165551161565,3000.22979329299
0.463264528716285,3000.23979329299
0.45758134763896,3000.24979329299
0.449388755713164,3000.25979329299
0.438792364523882,3000.26979329299
0.426730733176827,3000.27979329299
0.414935772955192,3000.28979329299
0.403785438323742,3000.29979329299
0.393733665712374,3000.30979329299
0.38572923207257,3000.31979329299
0.380011454453651,3000.32979329299
0.375684887660499,3000.33979329299
0.373753519360826,3000.34979329299
0.373517272673665,3000.35979329299
0.374540612145475,3000.36979329299
0.376640268545719,3000.37979329299
0.380068762081343,3000.38979329299
0.384196481811469,3000.39979329299
0.388567537088924,3000.40979329299
0.392967932737014,3000.41979329299
0.39659064318851,3000.42979329299
0.399603129217923,3000.43979329299
0.401947413280829,3000.44979329299
0.403111793380489,3000.45979329299
0.403109809435632,3000.46979329299
0.401257055723099,3000.47979329299
0.397832923005645,3000.48979329299
0.393139032151368,3000.49979329299
0.386784594326973,3000.50979329299
0.380042454716384,3000.51979329299
0.372493470188797,3000.52979329299
0.364106509454556,3000.53979329299
0.354972156280064,3000.54979329299
0.345621555873925,3000.55979329299
0.336079450658399,3000.56979329299
0.326666633618516,3000.57979329299
0.317528206473199,3000.58979329299
0.307785302692538,3000.59979329299
0.297895233981618,3000.60979329299
0.287747590447904,3000.61979329299
0.27715350570995,3000.62979329299
0.266955174265312,3000.63979329299
0.257453305698146,3000.64979329299
0.24784269949079,3000.65979329299
0.238042241253116,3000.66979329299
0.227814996697079,3000.67979329299
0.216735643304798,3000.68979329299
0.205140945215696,3000.69979329299
0.193661507614846,3000.70979329299
0.181875645028271,3000.71979329299
0.170812027258628,3000.72979329299
0.159605778096863,3000.73979329299
0.149143746873487,3000.74979329299
0.138640508917039,3000.75979329299
0.128025500033389,3000.76979329299
0.117893920549403,3000.77979329299
0.107643798510005,3000.78979329299
0.0971331743114961,3000.79979329299
0.0869653651567393,3000.80979329299
0.0764680375317792,3000.81979329299
0.0658923175603212,3000.82979329299
0.0556587401439783,3000.83979329299
0.0454159011175203,3000.84979329299
0.0349150230777658,3000.85979329299
0.0245030675954637,3000.86979329299
0.0143332850995966,3000.87979329299
0.0042320678755894,3000.88979329299
-0.00495742127075354,3000.89979329299
-0.0135922274590719,3000.90979329299
-0.0218135742000148,3000.91979329299
-0.0296381195929088,3000.92979329299
-0.0373992928249315,3000.93979329299
-0.0452483221803262,3000.94979329299
-0.0532213953925748,3000.95979329299
-0.0612365011566282,3000.96979329299
-0.0693775465374225,3000.97979329299
-0.0774102948145638,3000.98979329299
-0.0854012032790736,3000.99979329299
-0.0932080673767051,3001.00979329299
-0.101131923824815,3001.01979329299
-0.108600783056555,3001.02979329299
-0.116297447634511,3001.03979329299
-0.123664402043863,3001.04979329299
-0.131014518630808,3001.05979329299
-0.138407770846432,3001.06979329299
-0.145998646680465,3001.07979329299
-0.153660342382192,3001.08979329299
-0.161179552723769,3001.09979329299
-0.167219767914193,3001.10979329299
-0.171895449466424,3001.11979329299
-0.173076920342027,3001.12979329299
-0.170072966637667,3001.13979329299
-0.16061090420964,3001.14979329299
-0.142986004346143,3001.15979329299
-0.11608975846437,3001.16979329299
-0.0785373423412979,3001.17979329299
-0.0305278560196372,3001.18979329299
0.027255342110096,3001.19979329299
0.0931336386569338,3001.20979329299
0.163965038565929,3001.21979329299
0.237301053934333,3001.22979329299
0.309449557819087,3001.23979329299
0.377860020361189,3001.24979329299
0.439779050311206,3001.25979329299
0.493023905365089,3001.26979329299
0.538159187548349,3001.27979329299
0.574261846248208,3001.28979329299
0.602019440392884,3001.29979329299
0.623555703750823,3001.30979329299
0.639259188893317,3001.31979329299
0.650323831423755,3001.32979329299
0.657541774125508,3001.33979329299
0.661994573274887,3001.34979329299
0.664287657458338,3001.35979329299
0.66571233226945,3001.36979329299
0.666419396245497,3001.37979329299
0.666931400398311,3001.38979329299
0.666500756396396,3001.39979329299
0.664589500362197,3001.40979329299
0.66120669532542,3001.41979329299
0.655409954485139,3001.42979329299
0.646975690652212,3001.43979329299
0.636289957182955,3001.44979329299
0.624147506918165,3001.45979329299
0.611120171383939,3001.46979329299
0.597834489696736,3001.47979329299
0.585375810159335,3001.48979329299
0.57392550504311,3001.49979329299
0.563752266646413,3001.50979329299
0.555319074077732,3001.51979329299
0.549502821128401,3001.52979329299
0.546037428440058,3001.53979329299
0.545346270218639,3001.54979329299
0.546671608671007,3001.55979329299
0.549403877508845,3001.56979329299
0.553095721485131,3001.57979329299
0.556605886046443,3001.58979329299
0.560374196018265,3001.59979329299
0.563951284290797,3001.60979329299
0.566751264260451,3001.61979329299
0.568347980720177,3001.62979329299
0.567967160843793,3001.63979329299
0.565466523181394,3001.64979329299
0.561700551403931,3001.65979329299
0.556857297338128,3001.66979329299
0.551315951657799,3001.67979329299
0.544480410144633,3001.68979329299
0.536328225942658,3001.69979329299
0.526921014675798,3001.70979329299
0.516312603947801,3001.71979329299
0.505078841242909,3001.72979329299
0.493504121649818,3001.73979329299
0.48166257120477,3001.74979329299
0.470079304426121,3001.75979329299
0.458201680818284,3001.76979329299
0.446535241854425,3001.77979329299
0.434485055205888,3001.78979329299
0.422313086857858,3001.79979329299
0.409984456877723,3001.80979329299
0.397629849173467,3001.81979329299
0.385209071967362,3001.82979329299
0.372909562951286,3001.83979329299
0.360969835824064,3001.84979329299
0.348956154267686,3001.85979329299
0.336813792763592,3001.86979329299
0.324654896346473,3001.87979329299
0.312563740118291,3001.88979329299
0.300958026983499,3001.89979329299
0.289683635306727,3001.90979329299
0.279147971081634,3001.91979329299
0.268693069327422,3001.92979329299
0.25863442913543,3001.93979329299
0.248641452921464,3001.94979329299
0.237687580322102,3001.95979329299
0.226626102318593,3001.96979329299
0.215060800787958,3001.97979329299
0.203613900936556,3001.98979329299
0.191727284451919,3001.99979329299
0.18015860597639,3002.00979329299
0.168410062206809,3002.01979329299
0.156717009624134,3002.02979329299
0.14519336162765,3002.03979329299
0.133759051342167,3002.04979329299
0.122579052792723,3002.05979329299
0.112328860480212,3002.06979329299
0.102695309131702,3002.07979329299
0.0932236959454193,3002.08979329299
0.0837868216080994,3002.09979329299
0.0745307035846716,3002.10979329299
0.0651286066000433,3002.11979329299
0.0556917415455871,3002.12979329299
0.0464062990078218,3002.13979329299
0.0372000714975703,3002.14979329299
0.0276164766972852,3002.15979329299
0.0183455527371211,3002.16979329299
0.00965363275416338,3002.17979329299
0.00108999003963511,3002.18979329299
-0.00702141228795239,3002.19979329299
-0.0154268186674257,3002.20979329299
-0.0233792683600425,3002.21979329299
-0.0313054398608503,3002.22979329299
-0.0399042825563937,3002.23979329299
-0.0485926037867405,3002.24979329299
-0.0577251398302209,3002.25979329299
-0.0663947128362735,3002.26979329299
-0.074831919665259,3002.27979329299
-0.0828777312413216,3002.28979329299
-0.0891359256622309,3002.29979329299
-0.0918751532957609,3002.30979329299
-0.0886422682039761,3002.31979329299
-0.0766497503571587,3002.32979329299
-0.054645546365329,3002.33979329299
-0.021674998733841,3002.34979329299
0.0224296261915671,3002.35979329299
0.0768880244441779,3002.36979329299
0.140396122309011,3002.37979329299
0.210902804138838,3002.38979329299
0.284343462405214,3002.39979329299
0.35772028751011,3002.40979329299
0.42795517032951,3002.41979329299
0.492515842500895,3002.42979329299
0.548347525065134,3002.43979329299
0.59464523426769,3002.44979329299
0.631351465243005,3002.45979329299
0.658540290813485,3002.46979329299
0.677879307929849,3002.47979329299
0.690992042864498,3002.48979329299
0.699202423704269,3002.49979329299
0.703392433277241,3002.50979329299
0.704752547170133,3002.51979329299
0.70382852415137,3002.52979329299
0.701380040002947,3002.53979329299
0.697328744899544,3002.54979329299
0.692088550543837,3002.55979329299
0.685153070028411,3002.56979329299
0.676443964362012,3002.57979329299
0.665849165678199,3002.58979329299
0.6531793600664,3002.59979329299
0.638978603544996,3002.60979329299
0.623420290823485,3002.61979329299
0.606790515792307,3002.62979329299
0.590301710485032,3002.63979329299
0.574520641033325,3002.64979329299
0.560552269783675,3002.65979329299
0.549120179652174,3002.66979329299
0.541207119342552,3002.67979329299
0.536207115300105,3002.68979329299
0.534280634828098,3002.69979329299
0.536075750978527,3002.70979329299
0.539651926596403,3002.71979329299
0.545215337711274,3002.72979329299
0.552453254441625,3002.73979329299
0.560054804824229,3002.74979329299
0.567526590920782,3002.75979329299
0.574276241841894,3002.76979329299
0.579541094719092,3002.77979329299
0.583212201896576,3002.78979329299
0.585489884375844,3002.79979329299
0.585366544894542,3002.80979329299
0.583468287750943,3002.81979329299
0.579570141374166,3002.82979329299
0.573814656647317,3002.83979329299
0.566499082658169,3002.84979329299
0.55785057316756,3002.85979329299
0.548743566086332,3002.86979329299
0.538023017155905,3002.87979329299
0.527491724660668,3002.88979329299
0.516620086854889,3002.89979329299
0.505455273520077,3002.90979329299
0.494759651747159,3002.91979329299
0.483685463216154,3002.92979329299
0.472806344233577,3002.93979329299
0.461769465233054,3002.94979329299
0.450896214925712,3002.95979329299
0.439833972693169,3002.96979329299
0.429089306622676,3002.97979329299
0.417439298556106,3002.98979329299
0.405683917368339,3002.99979329299
0.393888783533802,3003.00979329299
0.38175815906942,3003.01979329299
0.369805042351991,3003.02979329299
0.357629654102984,3003.03979329299
0.345510300745075,3003.04979329299
0.333354480752196,3003.05979329299
0.321627238442935,3003.06979329299
0.309696647299779,3003.07979329299
0.298386357680055,3003.08979329299
0.287627408886883,3003.09979329299
0.277704765646344,3003.10979329299
0.268279363686519,3003.11979329299
0.259689529764922,3003.12979329299
0.250425037564212,3003.13979329299
0.239911538109007,3003.14979329299
0.22915415999497,3003.15979329299
0.217751875665352,3003.16979329299
0.206759920834229,3003.17979329299
0.196165819500494,3003.18979329299
0.18533300348869,3003.19979329299
0.175196552741015,3003.20979329299
0.164643409484961,3003.21979329299
0.154422986739041,3003.22979329299
0.144508316314495,3003.23979329299
0.134415272194361,3003.24979329299
0.124521788818866,3003.25979329299
0.115658232366469,3003.26979329299
0.106943112790698,3003.27979329299
0.0987253204953059,3003.28979329299
0.0905706376627608,3003.29979329299
0.0828230545182048,3003.30979329299
0.0753794724655781,3003.31979329299
0.0679874904595102,3003.32979329299
0.0621227614722809,3003.33979329299
0.0588605568320147,3003.34979329299
0.0608190102430555,3003.35979329299
0.0710539024936988,3003.36979329299
0.0919906103219651,3003.37979329299
0.124897851924432,3003.38979329299
0.169976041180784,3003.39979329299
0.226624319797204,3003.40979329299
0.292833711771507,3003.41979329299
0.366205066071541,3003.42979329299
0.443395677978279,3003.43979329299
0.520853489898521,3003.44979329299
0.595408964938971,3003.45979329299
0.664953478421797,3003.46979329299
0.727120857018456,3003.47979329299
0.780501883783543,3003.48979329299
0.823791899676007,3003.49979329299
0.857395868081435,3003.50979329299
0.88211097756268,3003.51979329299
0.899140252959924,3003.52979329299
0.910113347328789,3003.53979329299
0.915961365427091,3003.54979329299
0.918507774102033,3003.55979329299
0.919064063442771,3003.56979329299
0.918166577949402,3003.57979329299
0.916196202122021,3003.58979329299
0.913998692629499,3003.59979329299
0.911017725216982,3003.60979329299
0.906458058119844,3003.61979329299
0.900302780335224,3003.62979329299
0.891828183858691,3003.63979329299
0.880702832802426,3003.64979329299
0.866766539648597,3003.65979329299
0.84958971601366,3003.66979329299
0.830669379307015,3003.67979329299
0.81089351421526,3003.68979329299
0.792226712697775,3003.69979329299
0.775357087328447,3003.70979329299
0.761243072213089,3003.71979329299
0.750225669320024,3003.72979329299
0.741910449289661,3003.73979329299
0.737060277407225,3003.74979329299
0.734834432023788,3003.75979329299
0.735002297774747,3003.76979329299
0.737324281541719,3003.77979329299
0.740248785893112,3003.78979329299
0.743677598192803,3003.79979329299
0.747813773203566,3003.80979329299
0.751138606766125,3003.81979329299
0.754062670474066,3003.82979329299
0.755771351187406,3003.83979329299
0.755801947682775,3003.84979329299
0.753731150668972,3003.85979329299
0.749095712109519,3003.86979329299
0.742416901146784,3003.87979329299
0.733714264722784,3003.88979329299
0.724331258986053,3003.89979329299
0.713727083581835,3003.90979329299
0.702532394379128,3003.91979329299
0.690961404677686,3003.92979329299
0.678407446861206,3003.93979329299
0.6657537086297,3003.94979329299
0.652309160630581,3003.95979329299
0.638749299418305,3003.96979329299
0.624792691868353,3003.97979329299
0.610518156207988,3003.98979329299
0.596291332201165,3003.99979329299
0.582311570139901,3004.00979329299
0.568709269085005,3004.01979329299
0.555050075924837,3004.02979329299
0.540564229652457,3004.03979329299
0.525883839257455,3004.04979329299
0.511324471017018,3004.05979329299
0.497024441892537,3004.06979329299
0.482781343609529,3004.07979329299
0.468242834798853,3004.08979329299
0.453595660714815,3004.09979329299
0.438929837647415,3004.10979329299
0.424551967725819,3004.11979329299
0.410595022873019,3004.12979329299
0.397057167186424,3004.13979329299
0.383937014186616,3004.14979329299
0.370891019406413,3004.15979329299
0.358099966438628,3004.16979329299
0.345005951860526,3004.17979329299
0.331996447598867,3004.18979329299
0.318589141659573,3004.19979329299
0.305533497333332,3004.20979329299
0.292895048488691,3004.21979329299
0.280568633763088,3004.22979329299
0.26903644412567,3004.23979329299
0.258066046240553,3004.24979329299
0.247573755523262,3004.25979329299
0.236862854630651,3004.26979329299
0.22643972396179,3004.27979329299
0.216416992992997,3004.28979329299
0.206491553396055,3004.29979329299
0.196345708087426,3004.30979329299
0.186220684419566,3004.31979329299
0.176082510277084,3004.32979329299
0.165918630241358,3004.33979329299
0.156425457208334,3004.34979329299
0.147200853629478,3004.35979329299
0.138383714145979,3004.36979329299
0.129489050542666,3004.37979329299
0.120197174020785,3004.38979329299
0.11026298378353,3004.39979329299
0.100141972477677,3004.40979329299
0.0903640373662021,3004.41979329299
0.0807087315254913,3004.42979329299
0.0713986474569757,3004.43979329299
0.0626448356388132,3004.44979329299
0.0546986600178265,3004.45979329299
0.0473445594644902,3004.46979329299
0.0401069835987956,3004.47979329299
0.0332530978641398,3004.48979329299
0.0283052401143793,3004.49979329299
0.0273723135822558,3004.50979329299
0.0322453482874956,3004.51979329299
0.0460082541928703,3004.52979329299
0.0702929368858211,3004.53979329299
0.107493753727985,3004.54979329299
0.157469538226649,3004.55979329299
0.219855437300667,3004.56979329299
0.293120708912011,3004.57979329299
0.373906225912174,3004.58979329299
0.458663323121028,3004.59979329299
0.544110568826057,3004.60979329299
0.625314922952553,3004.61979329299
0.699755724750726,3004.62979329299
0.765200324599427,3004.63979329299
0.819921930236609,3004.64979329299
0.863561921687117,3004.65979329299
0.897451988106487,3004.66979329299
0.922606351974742,3004.67979329299
0.940147129455046,3004.68979329299
0.951459983564949,3004.69979329299
0.958283922365054,3004.70979329299
0.961352401263176,3004.71979329299
0.962196622301011,3004.72979329299
0.961139252885719,3004.73979329299
0.959616542272052,3004.74979329299
0.957249133153083,3004.75979329299
0.954523406706678,3004.76979329299
0.95036487292251,3004.77979329299
0.944716791239485,3004.78979329299
0.937483945151101,3004.79979329299
0.927306896349114,3004.80979329299
0.914176614676548,3004.81979329299
0.897277005657599,3004.82979329299
0.877892736121475,3004.83979329299
0.857264357452397,3004.84979329299
0.837261699328912,3004.85979329299
0.819081017516584,3004.86979329299
0.803583645445351,3004.87979329299
0.791328129635463,3004.88979329299
0.781675870240987,3004.89979329299
0.774671869204936,3004.90979329299
0.770539176041253,3004.91979329299
0.768290320004967,3004.92979329299
0.767851651911682,3004.93979329299
0.768962660006959,3004.94979329299
0.771169262141375,3004.95979329299
0.773453392547553,3004.96979329299
0.776454100728293,3004.97979329299
0.778584341744794,3004.98979329299
0.779436675679665,3004.99979329299
0.779031587302587,3005.00979329299
0.776887746309568,3005.01979329299
0.772635625235337,3005.02979329299
0.767156291266349,3005.03979329299
0.760005307971395,3005.04979329299
0.750599992271723,3005.05979329299
0.73982893696416,3005.06979329299
0.72706660834157,3005.07979329299
0.713600060474002,3005.08979329299
0.698624199138478,3005.09979329299
0.68403325749831,3005.10979329299
0.668640057838755,3005.11979329299
0.653086893356479,3005.12979329299
0.6370284557769,3005.13979329299
0.620228344277068,3005.14979329299
0.603515894694294,3005.15979329299
0.5866278038277,3005.16979329299
0.569419941534796,3005.17979329299
0.552246581114757,3005.18979329299
0.535843309459319,3005.19979329299
0.519740574843746,3005.20979329299
0.504324867158841,3005.21979329299
0.48893991491826,3005.22979329299
0.473147591423225,3005.23979329299
0.457896049959862,3005.24979329299
0.442496599115182,3005.25979329299
0.427756141000747,3005.26979329299
0.413244413716022,3005.27979329299
0.399046151997669,3005.28979329299
0.385505600779087,3005.29979329299
0.371332050445661,3005.30979329299
0.357582557000759,3005.31979329299
0.343177177884509,3005.32979329299
0.328559612042543,3005.33979329299
0.314114607358859,3005.34979329299
0.30065579176568,3005.35979329299
0.28755646030226,3005.36979329299
0.275311196498229,3005.37979329299
0.263366763435757,3005.38979329299
0.250908085650237,3005.39979329299
0.238812687997713,3005.40979329299
0.226400361000772,3005.41979329299
0.213969987275605,3005.42979329299
0.202366533857803,3005.43979329299
0.191033037101754,3005.44979329299
0.179658349204175,3005.45979329299
0.16846241844571,3005.46979329299
0.156725331979831,3005.47979329299
0.145270785937942,3005.48979329299
0.133292945684739,3005.49979329299
0.121248059730021,3005.50979329299
0.109831057120279,3005.51979329299
0.0987255784005158,3005.52979329299
0.0876905224789744,3005.53979329299
0.0768851575219323,3005.54979329299
0.0659911532957623,3005.55979329299
0.0546519440076431,3005.56979329299
0.0438858348998376,3005.57979329299
0.0335141247054044,3005.58979329299
0.0238629224224052,3005.59979329299
0.0150172658443154,3005.60979329299
0.00590543124538979,3005.61979329299
-0.00249475140658054,3005.62979329299
-0.00989407586990572,3005.63979329299
-0.0158154909613371,3005.64979329299
-0.0177438178750041,3005.65979329299
-0.0130735030023179,3005.66979329299
0.000359694882756084,3005.67979329299
0.0260607335211554,3005.68979329299
0.0642661352299034,3005.69979329299
0.114816564157118,3005.70979329299
0.177496923351135,3005.71979329299
0.249165600181054,3005.72979329299
0.32714293471943,3005.73979329299
0.408154495963718,3005.74979329299
0.488861016583945,3005.75979329299
0.565109562561895,3005.76979329299
0.634598102785433,3005.77979329299
0.694781251871713,3005.78979329299
0.744177131668064,3005.79979329299
0.782999878763475,3005.80979329299
0.811637756165691,3005.81979329299
0.831418797215567,3005.82979329299
0.844766388932852,3005.83979329299
0.852226352427413,3005.84979329299
0.856424024799919,3005.85979329299
0.858000132034256,3005.86979329299
0.858121076706774,3005.87979329299
0.856888987136218,3005.88979329299
0.854704462189322,3005.89979329299
0.851393990274791,3005.90979329299
0.846819553565683,3005.91979329299
0.841117367634658,3005.92979329299
0.833054791417995,3005.93979329299
0.822150420593004,3005.94979329299
0.807793722183808,3005.95979329299
0.790130794885448,3005.96979329299
0.770001229865641,3005.97979329299
0.748689298677428,3005.98979329299
0.727321641956329,3005.99979329299
0.707440492612998,3006.00979329299
0.689101577483432,3006.01979329299
0.673661849138216,3006.02979329299
0.660974459700139,3006.03979329299
0.651726901381604,3006.04979329299
0.645494925732606,3006.05979329299
0.642389488708877,3006.06979329299
0.641918243506964,3006.07979329299
0.6438191716629,3006.08979329299
0.647371749416181,3006.09979329299
0.651332216266281,3006.10979329299
0.655321896802622,3006.11979329299
0.659023001950846,3006.12979329299
0.661133748535293,3006.13979329299
0.662177968634145,3006.14979329299
0.661288851340942,3006.15979329299
0.658431999848856,3006.16979329299
0.652776203639853,3006.17979329299
0.644496522885603,3006.18979329299
0.634701467178029,3006.19979329299
0.62336484765265,3006.20979329299
0.610844085956536,3006.21979329299
0.597271398069946,3006.22979329299
0.58301013608307,3006.23979329299
0.56768029268271,3006.24979329299
0.551380777894142,3006.25979329299
0.534476877065038,3006.26979329299
0.517397530215937,3006.27979329299
0.499555814342727,3006.28979329299
0.481490265137241,3006.29979329299
0.462637862669879,3006.30979329299
0.443975283996532,3006.31979329299
0.425706302344687,3006.32979329299
0.408828254191331,3006.33979329299
0.392935536819708,3006.34979329299
0.377334782154137,3006.35979329299
0.3622709801709,3006.36979329299
0.348168154915413,3006.37979329299
0.33523704321035,3006.38979329299
0.321661692164657,3006.39979329299
0.308101891088342,3006.40979329299
0.294337749714937,3006.41979329299
0.280083169032715,3006.42979329299
0.265269467652494,3006.43979329299
0.251197950957568,3006.44979329299
0.237236780477476,3006.45979329299
0.223604303803404,3006.46979329299
0.210953576112469,3006.47979329299
0.198257415120309,3006.48979329299
0.186207503864046,3006.49979329299
0.174415208095887,3006.50979329299
0.163194736690631,3006.51979329299
0.151936442522712,3006.52979329299
0.141326391497735,3006.53979329299
0.130709757066665,3006.54979329299
0.119902531452059,3006.55979329299
0.109449715500056,3006.56979329299
0.0988940305804238,3006.57979329299
0.0884811142292967,3006.58979329299
0.0786115751280929,3006.59979329299
0.0685071003735873,3006.60979329299
0.0581765787927677,3006.61979329299
0.0478598173922013,3006.62979329299
0.0379262813635493,3006.63979329299
0.0280029773748742,3006.64979329299
0.0180922996204958,3006.65979329299
0.00843480426493007,3006.66979329299
-0.00146398163484443,3006.67979329299
-0.0104771113394673,3006.68979329299
-0.0180858461462998,3006.69979329299
-0.0233860323008231,3006.70979329299
-0.0239796859163893,3006.71979329299
-0.0175119389217694,3006.72979329299
-0.00132268468537628,3006.73979329299
0.0255648912051664,3006.74979329299
0.064673931268991,3006.75979329299
0.114366556871473,3006.76979329299
0.17383942634265,3006.77979329299
0.240915849438833,3006.78979329299
0.312451369162402,3006.79979329299
0.385238864396262,3006.80979329299
0.455754109141247,3006.81979329299
0.521105433201265,3006.82979329299
0.578400819218765,3006.83979329299
0.62611708767994,3006.84979329299
0.663727352347857,3006.85979329299
0.691597742175731,3006.86979329299
0.710699333639179,3006.87979329299
0.722115655153881,3006.88979329299
0.727341861870004,3006.89979329299
0.727920167426044,3006.90979329299
0.724734941272789,3006.91979329299
0.719489859615687,3006.92979329299
0.713614155326112,3006.93979329299
0.707624695958386,3006.94979329299
0.699981633636098,3006.95979329299
0.691898217391798,3006.96979329299
0.681839407523207,3006.97979329299
0.669056618470713,3006.98979329299
0.653257789237008,3006.99979329299
0.634419295470991,3007.00979329299
0.61312206877812,3007.01979329299
0.59061990518533,3007.02979329299
0.568046838135151,3007.03979329299
0.547055632384599,3007.04979329299
0.527947075249118,3007.05979329299
0.511991573426311,3007.06979329299
0.499133538699534,3007.07979329299
0.489490120981821,3007.08979329299
0.483615489105653,3007.09979329299
0.480988129455542,3007.10979329299
0.481009696710661,3007.11979329299
0.482841236147657,3007.12979329299
0.485297546419407,3007.13979329299
0.488297809443296,3007.14979329299
0.490911230668968,3007.15979329299
0.492043255892763,3007.16979329299
0.491811395250211,3007.17979329299
0.48940427024249,3007.18979329299
0.485047553200811,3007.19979329299
0.478924189379883,3007.20979329299
0.470780814993008,3007.21979329299
0.461515604623068,3007.22979329299
0.4508479900142,3007.23979329299
0.439962711619967,3007.24979329299
0.427714697392651,3007.25979329299
0.413975145011729,3007.26979329299
0.39915614726699,3007.27979329299
0.382683888038234,3007.28979329299
0.365248520263721,3007.29979329299
0.347164159009832,3007.30979329299
0.329792896567953,3007.31979329299
0.313057749291056,3007.32979329299
0.296800093433629,3007.33979329299
0.281601902500694,3007.34979329299
0.266410200568779,3007.35979329299
0.251871029481057,3007.36979329299
0.236687786333501,3007.37979329299
0.221718330124693,3007.38979329299
0.206146971602129,3007.39979329299
0.189921682467782,3007.40979329299
0.173865113083602,3007.41979329299
0.15747805157814,3007.42979329299
0.141525163322477,3007.43979329299
0.126162134863229,3007.44979329299
0.111055932890533,3007.45979329299
0.0961300395861121,3007.46979329299
0.0808963581899175,3007.47979329299
0.0656247917677271,3007.48979329299
0.0510002622857605,3007.49979329299
0.0369357084934086,3007.50979329299
0.0230901200392352,3007.51979329299
0.010392614873531,3007.52979329299
-0.00258357037721239,3007.53979329299
-0.0155936925648981,3007.54979329299
-0.0288722416883368,3007.55979329299
-0.0422177615840316,3007.56979329299
-0.0553015769834928,3007.57979329299
-0.068407175076321,3007.58979329299
-0.0814138717842911,3007.59979329299
-0.0947664131237154,3007.60979329299
-0.108081705812137,3007.61979329299
-0.121492185534249,3007.62979329299
-0.134649452814733,3007.63979329299
-0.147240748889156,3007.64979329299
-0.159526482560272,3007.65979329299
-0.170876736603191,3007.66979329299
-0.181974274670151,3007.67979329299
-0.192346686787994,3007.68979329299
-0.201265698509222,3007.69979329299
-0.208348112805587,3007.70979329299
-0.211157950249838,3007.71979329299
-0.207858421461552,3007.72979329299
-0.196532809799568,3007.73979329299
-0.175309701731406,3007.74979329299
-0.143372843854965,3007.75979329299
-0.101053020287691,3007.76979329299
-0.0496690900914216,3007.77979329299
0.00738214512844252,3007.78979329299
0.0677665459244602,3007.79979329299
0.128181267450775,3007.80979329299
0.187024590036024,3007.81979329299
0.241531182946657,3007.82979329299
0.290213802200307,3007.83979329299
0.331808419462815,3007.84979329299
0.364922761766443,3007.85979329299
0.389968787314637,3007.86979329299
0.408034494122906,3007.87979329299
0.420587526533487,3007.88979329299
0.428619352077725,3007.89979329299
0.434050513131401,3007.90979329299
0.437208149423106,3007.91979329299
0.439054286299644,3007.92979329299
0.439497767322699,3007.93979329299
0.439407838656154,3007.94979329299
0.438602292908503,3007.95979329299
0.436833876630573,3007.96979329299
0.433955795617065,3007.97979329299
0.429562191060956,3007.98979329299
0.423058970566971,3007.99979329299
0.413850117573905,3008.00979329299
0.402331061835447,3008.01979329299
0.387894336488481,3008.02979329299
0.370981059065755,3008.03979329299
0.35326716326989,3008.04979329299
0.335026765479963,3008.05979329299
0.318105844539439,3008.06979329299
0.302450724979166,3008.07979329299
0.289063186306975,3008.08979329299
0.278433206669806,3008.09979329299
0.26991550540311,3008.10979329299
0.26369958377996,3008.11979329299
0.260190505441135,3008.12979329299
0.257758909758765,3008.13979329299
0.256308471741888,3008.14979329299
0.253946195539455,3008.15979329299
0.25074468965893,3008.16979329299
0.246640325927257,3008.17979329299
0.241645563983203,3008.18979329299
0.236507083519617,3008.19979329299
0.230390327144701,3008.20979329299
0.223627494904185,3008.21979329299
0.215819324226262,3008.22979329299
0.207462889217024,3008.23979329299
0.197498712175969,3008.24979329299
0.186823588038989,3008.25979329299
0.175257888068981,3008.26979329299
0.162529942231053,3008.27979329299
0.148276612248237,3008.28979329299
0.133499514796721,3008.29979329299
0.117731118441813,3008.30979329299
0.101681243706701,3008.31979329299
0.0856993511431319,3008.32979329299
0.0694876950947617,3008.33979329299
0.0529638720640272,3008.34979329299
0.0366636158427262,3008.35979329299
0.020311137062381,3008.36979329299
0.00432140435223276,3008.37979329299
-0.0112419253982411,3008.38979329299
-0.0265393694289862,3008.39979329299
-0.0414840183745379,3008.40979329299
-0.0564693275530194,3008.41979329299
-0.0709584311913859,3008.42979329299
-0.0854932915785224,3008.43979329299
-0.100003846335938,3008.44979329299
-0.115240343149284,3008.45979329299
-0.130355716376481,3008.46979329299
-0.145122562689769,3008.47979329299
-0.159535397511228,3008.48979329299
-0.17351935027071,3008.49979329299
-0.186952216987576,3008.50979329299
-0.200689073991982,3008.51979329299
-0.214321255545796,3008.52979329299
-0.227357843160139,3008.53979329299
-0.24073814122877,3008.54979329299
-0.253500360335322,3008.55979329299
-0.266483730041656,3008.56979329299
-0.278889653888549,3008.57979329299
-0.29086906319246,3008.58979329299
-0.302822486612906,3008.59979329299
-0.314435300786895,3008.60979329299
-0.326401569284942,3008.61979329299
-0.338515416993208,3008.62979329299
-0.350924853253322,3008.63979329299
-0.36361326472053,3008.64979329299
-0.375117222176151,3008.65979329299
-0.38663347846387,3008.66979329299
-0.397471406387656,3008.67979329299
-0.407800156384631,3008.68979329299
-0.418257098890817,3008.69979329299
-0.429069203713618,3008.70979329299
-0.439860058261767,3008.71979329299
-0.449969357008312,3008.72979329299
-0.460204854282876,3008.73979329299
-0.470494838617164,3008.74979329299
-0.480937588323732,3008.75979329299
-0.491861035755595,3008.76979329299
-0.501075260354796,3008.77979329299
-0.507314056863632,3008.78979329299
-0.508867505100465,3008.79979329299
-0.503604184298644,3008.80979329299
-0.490742400192198,3008.81979329299
-0.470331695315026,3008.82979329299
-0.441667185532744,3008.83979329299
-0.405547006431094,3008.84979329299
-0.362777675460504,3008.85979329299
-0.315386256779211,3008.86979329299
-0.265652727334236,3008.87979329299
-0.216013656380393,3008.88979329299
-0.168718445309082,3008.89979329299
-0.126155681994707,3008.90979329299
-0.0898517516555696,3008.91979329299
-0.059925165904908,3008.92979329299
-0.0368654583450619,3008.93979329299
-0.0195205534215878,3008.94979329299
-0.00737718910326719,3008.95979329299
0.000418607754143324,3008.96979329299
0.00528413934018809,3008.97979329299
0.00762860858386733,3008.98979329299
0.00830933626173542,3008.99979329299
0.00742165332448323,3009.00979329299
0.00546494986732119,3009.01979329299
0.00319842948479477,3009.02979329299
4.98973148758232e-05,3009.03979329299
-0.00379613340198889,3009.04979329299
-0.0081892913827127,3009.05979329299
-0.013486564845524,3009.06979329299
-0.0203781375148535,3009.07979329299
-0.0293437283567813,3009.08979329299
-0.0403147226359127,3009.09979329299
-0.0540453249357511,3009.10979329299
-0.0681686412660454,3009.11979329299
-0.0827994975733594,3009.12979329299
-0.0969845541380707,3009.13979329299
-0.109840057919758,3009.14979329299
-0.121040338542642,3009.15979329299
-0.129611940583935,3009.16979329299
-0.136187997337726,3009.17979329299
-0.140292035055593,3009.18979329299
-0.143027791950941,3009.19979329299
-0.145170748757256,3009.20979329299
-0.146148812886807,3009.21979329299
-0.147258511471363,3009.22979329299
-0.147919062374516,3009.23979329299
-0.148501403558155,3009.24979329299
-0.148985998459163,3009.25979329299
-0.150085896996723,3009.26979329299
-0.152427556566662,3009.27979329299
-0.156448504234018,3009.28979329299
-0.162505364731735,3009.29979329299
-0.170059306389027,3009.30979329299
-0.1794689334697,3009.31979329299
-0.189731584151041,3009.32979329299
-0.200361891284498,3009.33979329299
-0.211625660237589,3009.34979329299
-0.223143826212319,3009.35979329299
-0.235570696593,3009.36979329299
-0.247959983008023,3009.37979329299
-0.260253809819155,3009.38979329299
-0.273332289031467,3009.39979329299
-0.286699099011337,3009.40979329299
-0.300537640309771,3009.41979329299
-0.314581656664015,3009.42979329299
-0.328399980202221,3009.43979329299
-0.341623953994928,3009.44979329299
-0.354527949280708,3009.45979329299
-0.36683103541104,3009.46979329299
-0.378905278323418,3009.47979329299
-0.39024699320143,3009.48979329299
-0.40210777136587,3009.49979329299
-0.41371806330439,3009.50979329299
-0.42499039521335,3009.51979329299
-0.435793095741127,3009.52979329299
-0.44563214771332,3009.53979329299
-0.45497898398942,3009.54979329299
-0.463063943179755,3009.55979329299
-0.470147110348833,3009.56979329299
-0.476839921421929,3009.57979329299
-0.482251197879769,3009.58979329299
-0.4876956401367,3009.59979329299
-0.492556233386129,3009.60979329299
-0.496894193501331,3009.61979329299
-0.501040697582117,3009.62979329299
-0.50459293159085,3009.63979329299
-0.508244659812485,3009.64979329299
-0.512066856900564,3009.65979329299
-0.515948363787681,3009.66979329299
-0.520112225500474,3009.67979329299
-0.524205283631,3009.68979329299
-0.528551964255902,3009.69979329299
-0.533579528014577,3009.70979329299
-0.539013779203117,3009.71979329299
-0.546031453319425,3009.72979329299
-0.553576784023437,3009.73979329299
-0.561877294863965,3009.74979329299
-0.570722731187527,3009.75979329299
-0.580082032608219,3009.76979329299
-0.589458376002464,3009.77979329299
-0.599525552824989,3009.78979329299
-0.61073406122372,3009.79979329299
-0.622080572299608,3009.80979329299
-0.633847888215091,3009.81979329299
-0.645438394516842,3009.82979329299
-0.656643362909139,3009.83979329299
-0.668129068002837,3009.84979329299
-0.679181953719698,3009.85979329299
-0.690398753721976,3009.86979329299
-0.701661094199291,3009.87979329299
-0.711992058308562,3009.88979329299
-0.720525401474757,3009.89979329299
-0.726220376605316,3009.90979329299
-0.726981500226678,3009.91979329299
-0.721914460017497,3009.92979329299
-0.709638330525968,3009.93979329299
-0.689554997417096,3009.94979329299
-0.662242883887735,3009.95979329299
-0.628878427560786,3009.96979329299
-0.590321643370115,3009.97979329299
-0.549368145231934,3009.98979329299
-0.508151964088262,3009.99979329299
-0.468002018264965,3010.00979329299
-0.431546586000417,3010.01979329299
-0.399661560977893,3010.02979329299
-0.373394934673432,3010.03979329299
-0.353234553609781,3010.04979329299
-0.338610219209635,3010.05979329299
-0.329100206478184,3010.06979329299
-0.324121962301345,3010.07979329299
-0.321751256113964,3010.08979329299
-0.321658529872924,3010.09979329299
-0.32317430649405,3010.10979329299
-0.325277616251355,3010.11979329299
-0.327941486179871,3010.12979329299
-0.331053435912705,3010.13979329299
-0.334861864775204,3010.14979329299
-0.340376940905008,3010.15979329299
-0.346700976406107,3010.16979329299
-0.354046405895247,3010.17979329299
-0.362835194366272,3010.18979329299
-0.372628971948705,3010.19979329299
-0.383298111235483,3010.20979329299
-0.394718520090197,3010.21979329299
-0.406404432988238,3010.22979329299
-0.417531762986803,3010.23979329299
-0.427733424462613,3010.24979329299
-0.43605639625462,3010.25979329299
-0.442467695660572,3010.26979329299
-0.447250682441515,3010.27979329299
-0.45019272245874,3010.28979329299
-0.45159578629647,3010.29979329299
-0.451158612044316,3010.30979329299
-0.449529661926729,3010.31979329299
-0.447501575074436,3010.32979329299
-0.445247775266198,3010.33979329299
-0.443832572462412,3010.34979329299
-0.442652728712534,3010.35979329299
-0.442427310969668,3010.36979329299
-0.442941815321224,3010.37979329299
-0.44419334979126,3010.38979329299
-0.446107449641291,3010.39979329299
-0.449152530099679,3010.40979329299
-0.453728022032081,3010.41979329299
-0.459247238024447,3010.42979329299
-0.465883147133462,3010.43979329299
-0.472608902401546,3010.44979329299
-0.479425113687406,3010.45979329299
-0.486266977289891,3010.46979329299
-0.493466858959735,3010.47979329299
-0.501520449560325,3010.48979329299
-0.510355626470554,3010.49979329299
-0.519313209188019,3010.50979329299
-0.528318147307199,3010.51979329299
-0.536507719059124,3010.52979329299
-0.544013787239186,3010.53979329299
-0.551778152347595,3010.54979329299
-0.559783462846869,3010.55979329299
-0.568956352156411,3010.56979329299
-0.578161283150909,3010.57979329299
-0.588250612344153,3010.58979329299
-0.597733754003588,3010.59979329299
-0.606148700907285,3010.60979329299
-0.614320731531399,3010.61979329299
-0.621764358263049,3010.62979329299
-0.629412111665222,3010.63979329299
-0.637200291882227,3010.64979329299
-0.644850704086671,3010.65979329299
-0.652778231724191,3010.66979329299
-0.661213027978305,3010.67979329299
-0.66987405137097,3010.68979329299
-0.678296569287679,3010.69979329299
-0.686958497370914,3010.70979329299
-0.695056023495715,3010.71979329299
-0.702877317918675,3010.72979329299
-0.710489121048346,3010.73979329299
-0.717903914252382,3010.74979329299
-0.725079441759661,3010.75979329299
-0.731639218467534,3010.76979329299
-0.738032792346897,3010.77979329299
-0.74421339886354,3010.78979329299
-0.750766339483188,3010.79979329299
-0.757207948111458,3010.80979329299
-0.763784113285393,3010.81979329299
-0.770610947174919,3010.82979329299
-0.777386073809157,3010.83979329299
-0.784296527108877,3010.84979329299
-0.790438335480905,3010.85979329299
-0.796444511883223,3010.86979329299
-0.802013818697451,3010.87979329299
-0.807432034500885,3010.88979329299
-0.812392918325915,3010.89979329299
-0.817241949419323,3010.90979329299
-0.822223831108504,3010.91979329299
-0.826580574347904,3010.92979329299
-0.829577365401196,3010.93979329299
-0.829596593785849,3010.94979329299
-0.825193800440539,3010.95979329299
-0.815372734754145,3010.96979329299
-0.799374551760006,3010.97979329299
-0.777453351552338,3010.98979329299
-0.749523324457414,3010.99979329299
-0.716421547987207,3011.00979329299
-0.679483611929411,3011.01979329299
-0.640832430918866,3011.02979329299
-0.602066943655357,3011.03979329299
-0.564434539881781,3011.04979329299
-0.529350024532563,3011.05979329299
-0.497308281643183,3011.06979329299
-0.46996802995619,3011.07979329299
-0.446792500416991,3011.08979329299
-0.427963034469567,3011.09979329299
-0.41259936260601,3011.10979329299
-0.401188198856978,3011.11979329299
-0.391958522142131,3011.12979329299
-0.385341933085154,3011.13979329299
-0.380922301937014,3011.14979329299
-0.378061808230236,3011.15979329299
-0.37628856934656,3011.16979329299
-0.375047528581336,3011.17979329299
-0.374286079984625,3011.18979329299
-0.373333224442426,3011.19979329299
-0.372711354036677,3011.20979329299
-0.372771204364688,3011.21979329299
-0.374103322740074,3011.22979329299
-0.377466671916514,3011.23979329299
-0.382990521346577,3011.24979329299
-0.390509203468831,3011.25979329299
-0.399002366813774,3011.26979329299
-0.407854254557962,3011.27979329299
-0.416629529030791,3011.28979329299
-0.424536814498349,3011.29979329299
-0.431253531955851,3011.30979329299
-0.436445371710347,3011.31979329299
-0.440283259627788,3011.32979329299
-0.442753482552159,3011.33979329299
-0.443078791987087,3011.34979329299
-0.44247156781183,3011.35979329299
-0.440934040138551,3011.36979329299
-0.438765729070646,3011.37979329299
-0.436219104244694,3011.38979329299
-0.433291198926675,3011.39979329299
-0.430103644959105,3011.40979329299
-0.427525182947878,3011.41979329299
-0.426070061215787,3011.42979329299
-0.425824315124342,3011.43979329299
-0.426929442403197,3011.44979329299
-0.429541239198442,3011.45979329299
-0.43341775831124,3011.46979329299
-0.437648589137817,3011.47979329299
-0.442068480787614,3011.48979329299
-0.447396433300499,3011.49979329299
-0.452752691568993,3011.50979329299
-0.45844783886202,3011.51979329299
-0.464450221845641,3011.52979329299
-0.470955071175767,3011.53979329299
-0.477655452583429,3011.54979329299
-0.484552621980176,3011.55979329299
-0.491830128493353,3011.56979329299
-0.498870176984752,3011.57979329299
-0.505475235798108,3011.58979329299
-0.512511933887443,3011.59979329299
-0.519876491613135,3011.60979329299
-0.527391282653466,3011.61979329299
-0.535032508954332,3011.62979329299
-0.543226097301156,3011.63979329299
-0.551482859507071,3011.64979329299
-0.559419619145933,3011.65979329299
-0.567195158948497,3011.66979329299
-0.574806137708663,3011.67979329299
-0.581994289798918,3011.68979329299
-0.588659456167864,3011.69979329299
-0.595189294686717,3011.70979329299
-0.600998292919976,3011.71979329299
-0.606777316200684,3011.72979329299
-0.612226431451992,3011.73979329299
-0.6179695870913,3011.74979329299
-0.623868586010051,3011.75979329299
-0.629748572578085,3011.76979329299
-0.635757986346717,3011.77979329299
-0.641489387629027,3011.78979329299
-0.647111635933002,3011.79979329299
-0.65306447337852,3011.80979329299
-0.659304631979819,3011.81979329299
-0.666187671953163,3011.82979329299
-0.673540770131714,3011.83979329299
-0.680294186588038,3011.84979329299
-0.68710846385686,3011.85979329299
-0.693241441371317,3011.86979329299
-0.698674670471934,3011.87979329299
-0.704378544010427,3011.88979329299
-0.709667841105762,3011.89979329299
-0.715000262701734,3011.90979329299
-0.720138990911827,3011.91979329299
-0.725489258136329,3011.92979329299
-0.731022861447955,3011.93979329299
-0.736754336701434,3011.94979329299
-0.742484709214724,3011.95979329299
-0.746735690669328,3011.96979329299
-0.748795058489829,3011.97979329299
-0.74737595618375,3011.98979329299
-0.741022660752488,3011.99979329299
-0.728751378201442,3012.00979329299
-0.710079176657433,3012.01979329299
-0.684974783598044,3012.02979329299
-0.653626979189318,3012.03979329299
-0.618011267321456,3012.04979329299
-0.578922434456665,3012.05979329299
-0.538095383173961,3012.06979329299
-0.498300701502851,3012.07979329299
-0.460799768465355,3012.08979329299
-0.427205939784987,3012.09979329299
-0.397776469212937,3012.10979329299
-0.373518859373907,3012.11979329299
-0.354370477796942,3012.12979329299
-0.339670850157382,3012.13979329299
-0.329289354885654,3012.14979329299
-0.321954937848823,3012.15979329299
-0.31735399031479,3012.16979329299
-0.314268677778981,3012.17979329299
-0.312067573437781,3012.18979329299
-0.311018654104247,3012.19979329299
-0.309700661640793,3012.20979329299
-0.308940208604946,3012.21979329299
-0.308444003850298,3012.22979329299
-0.308021220502964,3012.23979329299
-0.308106923798392,3012.24979329299
-0.309084910551525,3012.25979329299
-0.311017981628184,3012.26979329299
-0.314014648927707,3012.27979329299
-0.317792989404004,3012.28979329299
-0.321704934548132,3012.29979329299
-0.32461168019642,3012.30979329299
-0.326625522338542,3012.31979329299
-0.327709421182194,3012.32979329299
-0.327405037133503,3012.33979329299
-0.326335597900352,3012.34979329299
-0.324885834686845,3012.35979329299
-0.323348790852225,3012.36979329299
-0.321637671313645,3012.37979329299
-0.319672605780004,3012.38979329299
-0.31749715219288,3012.39979329299
-0.316404596319893,3012.40979329299
-0.315949130175563,3012.41979329299
-0.316513269750393,3012.42979329299
-0.317302976906182,3012.43979329299
-0.318785666997054,3012.44979329299
-0.320410659287357,3012.45979329299
-0.32269268023035,3012.46979329299
-0.325282539055698,3012.47979329299
-0.328558857059275,3012.48979329299
-0.332646661387986,3012.49979329299
-0.337295598371772,3012.50979329299
-0.34211023537439,3012.51979329299
-0.346750161997723,3012.52979329299
-0.351592842979183,3012.53979329299
-0.356615954744079,3012.54979329299
-0.361773818742413,3012.55979329299
-0.367247414316293,3012.56979329299
-0.373369553887811,3012.57979329299
-0.379402672089531,3012.58979329299
-0.385820523526615,3012.59979329299
-0.392311294979868,3012.60979329299
-0.398883638653687,3012.61979329299
-0.405528766385756,3012.62979329299
-0.411885244418093,3012.63979329299
-0.418334138535528,3012.64979329299
-0.424358517613498,3012.65979329299
-0.430658988363784,3012.66979329299
-0.437122438553672,3012.67979329299
-0.443773002883779,3012.68979329299
-0.451701054100287,3012.69979329299
-0.460160952287519,3012.70979329299
-0.469147631284304,3012.71979329299
-0.477691220370104,3012.72979329299
-0.485881184935633,3012.73979329299
-0.492937419721793,3012.74979329299
-0.499570446163014,3012.75979329299
-0.506309058763814,3012.76979329299
-0.513095789621107,3012.77979329299
-0.519856776915519,3012.78979329299
-0.526901503142713,3012.79979329299
-0.53375971765839,3012.80979329299
-0.540760253080119,3012.81979329299
-0.54739766147785,3012.82979329299
-0.553095202609579,3012.83979329299
-0.558346825294427,3012.84979329299
-0.564035656085168,3012.85979329299
-0.569734121911824,3012.86979329299
-0.575971841960362,3012.87979329299
-0.58203434435836,3012.88979329299
-0.588704660809541,3012.89979329299
-0.594334741912958,3012.90979329299
-0.599114709962689,3012.91979329299
-0.602236854514396,3012.92979329299
-0.602641012274031,3012.93979329299
-0.600073608783159,3012.94979329299
-0.592075469313925,3012.95979329299
-0.578619851970988,3012.96979329299
-0.559298896681148,3012.97979329299
-0.534962256403069,3012.98979329299
-0.506360838967933,3012.99979329299
-0.4753322572313,3013.00979329299
-0.442318177782372,3013.01979329299
-0.40940067719204,3013.02979329299
-0.377595124845136,3013.03979329299
-0.34893154906801,3013.04979329299
-0.324577200606653,3013.05979329299
-0.304655946776364,3013.06979329299
-0.288939752429841,3013.07979329299
-0.27650237383422,3013.08979329299
-0.26632146229248,3013.09979329299
-0.25876497385438,3013.10979329299
-0.253130835668374,3013.11979329299
-0.250207819944614,3013.12979329299
-0.24879956445496,3013.13979329299
-0.248524987366076,3013.14979329299
-0.249016743367268,3013.15979329299
-0.249814459594133,3013.16979329299
-0.250612166649942,3013.17979329299
-0.251341293732848,3013.18979329299
-0.252419510818527,3013.19979329299
-0.255217009067669,3013.20979329299
-0.259543600368809,3013.21979329299
-0.265768153069773,3013.22979329299
-0.27318035991979,3013.23979329299
-0.282234426050196,3013.24979329299
-0.291281769282739,3013.25979329299
-0.300367416774487,3013.26979329299
-0.30905944958844,3013.27979329299
-0.316564663597537,3013.28979329299
-0.322522490978158,3013.29979329299
-0.327061222020779,3013.30979329299
-0.330245100585153,3013.31979329299
-0.331748220310966,3013.32979329299
-0.332411964520479,3013.33979329299
-0.331834117500048,3013.34979329299
-0.330818863044275,3013.35979329299
-0.330090432634311,3013.36979329299
-0.328720241320432,3013.37979329299
-0.32809963254908,3013.38979329299
-0.328201913702258,3013.39979329299
-0.329120737619115,3013.40979329299
-0.330889440204922,3013.41979329299
-0.33345642186929,3013.42979329299
-0.336008600409181,3013.43979329299
-0.339336790946652,3013.44979329299
-0.343019526353401,3013.45979329299
-0.347799033284131,3013.46979329299
-0.35372440671713,3013.47979329299
-0.36021056764054,3013.48979329299
-0.36723833952779,3013.49979329299
-0.374657975961727,3013.50979329299
-0.382235221145086,3013.51979329299
-0.389650559406766,3013.52979329299
-0.397542818354145,3013.53979329299
-0.405093924035139,3013.54979329299
-0.412630684519956,3013.55979329299
-0.420218136981276,3013.56979329299
-0.427807350304036,3013.57979329299
-0.43601239652087,3013.58979329299
-0.444286832083743,3013.59979329299
-0.453074068428099,3013.60979329299
-0.461912853421456,3013.61979329299
-0.4707856742195,3013.62979329299
-0.479201389499036,3013.63979329299
-0.486964663639934,3013.64979329299
-0.49425415807322,3013.65979329299
-0.500457702327717,3013.66979329299
-0.506909163127966,3013.67979329299
-0.513711761644517,3013.68979329299
-0.52072252495578,3013.69979329299
-0.528174384349546,3013.70979329299
-0.536240937454089,3013.71979329299
-0.544315197264194,3013.72979329299
-0.551679162123455,3013.73979329299
-0.557937506213283,3013.74979329299
-0.563930085903844,3013.75979329299
-0.569422798394123,3013.76979329299
-0.574965456411273,3013.77979329299
-0.580763730142168,3013.78979329299
-0.587093493300431,3013.79979329299
-0.593780409986267,3013.80979329299
-0.600297351340416,3013.81979329299
-0.60675236697755,3013.82979329299
-0.613730348865795,3013.83979329299
-0.620043070235273,3013.84979329299
-0.626446468232201,3013.85979329299
-0.632663891275275,3013.86979329299
-0.638477129336839,3013.87979329299
-0.644761541017864,3013.88979329299
-0.650088537212896,3013.89979329299
-0.654836327057194,3013.90979329299
-0.659041773866207,3013.91979329299
-0.663208124170577,3013.92979329299
-0.666613549792823,3013.93979329299
-0.669219112918991,3013.94979329299
-0.67012176955813,3013.95979329299
-0.667891117729177,3013.96979329299
-0.661948688298491,3013.97979329299
-0.651081619129822,3013.98979329299
-0.635044844473172,3013.99979329299
-0.613759785091528,3014.00979329299
-0.587955666562466,3014.01979329299
-0.558446117122682,3014.02979329299
-0.526605128493545,3014.03979329299
-0.494415405795709,3014.04979329299
-0.462385675491812,3014.05979329299
-0.432408049439139,3014.06979329299
-0.405046511265804,3014.07979329299
-0.382090210994565,3014.08979329299
-0.363835015197979,3014.09979329299
-0.350118871428143,3014.10979329299
-0.34031410749273,3014.11979329299
-0.333285646592227,3014.12979329299
-0.328240662563879,3014.13979329299
-0.324673093182233,3014.14979329299
-0.321909887115407,3014.15979329299
-0.320018128749894,3014.16979329299
-0.318859032502763,3014.17979329299
-0.317995122976883,3014.18979329299
-0.317142542257454,3014.19979329299
-0.316135547986658,3014.20979329299
-0.315232829436748,3014.21979329299
-0.315245269019951,3014.22979329299
-0.316372878813574,3014.23979329299
-0.318510137745257,3014.24979329299
-0.321528932216501,3014.25979329299
-0.326302898102415,3014.26979329299
-0.332054177176894,3014.27979329299
-0.338541053880358,3014.28979329299
-0.345571617457096,3014.29979329299
-0.351974202626949,3014.30979329299
-0.357905287371129,3014.31979329299
-0.362881778922853,3014.32979329299
-0.36645592444149,3014.33979329299
-0.369180328033183,3014.34979329299
-0.370681594281482,3014.35979329299
-0.370858412444307,3014.36979329299
-0.370297994285472,3014.37979329299
-0.368769320162372,3014.38979329299
-0.366656403018268,3014.39979329299
-0.36410915703846,3014.40979329299
-0.361718129716753,3014.41979329299
-0.359473372565423,3014.42979329299
-0.358288631570916,3014.43979329299
-0.358310593891608,3014.44979329299
-0.359105860171782,3014.45979329299
-0.361488968592881,3014.46979329299
-0.364197951063483,3014.47979329299
-0.367650231141795,3014.48979329299
-0.371328754889383,3014.49979329299
-0.375522245167989,3014.50979329299
-0.380046724405858,3014.51979329299
-0.384511949171296,3014.52979329299
-0.389752370249684,3014.53979329299
-0.394855955423381,3014.54979329299
-0.400205175025904,3014.55979329299
-0.405760199999922,3014.56979329299
-0.411625239239758,3014.57979329299
-0.417515533197616,3014.58979329299
-0.423524164072025,3014.59979329299
-0.429659537710025,3014.60979329299
-0.436311890179211,3014.61979329299
-0.442991159947996,3014.62979329299
-0.449798737297151,3014.63979329299
-0.456748070975786,3014.64979329299
-0.463176541561041,3014.65979329299
-0.469284228573139,3014.66979329299
-0.475412452985812,3014.67979329299
-0.480929009190562,3014.68979329299
-0.486868878891429,3014.69979329299
-0.492529789687206,3014.70979329299
-0.497921336281412,3014.71979329299
-0.503927423827947,3014.72979329299
-0.509675977263974,3014.73979329299
-0.515636321248553,3014.74979329299
-0.52154401731265,3014.75979329299
-0.526814867280757,3014.76979329299
-0.531472343956743,3014.77979329299
-0.536825889894881,3014.78979329299
-0.542185970077071,3014.79979329299
-0.548015366440423,3014.80979329299
-0.554378295070812,3014.81979329299
-0.560320908121065,3014.82979329299
-0.565866699695113,3014.83979329299
-0.570504949713065,3014.84979329299
-0.575342326406751,3014.85979329299
-0.579874913301295,3014.86979329299
-0.584879837320295,3014.87979329299
-0.589950514177534,3014.88979329299
-0.59427379007615,3014.89979329299
-0.598516972604812,3014.90979329299
-0.603152830092132,3014.91979329299
-0.607741315146664,3014.92979329299
-0.612450370565471,3014.93979329299
-0.61724412048555,3014.94979329299
-0.62222422433401,3014.95979329299
-0.62723230902832,3014.96979329299
-0.632131899876021,3014.97979329299
-0.636539284904933,3014.98979329299
-0.640416927194098,3014.99979329299
-0.642480165431531,3015.00979329299
-0.641524019695225,3015.01979329299
-0.63646938969676,3015.02979329299
-0.626367619219407,3015.03979329299
-0.611182461302418,3015.04979329299
-0.590473096722528,3015.05979329299
-0.564909548216362,3015.06979329299
-0.536111559588141,3015.07979329299
-0.504697684434986,3015.08979329299
-0.471479111581309,3015.09979329299
-0.437966559810231,3015.10979329299
-0.405564665092994,3015.11979329299
-0.374999420891736,3015.12979329299
-0.347843805424542,3015.13979329299
-0.324163469303759,3015.14979329299
-0.305008700789619,3015.15979329299
-0.289520416965198,3015.16979329299
-0.277358108511334,3015.17979329299
-0.267846317917133,3015.18979329299
-0.260023763650572,3015.19979329299
-0.253711500424127,3015.20979329299
-0.249102601067183,3015.21979329299
-0.244624768852885,3015.22979329299
-0.24118239145733,3015.23979329299
-0.238703631476537,3015.24979329299
-0.236868700913639,3015.25979329299
-0.235282766332553,3015.26979329299
-0.233716270169597,3015.27979329299
-0.233902195345702,3015.28979329299
-0.235520727615231,3015.29979329299
-0.237870259938061,3015.30979329299
-0.241737119093444,3015.31979329299
-0.246265910285835,3015.32979329299
-0.250720479268678,3015.33979329299
-0.255256590770042,3015.34979329299
-0.25926061261169,3015.35979329299
-0.262288169584627,3015.36979329299
-0.264372129853631,3015.37979329299
-0.265124176290069,3015.38979329299
-0.264193645954188,3015.39979329299
-0.261486800628836,3015.40979329299
-0.256892599078911,3015.41979329299
-0.251251652806673,3015.42979329299
-0.244841443037203,3015.43979329299
-0.238055265040669,3015.44979329299
-0.231405531615021,3015.45979329299
-0.225708392540988,3015.46979329299
-0.220391879041862,3015.47979329299
-0.216419856085151,3015.48979329299
-0.21303459271334,3015.49979329299
-0.211227644472047,3015.50979329299
-0.210715780814348,3015.51979329299
-0.211961285664564,3015.52979329299
-0.213655505803432,3015.53979329299
-0.216041483450831,3015.54979329299
-0.218545530695356,3015.55979329299
-0.221359486229537,3015.56979329299
-0.224473948636587,3015.57979329299
-0.227709921111521,3015.58979329299
-0.231716553875943,3015.59979329299
-0.236205224862959,3015.60979329299
-0.240752243256952,3015.61979329299
-0.245538824669647,3015.62979329299
-0.250798811372775,3015.63979329299
-0.255713766518933,3015.64979329299
-0.261524084266381,3015.65979329299
-0.26688062906001,3015.66979329299
-0.272467684567214,3015.67979329299
-0.277451044279152,3015.68979329299
-0.282659849069625,3015.69979329299
-0.287510662887902,3015.70979329299
-0.292537969878342,3015.71979329299
-0.29739921970504,3015.72979329299
-0.302172567459061,3015.73979329299
-0.306807864208922,3015.74979329299
-0.311297175755852,3015.75979329299
-0.315658540331596,3015.76979329299
-0.31946190321393,3015.77979329299
-0.323218879444669,3015.78979329299
-0.327400888994984,3015.79979329299
-0.332076035211958,3015.80979329299
-0.336518634766615,3015.81979329299
-0.34112691827498,3015.82979329299
-0.345828241267911,3015.83979329299
-0.350364396133966,3015.84979329299
-0.355141780673863,3015.85979329299
-0.360006517591418,3015.86979329299
-0.364894268019061,3015.87979329299
-0.36946476785497,3015.88979329299
-0.373898911288965,3015.89979329299
-0.378213723756779,3015.90979329299
-0.382151928931976,3015.91979329299
-0.386024101364526,3015.92979329299
-0.390171395367663,3015.93979329299
-0.39392654971176,3015.94979329299
-0.397885729190441,3015.95979329299
-0.401387278714642,3015.96979329299
-0.404942412056984,3015.97979329299
-0.408170604781081,3015.98979329299
-0.409926028933343,3015.99979329299
-0.41003243771343,3016.00979329299
-0.406881853725716,3016.01979329299
-0.398459590513897,3016.02979329299
-0.384425438456366,3016.03979329299
-0.36481498080662,3016.04979329299
-0.338739624944054,3016.05979329299
-0.307008900954186,3016.06979329299
-0.27035020548135,3016.07979329299
-0.23040340272777,3016.08979329299
-0.188698059070147,3016.09979329299
-0.147829428604287,3016.10979329299
-0.109115344653765,3016.11979329299
-0.0732654580985725,3016.12979329299
-0.0417162239984616,3016.13979329299
-0.0149393289876693,3016.14979329299
0.00782233598802477,3016.15979329299
0.0257511453324514,3016.16979329299
0.0400342750078905,3016.17979329299
0.050631702926303,3016.18979329299
0.0585777606710777,3016.19979329299
0.064272982661031,3016.20979329299
0.0691934502207717,3016.21979329299
0.0729982408992458,3016.22979329299
0.0760727023408578,3016.23979329299
0.0791054392793427,3016.24979329299
0.080723990784307,3016.25979329299
0.0819360596258011,3016.26979329299
0.0820458617173533,3016.27979329299
0.0812848562732573,3016.28979329299
0.0791053378163923,3016.29979329299
0.075275439291632,3016.30979329299
0.0706326769373477,3016.31979329299
0.0648148989702861,3016.32979329299
0.0593495600194754,3016.33979329299
0.0538058166785007,3016.34979329299
0.0496854124118441,3016.35979329299
0.0471514661542534,3016.36979329299
0.0466516877731512,3016.37979329299
0.0474844757985341,3016.38979329299
0.049983902312085,3016.39979329299
0.0537019689306617,3016.40979329299
0.0590161289959059,3016.41979329299
0.0650792837741852,3016.42979329299
0.0712001750236009,3016.43979329299
0.07668471618442,3016.44979329299
0.0812062066025183,3016.45979329299
0.0844547099675211,3016.46979329299
0.0875946681756355,3016.47979329299
0.0897779461851925,3016.48979329299
0.0916488173051814,3016.49979329299
0.0927571200792573,3016.50979329299
0.0934262678722181,3016.51979329299
0.0928601639082701,3016.52979329299
0.0914877318073574,3016.53979329299
0.0893821489629902,3016.54979329299
0.0857054261965801,3016.55979329299
0.0812849300967204,3016.56979329299
0.0761973927445657,3016.57979329299
0.0709750349617708,3016.58979329299
0.0655138438402161,3016.59979329299
0.0595546702202978,3016.60979329299
0.0535796222133471,3016.61979329299
0.0482613806911476,3016.62979329299
0.0421109270130567,3016.63979329299
0.0357711228711352,3016.64979329299
0.0298228141357345,3016.65979329299
0.023649910218123,3016.66979329299
0.0178025448362914,3016.67979329299
0.0120775474057106,3016.68979329299
0.00638875853970618,3016.69979329299
0.000207877191029209,3016.70979329299
-0.00628707111128518,3016.71979329299
-0.0128649658037242,3016.72979329299
-0.0197654941686526,3016.73979329299
-0.027117026128661,3016.74979329299
-0.0336748251585918,3016.75979329299
-0.0398506808948437,3016.76979329299
-0.0458583758723659,3016.77979329299
-0.0516929524252028,3016.78979329299
-0.0582117940084185,3016.79979329299
-0.0646788744601853,3016.80979329299
-0.0712291805425166,3016.81979329299
-0.0777923712869186,3016.82979329299
-0.0849040104130385,3016.83979329299
-0.0919581588748028,3016.84979329299
-0.0989472376710647,3016.85979329299
-0.105862504357815,3016.86979329299
-0.11293409182167,3016.87979329299
-0.120006167962929,3016.88979329299
-0.126567172319239,3016.89979329299
-0.133326460014707,3016.90979329299
-0.139831089782507,3016.91979329299
-0.146122435116879,3016.92979329299
-0.151529225665859,3016.93979329299
-0.156477978224425,3016.94979329299
-0.162431627349317,3016.95979329299
-0.16852726483324,3016.96979329299
-0.174833788230871,3016.97979329299
-0.180756787029646,3016.98979329299
-0.185639329837902,3016.99979329299
-0.188009525808484,3017.00979329299
-0.186863724519744,3017.01979329299
-0.180458602565457,3017.02979329299
-0.168256602722718,3017.03979329299
-0.149057398511579,3017.04979329299
-0.12151962965244,3017.05979329299
-0.0866720380817166,3017.06979329299
-0.0452733096255304,3017.07979329299
0.000756161182968965,3017.08979329299
0.0498886781612047,3017.09979329299
0.0993284011845567,3017.10979329299
0.146962238769107,3017.11979329299
0.191580377464942,3017.12979329299
0.230907663074038,3017.13979329299
0.264226286715323,3017.14979329299
0.291792410075896,3017.15979329299
0.31421098483221,3017.16979329299
0.331864646778958,3017.17979329299
0.34550235236381,3017.18979329299
0.356011850978203,3017.19979329299
0.363996191547546,3017.20979329299
0.370034295648767,3017.21979329299
0.375396720375727,3017.22979329299
0.379117391421509,3017.23979329299
0.382397297288663,3017.24979329299
0.38449551447404,3017.25979329299
0.385849540538149,3017.26979329299
0.386968336724751,3017.27979329299
0.386531133943498,3017.28979329299
0.384177853638459,3017.29979329299
0.379927156535468,3017.30979329299
0.373624424988236,3017.31979329299
0.366155132306262,3017.32979329299
0.357938882119076,3017.33979329299
0.349887666105066,3017.34979329299
0.342901831670081,3017.35979329299
0.336275969491752,3017.36979329299
0.33087956230975,3017.37979329299
0.327879754940451,3017.38979329299
0.326898999659383,3017.39979329299
0.328292551903915,3017.40979329299
0.331386904308055,3017.41979329299
0.336531765043778,3017.42979329299
0.342381421403106,3017.43979329299
0.348976979451163,3017.44979329299
0.356142008258105,3017.45979329299
0.363254582883653,3017.46979329299
0.370493857829595,3017.47979329299
0.377213357368629,3017.48979329299
0.383413156315696,3017.49979329299
0.38888735717176,3017.50979329299
0.393336430542678,3017.51979329299
0.396805160111829,3017.52979329299
0.398601741440577,3017.53979329299
0.399096248616007,3017.54979329299
0.398441253229116,3017.55979329299
0.396148308136057,3017.56979329299
0.392089584998145,3017.57979329299
0.385818039202178,3017.58979329299
0.377784936602743,3017.59979329299
0.368343311174007,3017.60979329299
0.357702005470984,3017.61979329299
0.346496594805656,3017.62979329299
0.3348717618056,3017.63979329299
0.323244498259192,3017.64979329299
0.311055672134845,3017.65979329299
0.298790584921969,3017.66979329299
0.286117098237687,3017.67979329299
0.273617305837787,3017.68979329299
0.261477242081198,3017.69979329299
0.249354960012496,3017.70979329299
0.237599886184294,3017.71979329299
0.226378005175588,3017.72979329299
0.216233073132913,3017.73979329299
0.206880123249572,3017.74979329299
0.198457955887876,3017.75979329299
0.18988606388583,3017.76979329299
0.181578588875061,3017.77979329299
0.173230414988226,3017.78979329299
0.164225822772636,3017.79979329299
0.154329357223324,3017.80979329299
0.143933383573329,3017.81979329299
0.133479476875336,3017.82979329299
0.123272121031785,3017.83979329299
0.113901511181753,3017.84979329299
0.105374850551377,3017.85979329299
0.0970746287170293,3017.86979329299
0.0885877106620909,3017.87979329299
0.0804598227587232,3017.88979329299
0.0714014281057766,3017.89979329299
0.0623714439455877,3017.90979329299
0.0526878539263817,3017.91979329299
0.0425452511079282,3017.92979329299
0.0324571646943293,3017.93979329299
0.0221882426219733,3017.94979329299
0.0128300257969771,3017.95979329299
0.00438216739375625,3017.96979329299
-0.00216171470225205,3017.97979329299
-0.0051738432917433,3017.98979329299
-0.0037459031375171,3017.99979329299
0.00319571126978433,3018.00979329299
0.0174641164048979,3018.01979329299
0.0395705655363779,3018.02979329299
0.0694109585188708,3018.03979329299
0.105773100545733,3018.04979329299
0.147290130788406,3018.05979329299
0.19267956814685,3018.06979329299
0.239515383634581,3018.07979329299
0.284903143389029,3018.08979329299
0.327428847240925,3018.09979329299
0.364232299097177,3018.10979329299
0.395360503541183,3018.11979329299
0.419708582513349,3018.12979329299
0.437537197781543,3018.13979329299
0.450127057079566,3018.14979329299
0.458043784705299,3018.15979329299
0.462793075182037,3018.16979329299
0.465141389354892,3018.17979329299
0.464605598593731,3018.18979329299
0.462731223947731,3018.19979329299
0.460010857471243,3018.20979329299
0.456944558772886,3018.21979329299
0.454352167601121,3018.22979329299
0.451509659978641,3018.23979329299
0.447979053934523,3018.24979329299
0.443571533989905,3018.25979329299
0.437636040815536,3018.26979329299
0.4297151446297,3018.27979329299
0.419936090515724,3018.28979329299
0.408596104823059,3018.29979329299
0.39615145515458,3018.30979329299
0.384046934071559,3018.31979329299
0.372507868177856,3018.32979329299
0.362637670683968,3018.33979329299
0.354457820550289,3018.34979329299
0.348255233188617,3018.35979329299
0.343877594570096,3018.36979329299
0.341199503651906,3018.37979329299
0.339796155335535,3018.38979329299
0.339335381060146,3018.39979329299
0.339627538932464,3018.40979329299
0.339233737203771,3018.41979329299
0.33831206373402,3018.42979329299
0.337486079089401,3018.43979329299
0.336071244277518,3018.44979329299
0.334141738421623,3018.45979329299
0.331174573834962,3018.46979329299
0.326560581112236,3018.47979329299
0.320858760337793,3018.48979329299
0.314092880145355,3018.49979329299
0.306399900391592,3018.50979329299
0.298092848247225,3018.51979329299
0.289636811392549,3018.52979329299
0.280863537168519,3018.53979329299
0.271312062658833,3018.54979329299
0.260984906510766,3018.55979329299
0.24980466841464,3018.56979329299
0.238291258207836,3018.57979329299
0.226728535038632,3018.58979329299
0.214895850728827,3018.59979329299
0.203086985876111,3018.60979329299
0.191394154078986,3018.61979329299
0.179691587259488,3018.62979329299
0.16784945110783,3018.63979329299
0.155706746527097,3018.64979329299
0.14408626933668,3018.65979329299
0.133006623778609,3018.66979329299
0.122294877841326,3018.67979329299
0.111284725701185,3018.68979329299
0.100435333779845,3018.69979329299
0.0893697863359284,3018.70979329299
0.0777562739577675,3018.71979329299
0.0665251345925152,3018.72979329299
0.0554330174959715,3018.73979329299
0.0442530408918694,3018.74979329299
0.0336947433760156,3018.75979329299
0.02344613980802,3018.76979329299
0.0135342284872908,3018.77979329299
0.00368644374122893,3018.78979329299
-0.00622094861578787,3018.79979329299
-0.0164733132632614,3018.80979329299
-0.0272412285665707,3018.81979329299
-0.0383843835608095,3018.82979329299
-0.0500706435296246,3018.83979329299
-0.0613176505475696,3018.84979329299
-0.0726339720360145,3018.85979329299
-0.0836343415154656,3018.86979329299
-0.0935089947965322,3018.87979329299
-0.102675361953685,3018.88979329299
-0.11085545051927,3018.89979329299
-0.118703711931514,3018.90979329299
-0.127056705036796,3018.91979329299
-0.135171645539378,3018.92979329299
-0.143549201405357,3018.93979329299
-0.152420784428555,3018.94979329299
-0.160820529649968,3018.95979329299
-0.16907213243787,3018.96979329299
-0.175947159681565,3018.97979329299
-0.179934489715793,3018.98979329299
-0.180233522045477,3018.99979329299
-0.174878960100576,3019.00979329299
-0.162367169380358,3019.01979329299
-0.142880169489018,3019.02979329299
-0.116274418316958,3019.03979329299
-0.0831000263431927,3019.04979329299
-0.044311190430687,3019.05979329299
-0.00197149805840408,3019.06979329299
0.0412526863811579,3019.07979329299
0.0830727117635498,3019.08979329299
0.121438427532416,3019.09979329299
0.155521344686079,3019.10979329299
0.18405650047677,3019.11979329299
0.206443738624403,3019.12979329299
0.223314153596489,3019.13979329299
0.235010873746064,3019.14979329299
0.242863517710509,3019.15979329299
0.247561474304071,3019.16979329299
0.24993571282938,3019.17979329299
0.250423336845253,3019.18979329299
0.250051109201001,3019.19979329299
0.248908000263008,3019.20979329299
0.247941587746535,3019.21979329299
0.246472020988598,3019.22979329299
0.244689104661798,3019.23979329299
0.241950123296536,3019.24979329299
0.237683212986842,3019.25979329299
0.231558093334122,3019.26979329299
0.223687640594118,3019.27979329299
0.214018308148801,3019.28979329299
0.203131387750731,3019.29979329299
0.191760330652656,3019.30979329299
0.181197343414467,3019.31979329299
0.170912445132188,3019.32979329299
0.161518633223169,3019.33979329299
0.153878473699315,3019.34979329299
0.147655403388953,3019.35979329299
0.14375634767838,3019.36979329299
0.141128924316282,3019.37979329299
0.140082944776002,3019.38979329299
0.14008269034113,3019.39979329299
0.140793850241512,3019.40979329299
0.141890988183096,3019.41979329299
0.141903406069187,3019.42979329299
0.14157965892348,3019.43979329299
0.140758507605071,3019.44979329299
0.139118698452398,3019.45979329299
0.136897267430024,3019.46979329299
0.133753007623701,3019.47979329299
0.130205643436233,3019.48979329299
0.126168857363072,3019.49979329299
0.120892384683155,3019.50979329299
0.11474607322072,3019.51979329299
0.10805655781473,3019.52979329299
0.100545149973413,3019.53979329299
0.0923910820329896,3019.54979329299
0.0836938896340209,3019.55979329299
0.0745696540301857,3019.56979329299
0.0652709111202241,3019.57979329299
0.0555901196355225,3019.58979329299
0.04565615633587,3019.59979329299
0.035775368744949,3019.60979329299
0.0253716445957344,3019.61979329299
0.0149694976915688,3019.62979329299
0.0049071590787254,3019.63979329299
-0.00492444100396966,3019.64979329299
-0.0138455968535314,3019.65979329299
-0.0227956249801666,3019.66979329299
-0.0318585700284342,3019.67979329299
-0.0411468461803266,3019.68979329299
-0.0507859659113383,3019.69979329299
-0.0605715825652682,3019.70979329299
-0.0700820564405203,3019.71979329299
-0.0793164898419115,3019.72979329299
-0.0887524670835543,3019.73979329299
-0.0981338526337583,3019.74979329299
-0.107852448203418,3019.75979329299
-0.117428160543883,3019.76979329299
-0.127802615990162,3019.77979329299
-0.139031545124215,3019.78979329299
-0.150417432890123,3019.79979329299
-0.161907978202409,3019.80979329299
-0.172935082437678,3019.81979329299
-0.183421573289556,3019.82979329299
-0.193584370949596,3019.83979329299
-0.203137009574137,3019.84979329299
-0.212434200617947,3019.85979329299
-0.22113028141252,3019.86979329299
-0.229525498652709,3019.87979329299
-0.237653251984431,3019.88979329299
-0.244845373845937,3019.89979329299
-0.251511329258862,3019.90979329299
-0.257800456004564,3019.91979329299
-0.26391185110742,3019.92979329299
-0.268136551335698,3019.93979329299
-0.269172793107651,3019.94979329299
-0.265675560920768,3019.95979329299
-0.256328144842473,3019.96979329299
-0.23990610220244,3019.97979329299
-0.216453351953724,3019.98979329299
-0.186804124973503,3019.99979329299
-0.152005382952474,3020.00979329299
-0.113477000983132,3020.01979329299
-0.0721713992477854,3020.02979329299
-0.0313840972821214,3020.03979329299
0.00671094431827042,3020.04979329299
0.0405860624620609,3020.05979329299
0.0689244474656971,3020.06979329299
0.0909838220030311,3020.07979329299
0.108046908495682,3020.08979329299
0.120068055423048,3020.09979329299
0.128326784986374,3020.10979329299
0.134169456161326,3020.11979329299
0.138186245791659,3020.12979329299
0.140483031344507,3020.13979329299
0.141489580496502,3020.14979329299
0.141293929985437,3020.15979329299
0.14029570847206,3020.16979329299
0.139436584530271,3020.17979329299
0.1384347314461,3020.18979329299
0.137714897170798,3020.19979329299
0.137066241486335,3020.20979329299
0.135261930454337,3020.21979329299
0.13215461441539,3020.22979329299
0.127717281300846,3020.23979329299
0.122490528986547,3020.24979329299
0.116222690917946,3020.25979329299
0.11024446190387,3020.26979329299
0.105290100727058,3020.27979329299
0.101317776888719,3020.28979329299
0.0991920037884055,3020.29979329299
0.0982283167480511,3020.30979329299
0.098200995083254,3020.31979329299
0.0990282108403056,3020.32979329299
0.100486349413353,3020.33979329299
0.102478857690783,3020.34979329299
0.10472184376092,3020.35979329299
0.107207965096014,3020.36979329299
0.109294216253177,3020.37979329299
0.110880963609344,3020.38979329299
0.111904595298405,3020.39979329299
0.112199264214197,3020.40979329299
0.111659425372877,3020.41979329299
0.110378183164261,3020.42979329299
0.109047792073422,3020.43979329299
0.106402233429244,3020.44979329299
0.103493171001281,3020.45979329299
0.100216458053296,3020.46979329299
0.096070287681795,3020.47979329299
0.0910107841094511,3020.48979329299
0.0857210977098403,3020.49979329299
0.0796474502044368,3020.50979329299
0.0732129835317547,3020.51979329299
0.0666772512370619,3020.52979329299
0.0604793645800604,3020.53979329299
0.0540113019089984,3020.54979329299
0.0475422221457549,3020.55979329299
0.0403580343316029,3020.56979329299
0.0318035144665405,3020.57979329299
0.0230107831808277,3020.58979329299
0.0142629560596183,3020.59979329299
0.0059114714653156,3020.60979329299
-0.00115431665062948,3020.61979329299
-0.00797812098106536,3020.62979329299
-0.0153889826853696,3020.63979329299
-0.0230546724112211,3020.64979329299
-0.0304964517542757,3020.65979329299
-0.0380375627974733,3020.66979329299
-0.0452696420948578,3020.67979329299
-0.0528876394448329,3020.68979329299
-0.0610124385269934,3020.69979329299
-0.0688838147259239,3020.70979329299
-0.0774496673849601,3020.71979329299
-0.0857642966994172,3020.72979329299
-0.0939107817835974,3020.73979329299
-0.101987717852118,3020.74979329299
-0.110267893533655,3020.75979329299
-0.118355157592263,3020.76979329299
-0.125631881757436,3020.77979329299
-0.132636445489483,3020.78979329299
-0.139771809243396,3020.79979329299
-0.146632676207825,3020.80979329299
-0.154027295458803,3020.81979329299
-0.160966535983356,3020.82979329299
-0.167953536425845,3020.83979329299
-0.174765285495361,3020.84979329299
-0.180378655160712,3020.85979329299
-0.18421140096501,3020.86979329299
-0.184538620017985,3020.87979329299
-0.179453710627614,3020.88979329299
-0.168097594342315,3020.89979329299
-0.149012720252581,3020.90979329299
-0.122088979735071,3020.91979329299
-0.088313976088976,3020.92979329299
-0.0485638409638591,3020.93979329299
-0.00476658386012415,3020.94979329299
0.0408363560327533,3020.95979329299
0.0853819079504981,3020.96979329299
0.127884951651902,3020.97979329299
0.166693457854126,3020.98979329299
0.199751527641057,3020.99979329299
0.226713529522938,3021.00979329299
0.248071353192839,3021.01979329299
0.263460197588741,3021.02979329299
0.273547537239101,3021.03979329299
0.279729544148295,3021.04979329299
0.282955282100127,3021.05979329299
0.284373224065207,3021.06979329299
0.284476994802815,3021.07979329299
0.284727120004816,3021.08979329299
0.284676625111067,3021.09979329299
0.284425226123761,3021.10979329299
0.284024762614517,3021.11979329299
0.283051770092541,3021.12979329299
0.280927984850782,3021.13979329299
0.277630532708912,3021.14979329299
0.272493309674882,3021.15979329299
0.265708737755958,3021.16979329299
0.257713760119363,3021.17979329299
0.248934861800715,3021.18979329299
0.240529438201252,3021.19979329299
0.231895731837153,3021.20979329299
0.225019697811853,3021.21979329299
0.219706238931797,3021.22979329299
0.215315666297131,3021.23979329299
0.212829304601649,3021.24979329299
0.211854510883192,3021.25979329299
0.211409683474491,3021.26979329299
0.21251514630788,3021.27979329299
0.214746176510839,3021.28979329299
0.217448969671741,3021.29979329299
0.219859506807929,3021.30979329299
0.221753014188928,3021.31979329299
0.222835287918631,3021.32979329299
0.223572161852874,3021.33979329299
0.22286109596915,3021.34979329299
0.221335986322068,3021.35979329299
0.218857775042214,3021.36979329299
0.214669855897859,3021.37979329299
0.209981566044142,3021.38979329299
0.204673075952416,3021.39979329299
0.198635347818216,3021.40979329299
0.191475718259558,3021.41979329299
0.183582050902158,3021.42979329299
0.175605166923675,3021.43979329299
0.16696495902152,3021.44979329299
0.158342646096597,3021.45979329299
0.148782898877557,3021.46979329299
0.138780352684062,3021.47979329299
0.128698801195507,3021.48979329299
0.118632026968425,3021.49979329299
0.108729488477241,3021.50979329299
0.0992256002417226,3021.51979329299
0.0900770662560975,3021.52979329299
0.081092349506615,3021.53979329299
0.0722658004138981,3021.54979329299
0.0636285021133759,3021.55979329299
0.0547148485714519,3021.56979329299
0.0463284835885378,3021.57979329299
0.0385348738496667,3021.58979329299
0.0304039038234249,3021.59979329299
0.0225034744682908,3021.60979329299
0.0146145676483081,3021.61979329299
0.00641534518042939,3021.62979329299
-0.00171144155384395,3021.63979329299
-0.00984852077018147,3021.64979329299
-0.0179719620577061,3021.65979329299
-0.0263743846711342,3021.66979329299
-0.0348849380680723,3021.67979329299
-0.0434376850600231,3021.68979329299
-0.0517221290083926,3021.69979329299
-0.0603211788354299,3021.70979329299
-0.0688438997968748,3021.71979329299
-0.0772813684052403,3021.72979329299
-0.0859944483611881,3021.73979329299
-0.0938616239146926,3021.74979329299
-0.101648272789577,3021.75979329299
-0.109176484287871,3021.76979329299
-0.116779582689875,3021.77979329299
-0.124080078267411,3021.78979329299
-0.131407154040158,3021.79979329299
-0.138545234778276,3021.80979329299
-0.144708461747845,3021.81979329299
-0.149565522943828,3021.82979329299
-0.152166723501486,3021.83979329299
-0.151981242797601,3021.84979329299
-0.146811996139073,3021.85979329299
-0.135187788366059,3021.86979329299
-0.115544612155719,3021.87979329299
-0.0877975208964976,3021.88979329299
-0.052103289212124,3021.89979329299
-0.00953872726868017,3021.90979329299
0.0379034856526694,3021.91979329299
0.0881081545616861,3021.92979329299
0.138191819075131,3021.93979329299
0.186496084581309,3021.94979329299
0.231479128663021,3021.95979329299
0.270993114331735,3021.96979329299
0.304184651540641,3021.97979329299
0.33173888842032,3021.98979329299
0.352815793971545,3021.99979329299
0.369726902212984,3022.00979329299
0.381894642098237,3022.01979329299
0.390476953175473,3022.02979329299
0.396554496817798,3022.03979329299
0.400274688907117,3022.04979329299
0.402305046239663,3022.05979329299
0.403359799378965,3022.06979329299
0.404344782298091,3022.07979329299
0.404669692821133,3022.08979329299
0.404329754433358,3022.09979329299
0.403120466830031,3022.10979329299
0.399899758603826,3022.11979329299
0.395021422734592,3022.12979329299
0.387437832594288,3022.13979329299
0.378228649656929,3022.14979329299
0.367498418122639,3022.15979329299
0.356077527854049,3022.16979329299
0.344831167783249,3022.17979329299
0.335132679364494,3022.18979329299
0.32787417677629,3022.19979329299
0.322226602422989,3022.20979329299
0.318459922724477,3022.21979329299
0.316008511237982,3022.22979329299
0.314587422389289,3022.23979329299
0.314519510784734,3022.24979329299
0.315330605340275,3022.25979329299
0.317118435122597,3022.26979329299
0.319374450106025,3022.27979329299
0.321923138132918,3022.28979329299
0.323846178931899,3022.29979329299
0.324681136967229,3022.30979329299
0.32439192536743,3022.31979329299
0.322811680042387,3022.32979329299
0.319654032085616,3022.33979329299
0.315480523044468,3022.34979329299
0.30993859491211,3022.35979329299
0.30328256844955,3022.36979329299
0.296110156238617,3022.37979329299
0.28806008314685,3022.38979329299
0.279680127213173,3022.39979329299
0.270749973173115,3022.40979329299
0.261481147338215,3022.41979329299
0.25138240794174,3022.42979329299
0.240891236457468,3022.43979329299
0.229628087109973,3022.44979329299
0.218315981810029,3022.45979329299
0.207314609747307,3022.46979329299
0.195735525513157,3022.47979329299
0.184358884373155,3022.48979329299
0.17336356497099,3022.49979329299
0.16252628540692,3022.50979329299
0.151322559818777,3022.51979329299
0.140893466839056,3022.52979329299
0.130606757296532,3022.53979329299
0.120065390877279,3022.54979329299
0.110141454886975,3022.55979329299
0.099743194715589,3022.56979329299
0.0893369010810458,3022.57979329299
0.0789573755133478,3022.58979329299
0.0686723098222569,3022.59979329299
0.0584903969057549,3022.60979329299
0.0481950803714506,3022.61979329299
0.0383689654732806,3022.62979329299
0.029264018217046,3022.63979329299
0.0202791835870355,3022.64979329299
0.0114273283164069,3022.65979329299
0.00257793559346686,3022.66979329299
-0.00700058979812319,3022.67979329299
-0.0168529828177335,3022.68979329299
-0.0268331812959724,3022.69979329299
-0.0372471949984987,3022.70979329299
-0.0473645826251421,3022.71979329299
-0.0573024420561754,3022.72979329299
-0.067195529421268,3022.73979329299
-0.076982910371289,3022.74979329299
-0.0864099476060272,3022.75979329299
-0.0959198641704833,3022.76979329299
-0.105103683838875,3022.77979329299
-0.114164495782527,3022.78979329299
-0.122617363854761,3022.79979329299
-0.129199463768552,3022.80979329299
-0.133978204973193,3022.81979329299
-0.135600513867025,3022.82979329299
-0.131973788664548,3022.83979329299
-0.122619840724106,3022.84979329299
-0.105288473156958,3022.85979329299
-0.0799780655608648,3022.86979329299
-0.0465065958952187,3022.87979329299
-0.00555730563154177,3022.88979329299
0.0419520983798687,3022.89979329299
0.0932720083366451,3022.90979329299
0.146199641538268,3022.91979329299
0.198601803625197,3022.92979329299
0.248018425827763,3022.93979329299
0.291989548969319,3022.94979329299
0.329690677462592,3022.95979329299
0.359775798237968,3022.96979329299
0.383174996860695,3022.97979329299
0.40044710133684,3022.98979329299
0.411953284263114,3022.99979329299
0.419664450310223,3023.00979329299
0.424389215555871,3023.01979329299
0.427362560221586,3023.02979329299
0.428408406470819,3023.03979329299
0.428742591839544,3023.04979329299
0.428335329699887,3023.05979329299
0.42771748853084,3023.06979329299
0.426163520967111,3023.07979329299
0.423782663826611,3023.08979329299
0.420077139838597,3023.09979329299
0.413185745959745,3023.10979329299
0.40420867690493,3023.11979329299
0.393270040601999,3023.12979329299
0.380425382965832,3023.13979329299
0.367225483540706,3023.14979329299
0.354475394336096,3023.15979329299
0.342860976465303,3023.16979329299
0.333023862617352,3023.17979329299
0.325802061720598,3023.18979329299
0.320618626323293,3023.19979329299
0.317789368619631,3023.20979329299
0.317012046402441,3023.21979329299
0.318014569567198,3023.22979329299
0.320456664844359,3023.23979329299
0.324113307993271,3023.24979329299
0.328514289784196,3023.25979329299
0.333271060587631,3023.26979329299
0.337860378095021,3023.27979329299
0.34141772054685,3023.28979329299
0.343141707929838,3023.29979329299
0.343229876784455,3023.30979329299
0.341191846961537,3023.31979329299
0.337500512803239,3023.32979329299
0.332696296407689,3023.33979329299
0.325984925186654,3023.34979329299
0.317902264794929,3023.35979329299
0.308764124257143,3023.36979329299
0.299094204542902,3023.37979329299
0.288901951510333,3023.38979329299
0.278838410370349,3023.39979329299
0.269117672487536,3023.40979329299
0.259657246336582,3023.41979329299
0.249634032881467,3023.42979329299
0.239351853777509,3023.43979329299
0.228423607171098,3023.44979329299
0.216992871515494,3023.45979329299
0.205851742647995,3023.46979329299
0.194736118370023,3023.47979329299
0.184045777985007,3023.48979329299
0.1734884924879,3023.49979329299
0.163340819695941,3023.50979329299
0.153694039388459,3023.51979329299
0.14457646210293,3023.52979329299
0.135249162385881,3023.53979329299
0.125804113810538,3023.54979329299
0.115795740694512,3023.55979329299
0.10593808217353,3023.56979329299
0.0962790424544663,3023.57979329299
0.0863977984705099,3023.58979329299
0.0769590684961325,3023.59979329299
0.0675127504553057,3023.60979329299
0.0576750399288157,3023.61979329299
0.0478986661881842,3023.62979329299
0.0383373996702615,3023.63979329299
0.0291555080466735,3023.64979329299
0.0206006993386877,3023.65979329299
0.0114267957231098,3023.66979329299
0.00201147977805162,3023.67979329299
-0.00762958087600607,3023.68979329299
-0.0173728240432209,3023.69979329299
-0.0271966245086972,3023.70979329299
-0.0366158962059324,3023.71979329299
-0.0456123000861754,3023.72979329299
-0.0541178858762908,3023.73979329299
-0.0616927224082531,3023.74979329299
-0.0675057967951991,3023.75979329299
-0.0704828075276079,3023.76979329299
-0.0689839606088816,3023.77979329299
-0.0617029303239659,3023.78979329299
-0.0465413145065327,3023.79979329299
-0.0219840251402024,3023.80979329299
0.0112961374165639,3023.81979329299
0.0536426280942042,3023.82979329299
0.102768907928332,3023.83979329299
0.156685720636464,3023.84979329299
0.213112359545887,3023.85979329299
0.268664655495923,3023.86979329299
0.320882807901535,3023.87979329299
0.367550798282912,3023.88979329299
0.407620392190512,3023.89979329299
0.44010038892214,3023.90979329299
0.465465299353952,3023.91979329299
0.484363621696956,3023.92979329299
0.498044087062683,3023.93979329299
0.507273596505505,3023.94979329299
0.51304181663599,3023.95979329299
0.515880502239205,3023.96979329299
0.516288557964223,3023.97979329299
0.515499897606,3023.98979329299
0.513611738271746,3023.99979329299
0.510976137565929,3024.00979329299
0.508256695754481,3024.01979329299
0.504199951734485,3024.02979329299
0.498332767681587,3024.03979329299
0.48976384381282,3024.04979329299
0.478444035533774,3024.05979329299
0.465362357137988,3024.06979329299
0.451002681565305,3024.07979329299
0.436807588956716,3024.08979329299
0.423958593688412,3024.09979329299
0.41304974814521,3024.10979329299
0.404005646334045,3024.11979329299
0.397283034418772,3024.12979329299
0.393235157680493,3024.13979329299
0.390679647079975,3024.14979329299
0.390172858287346,3024.15979329299
0.39067255245832,3024.16979329299
0.391656451881003,3024.17979329299
0.393603572828164,3024.18979329299
0.395451951119961,3024.19979329299
0.397133178205003,3024.20979329299
0.398392536145531,3024.21979329299
0.399731130930201,3024.22979329299
0.400502355807247,3024.23979329299
0.400087148486384,3024.24979329299
0.398359803859216,3024.25979329299
0.394065117298079,3024.26979329299
0.387003412467345,3024.27979329299
0.37864231396587,3024.28979329299
0.368692794616171,3024.29979329299
0.357846663950345,3024.30979329299
0.346490285446765,3024.31979329299
0.334942580095947,3024.32979329299
0.323550959118374,3024.33979329299
0.312896490683308,3024.34979329299
0.301852853640448,3024.35979329299
0.290653679541554,3024.36979329299
0.279345637617871,3024.37979329299
0.267930523070148,3024.38979329299
0.256399692131053,3024.39979329299
0.245260339300637,3024.40979329299
0.234085452378804,3024.41979329299
0.223210895707148,3024.42979329299
0.213238643897895,3024.43979329299
0.203129063658834,3024.44979329299
0.19404282182885,3024.45979329299
0.184554160751425,3024.46979329299
0.174486531442545,3024.47979329299
0.164481796213865,3024.48979329299
0.153847462411881,3024.49979329299
0.143727984014351,3024.50979329299
0.133210991719057,3024.51979329299
0.122847214577781,3024.52979329299
0.112489535992764,3024.53979329299
0.102023337503076,3024.54979329299
0.0909421393369491,3024.55979329299
0.0795089253697649,3024.56979329299
0.0688223927314933,3024.57979329299
0.0580989285421403,3024.58979329299
0.0475380233050713,3024.59979329299
0.0367811201693655,3024.60979329299
0.0260048863894959,3024.61979329299
0.0153791649729247,3024.62979329299
0.00514881296369413,3024.63979329299
-0.00453348103350754,3024.64979329299
-0.013634012922378,3024.65979329299
-0.0223325511788386,3024.66979329299
-0.0301315473816998,3024.67979329299
-0.0379174864909019,3024.68979329299
-0.0458079914324217,3024.69979329299
-0.0527866043824193,3024.70979329299
-0.0580536375100235,3024.71979329299
-0.0603035790765798,3024.72979329299
-0.0565812112927736,3024.73979329299
-0.0451211234673185,3024.74979329299
-0.0239936466574218,3024.75979329299
0.00783677308329737,3024.76979329299
0.0502317447902028,3024.77979329299
0.101541251273021,3024.78979329299
0.159775494373488,3024.79979329299
0.222151432336119,3024.80979329299
0.286184533962309,3024.81979329299
0.348412400708314,3024.82979329299
0.406673669477605,3024.83979329299
0.458662445431589,3024.84979329299
0.50302187145714,3024.85979329299
0.539328996725851,3024.86979329299
0.56739657456207,3024.87979329299
0.587906276435262,3024.88979329299
0.602633826316998,3024.89979329299
0.612612762279303,3024.90979329299
0.619816484090053,3024.91979329299
0.625076254361614,3024.92979329299
0.627994225478551,3024.93979329299
0.62958772517085,3024.94979329299
0.630022127967746,3024.95979329299
0.62952562610715,3024.96979329299
0.628153101611425,3024.97979329299
0.626100828007748,3024.98979329299
0.622810400832629,3024.99979329299
0.617611777550741,3025.00979329299
0.609882088916227,3025.01979329299
0.599048439396684,3025.02979329299
0.586032533708822,3025.03979329299
0.571427119031258,3025.04979329299
0.556819439768537,3025.05979329299
0.543122096746685,3025.06979329299
0.531290837211986,3025.07979329299
0.521845176008092,3025.08979329299
0.514145059709172,3025.09979329299
0.507948373507016,3025.10979329299
0.502783476222352,3025.11979329299
0.498816831193476,3025.12979329299
0.496442424647755,3025.13979329299
0.495423969190063,3025.14979329299
0.495485287213559,3025.15979329299
0.49653125647879,3025.16979329299
0.496666345645948,3025.17979329299
0.496669486237568,3025.18979329299
0.49514182291705,3025.19979329299
0.492852317523102,3025.20979329299
0.489596284662745,3025.21979329299
0.485012713408084,3025.22979329299
0.478965610749595,3025.23979329299
0.470650746007955,3025.24979329299
0.46082626169808,3025.25979329299
0.449212473660651,3025.26979329299
0.436658868013491,3025.27979329299
0.423323320208838,3025.28979329299
0.409498709595823,3025.29979329299
0.395878930035222,3025.30979329299
0.381607508954706,3025.31979329299
0.367283992952447,3025.32979329299
0.353170262626853,3025.33979329299
0.339306271789869,3025.34979329299
0.32545436479411,3025.35979329299
0.311378520637902,3025.36979329299
0.297184829469276,3025.37979329299
0.282622903548302,3025.38979329299
0.267622497417347,3025.39979329299
0.253083757122976,3025.40979329299
0.238497641419506,3025.41979329299
0.224525061080727,3025.42979329299
0.21161092419939,3025.43979329299
0.199094428848065,3025.44979329299
0.186567625399069,3025.45979329299
0.17441261775033,3025.46979329299
0.162076419750505,3025.47979329299
0.149290962823296,3025.48979329299
0.137006985980159,3025.49979329299
0.124620115387938,3025.50979329299
0.112467682754426,3025.51979329299
0.100271228255784,3025.52979329299
0.0878160562151974,3025.53979329299
0.0759517333081131,3025.54979329299
0.0638114400733711,3025.55979329299
0.0510565449123102,3025.56979329299
0.038209289545633,3025.57979329299
0.0251608222184763,3025.58979329299
0.0124633057315866,3025.59979329299
-4.98829954655568e-05,3025.60979329299
-0.0125707600894492,3025.61979329299
-0.0244378936030027,3025.62979329299
-0.0360647497402508,3025.63979329299
-0.0468689471229114,3025.64979329299
-0.0576678361817359,3025.65979329299
-0.0683760980580514,3025.66979329299
-0.0786596641794964,3025.67979329299
-0.0894328746471337,3025.68979329299
-0.09980887271617,3025.69979329299
-0.109915353812883,3025.70979329299
-0.118455508998535,3025.71979329299
-0.124479989823971,3025.72979329299
-0.126122088546378,3025.73979329299
-0.120801805112678,3025.74979329299
-0.106828577324647,3025.75979329299
-0.0834497754636641,3025.76979329299
-0.0501335351871829,3025.77979329299
-0.00837419544507549,3025.78979329299
0.040349656054557,3025.79979329299
0.0934717888028641,3025.80979329299
0.148371321320886,3025.81979329299
0.203025865075912,3025.82979329299
0.254152186194471,3025.83979329299
0.299665645245999,3025.84979329299
0.338490839597601,3025.85979329299
0.369387427722337,3025.86979329299
0.392735923024073,3025.87979329299
0.408721590665318,3025.88979329299
0.41878876530997,3025.89979329299
0.424801919260301,3025.90979329299
0.426929575994093,3025.91979329299
0.42747181904186,3025.92979329299
0.426011252933255,3025.93979329299
0.423148763216346,3025.94979329299
0.419608923548637,3025.95979329299
0.415161260867545,3025.96979329299
0.410847652345102,3025.97979329299
0.406281654533755,3025.98979329299
0.401136873617926,3025.99979329299
0.394786234468984,3026.00979329299
0.386300558841649,3026.01979329299
0.375588125342908,3026.02979329299
0.362614032129518,3026.03979329299
0.347976758536772,3026.04979329299
0.332476037374436,3026.05979329299
0.316449258367231,3026.06979329299
0.301338236959277,3026.07979329299
0.287876567841411,3026.08979329299
0.276803176666918,3026.09979329299
0.267476328434174,3026.10979329299
0.260732957292401,3026.11979329299
0.256414879337664,3026.12979329299
0.254152426227416,3026.13979329299
0.253191177022786,3026.14979329299
0.253511028954605,3026.15979329299
0.254064383804281,3026.16979329299
0.254376322404644,3026.17979329299
0.253721106417906,3026.18979329299
0.25191154373487,3026.19979329299
0.24881713378525,3026.20979329299
0.244705175970632,3026.21979329299
0.239356119831342,3026.22979329299
0.233054780505354,3026.23979329299
0.225737385787243,3026.24979329299
0.216951718741056,3026.25979329299
0.206907952099624,3026.26979329299
0.195693928503378,3026.27979329299
0.18434891532952,3026.28979329299
0.172342506824755,3026.29979329299
0.160676802923068,3026.30979329299
0.148709219407678,3026.31979329299
0.13687712438504,3026.32979329299
0.124511554440515,3026.33979329299
0.111377310959935,3026.34979329299
0.0976679392028395,3026.35979329299
0.0831127393013346,3026.36979329299
0.068858355621213,3026.37979329299
0.0551848801405339,3026.38979329299
0.0420673174841513,3026.39979329299
0.0293503759208273,3026.40979329299
0.0171057283034285,3026.41979329299
0.00544953176080094,3026.42979329299
-0.0055147813831384,3026.43979329299
-0.016544959926126,3026.44979329299
-0.0281237949778086,3026.45979329299
-0.039955790681405,3026.46979329299
-0.0523740345750261,3026.47979329299
-0.0648265748659423,3026.48979329299
-0.0765250763527338,3026.49979329299
-0.0876298376860588,3026.50979329299
-0.0987581360003228,3026.51979329299
-0.109679625604556,3026.52979329299
-0.120978594567907,3026.53979329299
-0.131974002450464,3026.54979329299
-0.142538419063985,3026.55979329299
-0.153127351936825,3026.56979329299
-0.162787854729403,3026.57979329299
-0.17242743366033,3026.58979329299
-0.182578089058539,3026.59979329299
-0.192580001733355,3026.60979329299
-0.202500864364915,3026.61979329299
-0.2126475282047,3026.62979329299
-0.221974949585819,3026.63979329299
-0.230922579635929,3026.64979329299
-0.239748479302395,3026.65979329299
-0.248509132542806,3026.66979329299
-0.256777293146349,3026.67979329299
-0.265060535944236,3026.68979329299
-0.272838684147457,3026.69979329299
-0.28012007295699,3026.70979329299
-0.286602403918259,3026.71979329299
-0.293579881598785,3026.72979329299
-0.299670829160387,3026.73979329299
-0.303629598442915,3026.74979329299
-0.303264798606208,3026.75979329299
-0.296672814906534,3026.76979329299
-0.281459479754083,3026.77979329299
-0.257245036262156,3026.78979329299
-0.22479674641751,3026.79979329299
-0.184726548531777,3026.80979329299
-0.139218661264335,3026.81979329299
-0.0903629611012512,3026.82979329299
-0.0401526993408643,3026.83979329299
0.00864692769652869,3026.84979329299
0.0542925151525624,3026.85979329299
0.0943555599651299,3026.86979329299
0.127440083836169,3026.87979329299
0.153746693506658,3026.88979329299
0.172815919097983,3026.89979329299
0.185653686045738,3026.90979329299
0.193373023498566,3026.91979329299
0.197222323383165,3026.92979329299
0.196952213701718,3026.93979329299
0.193954029659666,3026.94979329299
0.18955304494116,3026.95979329299
0.184180175255137,3026.96979329299
0.178524598407133,3026.97979329299
0.172821675627627,3026.98979329299
0.167134732156313,3026.99979329299
0.160411108121542,3027.00979329299
0.152436969841576,3027.01979329299
0.14296012784244,3027.02979329299
0.131989875624517,3027.03979329299
0.119638869250138,3027.04979329299
0.106563813925981,3027.05979329299
0.0932624675830115,3027.06979329299
0.0805753271267983,3027.07979329299
0.069002668650603,3027.08979329299
0.0589072221659017,3027.09979329299
0.051421326804889,3027.10979329299
0.046227500758472,3027.11979329299
0.0443611342053781,3027.12979329299
0.0444161532689451,3027.13979329299
0.0461273060501372,3027.14979329299
0.0489013715435651,3027.15979329299
0.051458981029798,3027.16979329299
0.0543398060253225,3027.17979329299
0.0568013972702969,3027.18979329299
0.0594853602397357,3027.19979329299
0.0607654480739526,3027.20979329299
0.0607660363276421,3027.21979329299
0.05950425706336,3027.22979329299
0.0558155470574071,3027.23979329299
0.0514960595530335,3027.24979329299
0.046252448489991,3027.25979329299
0.0401802405145388,3027.26979329299
0.0333594849727691,3027.27979329299
0.0257332420215887,3027.28979329299
0.0167166023032774,3027.29979329299
0.00670962445563189,3027.30979329299
-0.00336619982986673,3027.31979329299
-0.0135235277777376,3027.32979329299
-0.0233161849881951,3027.33979329299
-0.0324123282362217,3027.34979329299
-0.0412034136776675,3027.35979329299
-0.0505878476483957,3027.36979329299
-0.0606798651754333,3027.37979329299
-0.07074288321293,3027.38979329299
-0.0805463022658294,3027.39979329299
-0.0897469306766747,3027.40979329299
-0.098119016393649,3027.41979329299
-0.106328588533182,3027.42979329299
-0.11469172434549,3027.43979329299
-0.123264643133939,3027.44979329299
-0.132046667708292,3027.45979329299
-0.141481844341613,3027.46979329299
-0.15061699380448,3027.47979329299
-0.159357701052697,3027.48979329299
-0.167253971120265,3027.49979329299
-0.176026291518141,3027.50979329299
-0.184888418092263,3027.51979329299
-0.193859164297492,3027.52979329299
-0.202920553204986,3027.53979329299
-0.211385741020078,3027.54979329299
-0.219628818983483,3027.55979329299
-0.228571991147839,3027.56979329299
-0.237644689267323,3027.57979329299
-0.246713841249389,3027.58979329299
-0.255495853222188,3027.59979329299
-0.264147951875712,3027.60979329299
-0.272270598051926,3027.61979329299
-0.28025556853571,3027.62979329299
-0.287857276304229,3027.63979329299
-0.295214515024745,3027.64979329299
-0.302023770501205,3027.65979329299
-0.309084394401539,3027.66979329299
-0.316183650032918,3027.67979329299
-0.322849742376407,3027.68979329299
-0.328913608889861,3027.69979329299
-0.334096126198575,3027.70979329299
-0.337675189968312,3027.71979329299
-0.338212815767232,3027.72979329299
-0.3337198494651,3027.73979329299
-0.322084020217306,3027.74979329299
-0.302058061616727,3027.75979329299
-0.273666159475154,3027.76979329299
-0.236775309653675,3027.77979329299
-0.193420343525729,3027.78979329299
-0.144648712797979,3027.79979329299
-0.0924896743043122,3027.80979329299
-0.0396790420471032,3027.81979329299
0.011782696770654,3027.82979329299
0.0594885143385681,3027.83979329299
0.100958148730357,3027.84979329299
0.135283987335784,3027.85979329299
0.162227243151876,3027.86979329299
0.182474581916444,3027.87979329299
0.196590801346616,3027.88979329299
0.206554218629816,3027.89979329299
0.212754117981283,3027.90979329299
0.215796530413016,3027.91979329299
0.216631886381171,3027.92979329299
0.215719034766141,3027.93979329299
0.213650877711527,3027.94979329299
0.211156696202094,3027.95979329299
0.208850085807724,3027.96979329299
0.207367534802566,3027.97979329299
0.204564287147124,3027.98979329299
0.200048163146424,3027.99979329299
0.193705028742037,3028.00979329299
0.185433967701846,3028.01979329299
