PPG,time
1596.18142667068,3689.14325782268
3156.53027583796,3689.15325782268
2766.9596319548,3689.16325782268
2958.50576119211,3689.17325782268
2810.60028986338,3689.18325782268
2857.50192240943,3689.19325782268
2766.59744519954,3689.20325782268
2728.93964871713,3689.21325782268
2619.99964607651,3689.22325782268
2552.15660195892,3689.23325782268
2451.0293506385,3689.24325782268
2390.54751795275,3689.25325782268
2346.39574695035,3689.26325782268
2319.26896247361,3689.27325782268
2302.03967965941,3689.28325782268
2269.6014127714,3689.29325782268
2245.31350895676,3689.30325782268
2209.29433091909,3689.31325782268
2176.23337001003,3689.32325782268
2152.32850723865,3689.33325782268
2127.0821480304,3689.34325782268
2091.52071541407,3689.35325782268
2055.18586144516,3689.36325782268
2008.10296300368,3689.37325782268
1960.24663911227,3689.38325782268
1918.97264468887,3689.39325782268
1900.16328794339,3689.40325782268
1890.5216575189,3689.41325782268
1868.37586637744,3689.42325782268
1860.01022737571,3689.43325782268
1854.43065307484,3689.44325782268
1856.87892171152,3689.45325782268
1867.45167717975,3689.46325782268
1872.78935717973,3689.47325782268
1866.00569816505,3689.48325782268
1850.67704132905,3689.49325782268
1835.80571124193,3689.50325782268
1820.81676559317,3689.51325782268
1794.9832681071,3689.52325782268
1751.481752586,3689.53325782268
1723.6159589726,3689.54325782268
1711.35589714288,3689.55325782268
1705.65430124445,3689.56325782268
1714.54359999135,3689.57325782268
1742.69428270768,3689.58325782268
1741.97774670698,3689.59325782268
1758.81688620118,3689.60325782268
1771.02790039783,3689.61325782268
1804.1731903987,3689.62325782268
1857.93466319244,3689.63325782268
1876.37443320984,3689.64325782268
1887.25141837641,3689.65325782268
1878.99237168094,3689.66325782268
1871.76818681698,3689.67325782268
1853.50706793294,3689.68325782268
1839.39295639471,3689.69325782268
1829.44078649793,3689.70325782268
1825.12268215963,3689.71325782268
1826.08760185237,3689.72325782268
1826.45580996118,3689.73325782268
1813.47699268165,3689.74325782268
1813.17944622171,3689.75325782268
1793.3884452061,3689.76325782268
1785.31092561828,3689.77325782268
1798.88037028614,3689.78325782268
1795.84075265266,3689.79325782268
1800.7540256794,3689.80325782268
1830.86371561581,3689.81325782268
1851.88084243902,3689.82325782268
1879.18228052569,3689.83325782268
1901.84843938764,3689.84325782268
1927.11682773517,3689.85325782268
1952.48351423912,3689.86325782268
1970.53741321343,3689.87325782268
1987.56978421745,3689.88325782268
2000.28090915179,3689.89325782268
2016.29844488691,3689.90325782268
2029.62404957335,3689.91325782268
2041.42031750215,3689.92325782268
2074.34389537156,3689.93325782268
2108.41367845617,3689.94325782268
2144.33617797467,3689.95325782268
2184.24536750209,3689.96325782268
2224.08380017987,3689.97325782268
2246.48729006385,3689.98325782268
2253.74202857567,3689.99325782268
2242.50994959482,3690.00325782268
2248.12470201294,3690.01325782268
2268.37239337652,3690.02325782268
2310.37550106606,3690.03325782268
2348.19359189587,3690.04325782268
2413.21838326592,3690.05325782268
2481.31874982061,3690.06325782268
2540.54270675399,3690.07325782268
2597.42823074354,3690.08325782268
2652.88734106156,3690.09325782268
2714.569910368,3690.10325782268
2802.42672697906,3690.11325782268
2907.14952068228,3690.12325782268
3012.36985465121,3690.13325782268
3112.92808643653,3690.14325782268
3201.95143656581,3690.15325782268
3275.40160766527,3690.16325782268
3302.39013610762,3690.17325782268
3301.32612983936,3690.18325782268
3300.64273253262,3690.19325782268
3302.72209812157,3690.20325782268
3283.95494141955,3690.21325782268
3274.53250424686,3690.22325782268
3294.1765275865,3690.23325782268
3290.17138021315,3690.24325782268
3282.35945166448,3690.25325782268
3254.68530866103,3690.26325782268
3221.19371767745,3690.27325782268
3173.20683938245,3690.28325782268
3125.39184992302,3690.29325782268
3073.13194536532,3690.30325782268
3025.11370440876,3690.31325782268
3000.10611310215,3690.32325782268
2953.00604122638,3690.33325782268
2898.52074842276,3690.34325782268
2825.594316632,3690.35325782268
2775.33319024798,3690.36325782268
2737.74519643992,3690.37325782268
2707.72324999585,3690.38325782268
2679.97905028525,3690.39325782268
2632.32646940517,3690.40325782268
2587.62070138836,3690.41325782268
2578.43439628658,3690.42325782268
2578.85837924974,3690.43325782268
2581.60104885502,3690.44325782268
2604.00514637952,3690.45325782268
2628.63792576453,3690.46325782268
2655.12860951704,3690.47325782268
2692.49804836453,3690.48325782268
2713.60615076634,3690.49325782268
2729.00087726798,3690.50325782268
2719.67794763599,3690.51325782268
2710.93680306044,3690.52325782268
2710.52810088177,3690.53325782268
2727.62135996222,3690.54325782268
2759.95351859612,3690.55325782268
2783.74360978325,3690.56325782268
2781.4222377415,3690.57325782268
2752.36172172613,3690.58325782268
2724.16915141302,3690.59325782268
2689.11325695996,3690.60325782268
2643.94656642247,3690.61325782268
2588.07184319822,3690.62325782268
2555.00028702224,3690.63325782268
2551.12994905026,3690.64325782268
2542.35586057405,3690.65325782268
2535.39238035761,3690.66325782268
2524.45710975813,3690.67325782268
2499.09148551514,3690.68325782268
2472.05730738931,3690.69325782268
2448.77178967726,3690.70325782268
2424.97963859345,3690.71325782268
2390.50778847694,3690.72325782268
2338.13071939498,3690.73325782268
2277.99829946363,3690.74325782268
2214.58528286581,3690.75325782268
2151.19254048847,3690.76325782268
2084.57626154571,3690.77325782268
2032.33932287555,3690.78325782268
1994.08688962422,3690.79325782268
1959.25630738377,3690.80325782268
1946.75164057557,3690.81325782268
1931.79535395826,3690.82325782268
1928.54052343217,3690.83325782268
1935.00429608016,3690.84325782268
1956.6996633879,3690.85325782268
1984.46481167588,3690.86325782268
2024.303404951,3690.87325782268
2067.85600348746,3690.88325782268
2099.99321738853,3690.89325782268
2118.36761619439,3690.90325782268
2121.86736396037,3690.91325782268
2120.70480355742,3690.92325782268
2121.16366897155,3690.93325782268
2121.12983866579,3690.94325782268
2109.5685182823,3690.95325782268
2106.41800945403,3690.96325782268
2107.39824253124,3690.97325782268
2117.94229978978,3690.98325782268
2122.64076807694,3690.99325782268
2115.91634996501,3691.00325782268
2105.71669522004,3691.01325782268
2108.2703589393,3691.02325782268
2101.73732571713,3691.03325782268
2078.50007155163,3691.04325782268
2076.65640517613,3691.05325782268
2080.36313883838,3691.06325782268
2125.69140438091,3691.07325782268
2163.62521758384,3691.08325782268
2193.3590498761,3691.09325782268
2194.77756778183,3691.10325782268
2195.37488488674,3691.11325782268
2193.52466252881,3691.12325782268
2200.30596368567,3691.13325782268
2210.45932399391,3691.14325782268
2236.32819649233,3691.15325782268
2278.54804466967,3691.16325782268
2342.43236017787,3691.17325782268
2430.78026532142,3691.18325782268
2539.44636837344,3691.19325782268
2653.77677940835,3691.20325782268
2772.44105940844,3691.21325782268
2880.52034515363,3691.22325782268
2968.52347221044,3691.23325782268
3022.77591911705,3691.24325782268
3054.14923057931,3691.25325782268
3071.46236589055,3691.26325782268
3081.13242794108,3691.27325782268
3079.97657862562,3691.28325782268
3077.34380862786,3691.29325782268
3042.41806465446,3691.30325782268
2991.66108950557,3691.31325782268
2954.22669728922,3691.32325782268
2925.65432868364,3691.33325782268
2905.76975820294,3691.34325782268
2890.10111987681,3691.35325782268
2887.52022153659,3691.36325782268
2888.85668420937,3691.37325782268
2883.86971380346,3691.38325782268
2856.67733234608,3691.39325782268
2810.90282367494,3691.40325782268
2747.86502370902,3691.41325782268
2697.09670789926,3691.42325782268
2646.05613860579,3691.43325782268
2592.31147737108,3691.44325782268
2544.50484221052,3691.45325782268
2483.86918395429,3691.46325782268
2424.76676553651,3691.47325782268
2358.834169452,3691.48325782268
2319.68687950179,3691.49325782268
2286.63548784419,3691.50325782268
2250.23146735065,3691.51325782268
2237.18678273563,3691.52325782268
2252.09154996009,3691.53325782268
2265.75448808458,3691.54325782268
2297.24135709543,3691.55325782268
2332.92763890141,3691.56325782268
2354.55340260137,3691.57325782268
2373.77642166865,3691.58325782268
2394.18025333193,3691.59325782268
2402.12404383892,3691.60325782268
2402.5792508964,3691.61325782268
2401.15845186835,3691.62325782268
2406.99517066379,3691.63325782268
2417.55805244019,3691.64325782268
2412.3711395041,3691.65325782268
2392.11318555641,3691.66325782268
2338.52841647409,3691.67325782268
2272.72918395808,3691.68325782268
2214.23702072016,3691.69325782268
2166.12840087245,3691.70325782268
2128.11889477789,3691.71325782268
2083.84439241224,3691.72325782268
2041.77806029944,3691.73325782268
2015.10283460717,3691.74325782268
1996.44066681617,3691.75325782268
1988.96179486383,3691.76325782268
1984.55537999243,3691.77325782268
1959.38154210956,3691.78325782268
1960.25128317582,3691.79325782268
1956.26428279678,3691.80325782268
1970.29029935572,3691.81325782268
2025.1407871601,3691.82325782268
2068.00911932565,3691.83325782268
2107.96017697224,3691.84325782268
2105.87706922448,3691.85325782268
2092.98103207309,3691.86325782268
2051.49269359117,3691.87325782268
2020.61619025248,3691.88325782268
2000.30834851602,3691.89325782268
1988.03253380546,3691.90325782268
1973.33815921399,3691.91325782268
1939.43081724712,3691.92325782268
1905.03219533229,3691.93325782268
1886.03881890959,3691.94325782268
1885.22417884719,3691.95325782268
1896.3915537477,3691.96325782268
1913.93491845823,3691.97325782268
1913.64149154539,3691.98325782268
1932.54261159254,3691.99325782268
1944.99543950761,3692.00325782268
1959.58249567091,3692.01325782268
1993.31153370136,3692.02325782268
2019.07950227628,3692.03325782268
2053.4610691536,3692.04325782268
2075.65363835802,3692.05325782268
2077.45800701982,3692.06325782268
2076.60502900944,3692.07325782268
2078.12528181031,3692.08325782268
2072.01883789173,3692.09325782268
2060.69397307379,3692.10325782268
2063.06342086895,3692.11325782268
2061.07676146988,3692.12325782268
2063.68558723962,3692.13325782268
2053.51142212844,3692.14325782268
2021.29807123262,3692.15325782268
1985.75663582361,3692.16325782268
1956.18693047692,3692.17325782268
1937.60021889612,3692.18325782268
1917.97979250652,3692.19325782268
1909.44753752172,3692.20325782268
1898.62112092134,3692.21325782268
1912.80912684263,3692.22325782268
1915.04919847225,3692.23325782268
1914.88486265814,3692.24325782268
1914.24418709003,3692.25325782268
1918.96780064602,3692.26325782268
1947.11895017129,3692.27325782268
1976.12472916699,3692.28325782268
2010.03818531274,3692.29325782268
2071.58189963786,3692.30325782268
2148.75209996907,3692.31325782268
2214.88877473364,3692.32325782268
2291.41908878366,3692.33325782268
2381.1228434971,3692.34325782268
2481.03489274632,3692.35325782268
2562.22961144773,3692.36325782268
2640.98185808803,3692.37325782268
2703.84835415836,3692.38325782268
2761.10482442383,3692.39325782268
2833.12445186243,3692.40325782268
2894.78214125363,3692.41325782268
2953.5925971353,3692.42325782268
2997.34307902848,3692.43325782268
3006.74244247749,3692.44325782268
3018.1887897907,3692.45325782268
3010.76350909986,3692.46325782268
2988.88569339558,3692.47325782268
2960.22230715079,3692.48325782268
2925.3527895438,3692.49325782268
2880.13806797847,3692.50325782268
2824.22027561265,3692.51325782268
2775.92121478369,3692.52325782268
2725.17028950128,3692.53325782268
2669.64529719285,3692.54325782268
2616.48015661241,3692.55325782268
2546.9220504466,3692.56325782268
2466.2195388622,3692.57325782268
2393.67234389838,3692.58325782268
2329.50047143742,3692.59325782268
2282.29808979074,3692.60325782268
2250.57314790753,3692.61325782268
2233.49488077975,3692.62325782268
2219.91694512162,3692.63325782268
2216.19735429377,3692.64325782268
2209.56406143748,3692.65325782268
2210.26897956795,3692.66325782268
2209.22996536095,3692.67325782268
2211.22339016407,3692.68325782268
2204.46629964657,3692.69325782268
2194.18747668484,3692.70325782268
2194.88599291693,3692.71325782268
2210.97915981356,3692.72325782268
2232.37990220992,3692.73325782268
2238.13770221616,3692.74325782268
2243.85865272693,3692.75325782268
2244.19437979112,3692.76325782268
2232.25568218597,3692.77325782268
2225.93486386441,3692.78325782268
2219.67737414313,3692.79325782268
2209.06010239818,3692.80325782268
2198.30015358232,3692.81325782268
2193.91347067022,3692.82325782268
2195.9308709085,3692.83325782268
2179.0033497302,3692.84325782268
2134.5058837407,3692.85325782268
2119.26292828382,3692.86325782268
2122.08386258563,3692.87325782268
2132.29848061433,3692.88325782268
2138.30411547196,3692.89325782268
2118.26588807864,3692.90325782268
2078.95524061414,3692.91325782268
2024.10856159526,3692.92325782268
1977.84949457139,3692.93325782268
1930.57828838324,3692.94325782268
1903.19798423904,3692.95325782268
1867.79813470831,3692.96325782268
1826.02819108937,3692.97325782268
1781.11291374417,3692.98325782268
1749.15264176278,3692.99325782268
1732.57132581702,3693.00325782268
1717.26775479377,3693.01325782268
1706.23530189142,3693.02325782268
1701.57329454947,3693.03325782268
1708.21758802073,3693.04325782268
1707.5070951551,3693.05325782268
1697.46372811689,3693.06325782268
1688.07743058604,3693.07325782268
1677.97438614104,3693.08325782268
1679.50012113845,3693.09325782268
1678.18223664686,3693.10325782268
1683.10923532954,3693.11325782268
1700.08523044659,3693.12325782268
1723.37257227293,3693.13325782268
1762.64400882173,3693.14325782268
1783.59337289605,3693.15325782268
1805.65189572186,3693.16325782268
1817.38701982946,3693.17325782268
1843.85715325555,3693.18325782268
1857.97943605645,3693.19325782268
1866.95098412126,3693.20325782268
1861.41747871371,3693.21325782268
1848.92773406249,3693.22325782268
1841.7502152675,3693.23325782268
1836.01215503147,3693.24325782268
1813.45729291812,3693.25325782268
1811.71404231673,3693.26325782268
1812.7066372912,3693.27325782268
1807.37349634086,3693.28325782268
1794.79668557727,3693.29325782268
1799.59430266196,3693.30325782268
1786.43455473235,3693.31325782268
1752.90476199875,3693.32325782268
1742.063552679,3693.33325782268
1719.68965529105,3693.34325782268
1705.82693439372,3693.35325782268
1725.15568765904,3693.36325782268
1767.5945766113,3693.37325782268
1812.19091762678,3693.38325782268
1832.64874776061,3693.39325782268
1841.38846227731,3693.40325782268
1840.2443904622,3693.41325782268
1844.91877878993,3693.42325782268
1874.06290269925,3693.43325782268
1901.25993572514,3693.44325782268
1953.18310609565,3693.45325782268
2026.24125894969,3693.46325782268
2084.9075215929,3693.47325782268
2146.42786708315,3693.48325782268
2229.25292543743,3693.49325782268
2301.00766177147,3693.50325782268
2379.9002395472,3693.51325782268
2470.889503656,3693.52325782268
2553.33516618322,3693.53325782268
2627.16758124412,3693.54325782268
2672.74574604907,3693.55325782268
2705.62188165362,3693.56325782268
2720.38721862959,3693.57325782268
2753.58475904585,3693.58325782268
2770.93855969684,3693.59325782268
2782.94058971868,3693.60325782268
2781.19289474957,3693.61325782268
2756.93136350712,3693.62325782268
2756.46401845031,3693.63325782268
2755.85448840018,3693.64325782268
2744.51345581177,3693.65325782268
2724.13165762616,3693.66325782268
2693.05798700308,3693.67325782268
2677.66626207678,3693.68325782268
2645.25859375799,3693.69325782268
2611.74571374726,3693.70325782268
2571.3820118346,3693.71325782268
2514.46972800194,3693.72325782268
2450.74009248529,3693.73325782268
2386.39444931418,3693.74325782268
2322.27322345532,3693.75325782268
2261.75478023345,3693.76325782268
2219.98838725146,3693.77325782268
2196.39443298464,3693.78325782268
2194.74050772803,3693.79325782268
2194.16579096833,3693.80325782268
2211.18116438636,3693.81325782268
2243.00516203351,3693.82325782268
2270.66425406736,3693.83325782268
2317.47957259442,3693.84325782268
2370.81568236883,3693.85325782268
2438.38400226827,3693.86325782268
2491.27417662044,3693.87325782268
2534.876559823,3693.88325782268
2555.7946811775,3693.89325782268
2587.960679461,3693.90325782268
2598.19882939213,3693.91325782268
2626.25271944673,3693.92325782268
2639.71624544453,3693.93325782268
2637.30144985105,3693.94325782268
2649.87966983088,3693.95325782268
2664.92806021599,3693.96325782268
2679.58297405704,3693.97325782268
2695.23557335197,3693.98325782268
2696.79177806105,3693.99325782268
2701.38777507042,3694.00325782268
2725.03493558972,3694.01325782268
2737.76188119676,3694.02325782268
2755.22320718941,3694.03325782268
2739.52914508366,3694.04325782268
2707.718791376,3694.05325782268
2667.69907897857,3694.06325782268
2632.86533119298,3694.07325782268
2610.53131320908,3694.08325782268
2594.55688055807,3694.09325782268
2582.59008347074,3694.10325782268
2557.46041495748,3694.11325782268
2510.14132568393,3694.12325782268
2459.75302931976,3694.13325782268
2418.92256216788,3694.14325782268
2404.58596979621,3694.15325782268
2388.28221564936,3694.16325782268
2399.76558613661,3694.17325782268
2412.15599778613,3694.18325782268
2426.32539202324,3694.19325782268
2463.93014902086,3694.20325782268
2505.66263242632,3694.21325782268
2533.60947446463,3694.22325782268
2545.98626498305,3694.23325782268
2549.87508653134,3694.24325782268
2536.9698629889,3694.25325782268
2517.95707059666,3694.26325782268
2498.29627894961,3694.27325782268
2477.44248576651,3694.28325782268
2463.14390915206,3694.29325782268
2460.37773612002,3694.30325782268
2461.57003158027,3694.31325782268
2448.24603237152,3694.32325782268
2445.61809441821,3694.33325782268
2433.71161428194,3694.34325782268
2418.39378753817,3694.35325782268
2400.02525823019,3694.36325782268
2356.34050837171,3694.37325782268
2324.74716688969,3694.38325782268
2310.2314839468,3694.39325782268
2331.43217348212,3694.40325782268
2358.53439066227,3694.41325782268
2408.28464880121,3694.42325782268
2445.78317568469,3694.43325782268
2446.29407126773,3694.44325782268
2417.51333344749,3694.45325782268
2371.05159942516,3694.46325782268
2334.90175905632,3694.47325782268
2293.31655825979,3694.48325782268
2270.94216179401,3694.49325782268
2268.36602748451,3694.50325782268
2268.9453037692,3694.51325782268
2268.56167944493,3694.52325782268
2271.95088787208,3694.53325782268
2306.19131013459,3694.54325782268
2346.2802406074,3694.55325782268
2389.50752997619,3694.56325782268
2469.45083540966,3694.57325782268
2557.10364461039,3694.58325782268
2650.57753191979,3694.59325782268
2744.31473091098,3694.60325782268
2825.87332134603,3694.61325782268
2897.02284015502,3694.62325782268
2946.52893299859,3694.63325782268
3010.3351510119,3694.64325782268
3058.7285422192,3694.65325782268
3132.71890073587,3694.66325782268
3190.59956244083,3694.67325782268
3210.97424500261,3694.68325782268
3206.6351194034,3694.69325782268
3158.50213238826,3694.70325782268
3119.2491802211,3694.71325782268
3052.76080531197,3694.72325782268
3002.31209589721,3694.73325782268
2958.56440488746,3694.74325782268
2896.47080103279,3694.75325782268
2826.3246290654,3694.76325782268
2755.44044596946,3694.77325782268
2699.71528445097,3694.78325782268
2649.10200420438,3694.79325782268
2625.52748506273,3694.80325782268
2605.56496824678,3694.81325782268
2587.11045102612,3694.82325782268
2562.10907581662,3694.83325782268
2541.98009083694,3694.84325782268
2533.59149313093,3694.85325782268
2546.15101493588,3694.86325782268
2550.1686811375,3694.87325782268
2544.46248012574,3694.88325782268
2516.87673222157,3694.89325782268
2499.39549126718,3694.90325782268
2484.72593801477,3694.91325782268
2470.12207031917,3694.92325782268
2443.62872316656,3694.93325782268
2424.57209841765,3694.94325782268
2414.79003736256,3694.95325782268
2420.46682967594,3694.96325782268
2424.72764895561,3694.97325782268
2419.28754673701,3694.98325782268
2411.06989490191,3694.99325782268
2396.96675420324,3695.00325782268
2381.06100680634,3695.01325782268
2370.96700953518,3695.02325782268
2372.71645831761,3695.03325782268
2370.99257746795,3695.04325782268
2376.61729703041,3695.05325782268
2392.67118579416,3695.06325782268
2418.3224649314,3695.07325782268
2449.90627350061,3695.08325782268
2462.9882056804,3695.09325782268
2456.0259205896,3695.10325782268
2428.92543467314,3695.11325782268
2398.03463532518,3695.12325782268
2370.47783557469,3695.13325782268
2337.62836557165,3695.14325782268
2317.24661506836,3695.15325782268
2278.531656666,3695.16325782268
2223.77383074052,3695.17325782268
2174.77348076616,3695.18325782268
2131.56800196665,3695.19325782268
2103.52661272777,3695.20325782268
2090.86869672677,3695.21325782268
2076.51443516036,3695.22325782268
2042.28051405519,3695.23325782268
2013.99332522864,3695.24325782268
2001.81055591311,3695.25325782268
1991.85639884593,3695.26325782268
1988.17290281693,3695.27325782268
1989.03508195565,3695.28325782268
1989.30035666914,3695.29325782268
1988.14092254407,3695.30325782268
2001.89258374918,3695.31325782268
1998.15915816922,3695.32325782268
1988.27297538382,3695.33325782268
1964.56886440814,3695.34325782268
1957.95572649051,3695.35325782268
1970.42287609404,3695.36325782268
1983.60561138494,3695.37325782268
2009.7820198547,3695.38325782268
2019.47846014432,3695.39325782268
2012.44806345394,3695.40325782268
2002.25002121767,3695.41325782268
1979.56905935889,3695.42325782268
1960.26332285938,3695.43325782268
1946.47963972764,3695.44325782268
1932.44106548041,3695.45325782268
1912.73029714595,3695.46325782268
1885.13932622514,3695.47325782268
1886.13724921119,3695.48325782268
1882.79792079243,3695.49325782268
1906.82039701615,3695.50325782268
1949.2132830682,3695.51325782268
1975.01160253833,3695.52325782268
2011.59438938435,3695.53325782268
2039.97735498659,3695.54325782268
2061.53306503488,3695.55325782268
2062.22974590455,3695.56325782268
2061.8479550314,3695.57325782268
2062.33482926595,3695.58325782268
2061.50269684245,3695.59325782268
2078.25478584744,3695.60325782268
2122.94716056066,3695.61325782268
2149.68775317265,3695.62325782268
2151.17557606887,3695.63325782268
2138.67074858137,3695.64325782268
2119.95218880428,3695.65325782268
2086.52153175175,3695.66325782268
2081.107022192,3695.67325782268
2108.17422830388,3695.68325782268
2144.59841973158,3695.69325782268
2183.0156901278,3695.70325782268
2240.81032889949,3695.71325782268
2304.88525582788,3695.72325782268
2366.79400029069,3695.73325782268
2439.96253846075,3695.74325782268
2490.01075581476,3695.75325782268
2539.27886532847,3695.76325782268
2603.26625700286,3695.77325782268
2680.254601705,3695.78325782268
2754.53867816,3695.79325782268
2805.3528276502,3695.80325782268
2850.00230974255,3695.81325782268
2859.4649038163,3695.82325782268
2871.61239271428,3695.83325782268
2874.82062607554,3695.84325782268
2862.14282849392,3695.85325782268
2842.57464077265,3695.86325782268
2807.33971304141,3695.87325782268
2750.11842509581,3695.88325782268
2691.14655309297,3695.89325782268
2642.56952278057,3695.90325782268
2593.15713112803,3695.91325782268
2547.1815760491,3695.92325782268
2532.20116213191,3695.93325782268
2523.42015203347,3695.94325782268
2518.25862135385,3695.95325782268
2521.55164579403,3695.96325782268
2514.30034655492,3695.97325782268
2491.78239781626,3695.98325782268
2477.40051645325,3695.99325782268
2474.36182503284,3696.00325782268
2487.1308136456,3696.01325782268
2494.68575058896,3696.02325782268
2523.00589786138,3696.03325782268
2547.78792052538,3696.04325782268
2548.98583739399,3696.05325782268
2549.38798353556,3696.06325782268
2533.32691270625,3696.07325782268
2488.06684608693,3696.08325782268
2450.21377200253,3696.09325782268
2420.10635611034,3696.10325782268
2415.91078812071,3696.11325782268
2411.69453094871,3696.12325782268
2400.43573078172,3696.13325782268
2402.87524578351,3696.14325782268
2389.21966768802,3696.15325782268
2386.47856126172,3696.16325782268
2387.38157742421,3696.17325782268
2386.44954852656,3696.18325782268
2403.16924718438,3696.19325782268
2432.02694916463,3696.20325782268
2424.42838042426,3696.21325782268
2405.8341082578,3696.22325782268
2370.73098893081,3696.23325782268
2345.43395970739,3696.24325782268
2309.43580781583,3696.25325782268
2263.68727067122,3696.26325782268
2248.91599063393,3696.27325782268
2237.53017755013,3696.28325782268
2216.53869135516,3696.29325782268
2180.16568589944,3696.30325782268
2143.25567744001,3696.31325782268
2098.25064756278,3696.32325782268
2053.78513993214,3696.33325782268
2001.59312162523,3696.34325782268
1974.55443826022,3696.35325782268
1977.94054890457,3696.36325782268
1995.17249410691,3696.37325782268
2003.05067883454,3696.38325782268
2003.52860607286,3696.39325782268
1998.68344274723,3696.40325782268
1971.57776596331,3696.41325782268
1940.21805346982,3696.42325782268
1929.10858836136,3696.43325782268
1929.7784086777,3696.44325782268
1934.11393839023,3696.45325782268
1957.96891645907,3696.46325782268
1958.55286473945,3696.47325782268
1971.68840408355,3696.48325782268
1974.21824622511,3696.49325782268
1974.0613008986,3696.50325782268
1961.50991231826,3696.51325782268
1958.5548996282,3696.52325782268
1958.58222627191,3696.53325782268
1963.68471499643,3696.54325782268
1998.80062154894,3696.55325782268
2007.91771885893,3696.56325782268
2032.47253830965,3696.57325782268
2031.00795312278,3696.58325782268
2051.80340065201,3696.59325782268
2064.29107750546,3696.60325782268
2060.99930918842,3696.61325782268
2062.62214168312,3696.62325782268
2061.90856632116,3696.63325782268
2061.95218617208,3696.64325782268
2062.59153683143,3696.65325782268
2061.08693901594,3696.66325782268
2064.19971581964,3696.67325782268
2052.25035746018,3696.68325782268
2027.20197122165,3696.69325782268
1996.9288485848,3696.70325782268
1953.12328566342,3696.71325782268
1932.66268525616,3696.72325782268
1904.37322408144,3696.73325782268
1886.91492641437,3696.74325782268
1860.82709062075,3696.75325782268
1842.18945627389,3696.76325782268
1818.03765054619,3696.77325782268
1816.73403458704,3696.78325782268
1824.06001810496,3696.79325782268
1825.80295082024,3696.80325782268
1838.18423702975,3696.81325782268
1844.67598215243,3696.82325782268
1875.27986757398,3696.83325782268
1895.57448192645,3696.84325782268
1923.27884069548,3696.85325782268
1956.98253251874,3696.86325782268
1979.77548975587,3696.87325782268
2010.74109258143,3696.88325782268
2034.133497437,3696.89325782268
2096.68199280398,3696.90325782268
2203.89995770934,3696.91325782268
2342.97668035531,3696.92325782268
2475.12485242493,3696.93325782268
2570.63841959834,3696.94325782268
2635.03328429537,3696.95325782268
2689.3370221562,3696.96325782268
2737.9900158873,3696.97325782268
2754.79800568715,3696.98325782268
2752.31209768874,3696.99325782268
2735.83477211371,3697.00325782268
2720.4027620137,3697.01325782268
2699.64090643938,3697.02325782268
2680.19333750909,3697.03325782268
2648.97704955973,3697.04325782268
2608.69580873423,3697.05325782268
2570.92481854799,3697.06325782268
2525.59317501516,3697.07325782268
2483.06161167546,3697.08325782268
2423.86566633264,3697.09325782268
2363.46493259636,3697.10325782268
2315.51042843528,3697.11325782268
2278.77560716294,3697.12325782268
2243.347845472,3697.13325782268
2203.38645147536,3697.14325782268
2171.46352265446,3697.15325782268
2135.63024877648,3697.16325782268
2140.66987996203,3697.17325782268
2153.43119570392,3697.18325782268
2144.34422111774,3697.19325782268
2136.67577373874,3697.20325782268
2103.70005301017,3697.21325782268
2055.09003342327,3697.22325782268
2034.70385933584,3697.23325782268
2030.54053173166,3697.24325782268
2051.58346228193,3697.25325782268
2064.82280320166,3697.26325782268
2071.58562953671,3697.27325782268
2096.58442430632,3697.28325782268
2118.14970984319,3697.29325782268
2138.99356405168,3697.30325782268
2152.23548073652,3697.31325782268
2142.36500352943,3697.32325782268
2153.3572095473,3697.33325782268
2145.03454393545,3697.34325782268
2135.51504469931,3697.35325782268
2136.03719835618,3697.36325782268
2136.57958299796,3697.37325782268
2131.76118090828,3697.38325782268
2115.43231776551,3697.39325782268
2102.48277102798,3697.40325782268
2085.73978870574,3697.41325782268
2076.31634338952,3697.42325782268
2077.32647645975,3697.43325782268
2076.71168556491,3697.44325782268
2077.25002070688,3697.45325782268
2076.68092109038,3697.46325782268
2077.28036419034,3697.47325782268
2064.52777412,3697.48325782268
2061.32867213756,3697.49325782268
2062.27580064245,3697.50325782268
2061.78420416886,3697.51325782268
2062.04819527067,3697.52325782268
2061.9488937283,3697.53325782268
2061.91370107498,3697.54325782268
2062.1077366448,3697.55325782268
2061.72670828672,3697.56325782268
2062.50290468447,3697.57325782268
2073.18340546108,3697.58325782268
2106.58866103451,3697.59325782268
2127.41699794368,3697.60325782268
2140.99901853352,3697.61325782268
2164.94206703447,3697.62325782268
2162.22830302127,3697.63325782268
2144.1302543691,3697.64325782268
2136.06000517899,3697.65325782268
2123.28260425878,3697.66325782268
2133.15754298793,3697.67325782268
2163.05819640301,3697.68325782268
2221.76233697298,3697.69325782268
2273.69462844537,3697.70325782268
2301.67885084171,3697.71325782268
2310.37299498908,3697.72325782268
2291.79403911408,3697.73325782268
2279.19870666431,3697.74325782268
2255.01011677878,3697.75325782268
2242.2459980564,3697.76325782268
2226.25348531484,3697.77325782268
2248.86268014874,3697.78325782268
2279.15492297191,3697.79325782268
2300.73529880889,3697.80325782268
2330.9567497329,3697.81325782268
2360.83602021086,3697.82325782268
2397.24085894442,3697.83325782268
2418.70494972369,3697.84325782268
2433.84020237272,3697.85325782268
2412.89851851929,3697.86325782268
2400.6874800459,3697.87325782268
2390.73888878806,3697.88325782268
2384.97715315253,3697.89325782268
2392.5157903843,3697.90325782268
2417.63654397249,3697.91325782268
2453.81694775852,3697.92325782268
2497.5589742351,3697.93325782268
2555.84805569791,3697.94325782268
2582.74710925494,3697.95325782268
2569.41369336007,3697.96325782268
2521.80463286426,3697.97325782268
2464.10704466973,3697.98325782268
2458.91911187537,3697.99325782268
2503.44113696088,3698.00325782268
2572.51815061474,3698.01325782268
2666.54980389967,3698.02325782268
2752.4227782586,3698.03325782268
2850.34980468509,3698.04325782268
2948.73473331884,3698.05325782268
3030.63523901167,3698.06325782268
3109.6756272408,3698.07325782268
3158.82591180929,3698.08325782268
3216.12545905252,3698.09325782268
3256.0959635794,3698.10325782268
3284.58571533621,3698.11325782268
3302.6874296535,3698.12325782268
3297.05116925049,3698.13325782268
3257.17500173327,3698.14325782268
3224.24200135274,3698.15325782268
3195.27142143801,3698.16325782268
3169.56996124724,3698.17325782268
3169.85061694647,3698.18325782268
3156.02191230938,3698.19325782268
3154.58625149281,3698.20325782268
3149.54578704292,3698.21325782268
3134.02057126465,3698.22325782268
3103.59415764834,3698.23325782268
3055.42228383256,3698.24325782268
3006.61709468048,3698.25325782268
2968.8550690989,3698.26325782268
2912.9878561942,3698.27325782268
2860.12481505011,3698.28325782268
2792.81095710852,3698.29325782268
2724.51022148619,3698.30325782268
2666.26286874875,3698.31325782268
2595.57093039757,3698.32325782268
2545.55170363262,3698.33325782268
2537.76697969206,3698.34325782268
2550.36775392628,3698.35325782268
2548.6809685696,3698.36325782268
2544.98639210992,3698.37325782268
2528.25987104682,3698.38325782268
2515.09886651224,3698.39325782268
2487.55512474393,3698.40325782268
2468.42496792969,3698.41325782268
2472.3389584553,3698.42325782268
2475.43973906823,3698.43325782268
2475.09771714612,3698.44325782268
2463.27910101151,3698.45325782268
2461.01100139324,3698.46325782268
2445.0599752478,3698.47325782268
2423.52948971589,3698.48325782268
2416.23384973009,3698.49325782268
2404.2468350217,3698.50325782268
2389.95479720275,3698.51325782268
2382.11418469254,3698.52325782268
2366.58045905372,3698.53325782268
2340.75257379158,3698.54325782268
2306.24754557954,3698.55325782268
2259.33735419014,3698.56325782268
2221.99429163926,3698.57325782268
2187.6465028017,3698.58325782268
2145.99107784935,3698.59325782268
2122.8472777871,3698.60325782268
2109.46816412541,3698.61325782268
2116.67954438012,3698.62325782268
2139.47619278634,3698.63325782268
2152.31723157872,3698.64325782268
2162.40224404241,3698.65325782268
2167.57279699212,3698.66325782268
2164.40374745628,3698.67325782268
2171.00735692163,3698.68325782268
2158.22062229995,3698.69325782268
2131.71424161384,3698.70325782268
2108.71240352527,3698.71325782268
2094.44028615356,3698.72325782268
2091.22027325533,3698.73325782268
2080.45684773553,3698.74325782268
2063.10965881413,3698.75325782268
2062.96506043973,3698.76325782268
2057.07544162013,3698.77325782268
2032.18759427686,3698.78325782268
2021.88178036866,3698.79325782268
2027.05838641293,3698.80325782268
2044.44051781334,3698.81325782268
2063.31022579072,3698.82325782268
2061.67228714237,3698.83325782268
2073.55457533898,3698.84325782268
2082.77157747619,3698.85325782268
2092.94120998387,3698.86325782268
2103.52697031032,3698.87325782268
2122.80166909289,3698.88325782268
2147.26440486839,3698.89325782268
2156.5127539116,3698.90325782268
2135.46089317276,3698.91325782268
2142.05417829681,3698.92325782268
2126.99645564327,3698.93325782268
2119.482323316,3698.94325782268
2121.58398626699,3698.95325782268
2121.01843400392,3698.96325782268
2120.21339773852,3698.97325782268
2125.90776280037,3698.98325782268
2125.44160349997,3698.99325782268
2118.49722965046,3699.00325782268
2126.94678312119,3699.01325782268
2136.74897292224,3699.02325782268
2135.54813150581,3699.03325782268
2136.43753549625,3699.04325782268
2135.15735955158,3699.05325782268
2128.45864766481,3699.06325782268
2140.40291925943,3699.07325782268
2157.39432390647,3699.08325782268
2166.3690523705,3699.09325782268
2166.0737408602,3699.10325782268
2165.54039506203,3699.11325782268
2178.07883072741,3699.12325782268
2176.4482725676,3699.13325782268
2159.79898360255,3699.14325782268
2133.91011184373,3699.15325782268
2117.25278923923,3699.16325782268
2151.98513744696,3699.17325782268
2181.57129865783,3699.18325782268
2234.39317968002,3699.19325782268
2317.76337839715,3699.20325782268
2402.62652221325,3699.21325782268
2490.6608083519,3699.22325782268
2577.11367625585,3699.23325782268
2678.00454220303,3699.24325782268
2747.81040357701,3699.25325782268
2789.65011040071,3699.26325782268
2816.99801586266,3699.27325782268
2847.92600282629,3699.28325782268
2864.36277779091,3699.29325782268
2891.49420620003,3699.30325782268
2904.93168239253,3699.31325782268
2890.24810413474,3699.32325782268
2884.6271065673,3699.33325782268
2855.06059773254,3699.34325782268
2831.58154266767,3699.35325782268
2812.68740498301,3699.36325782268
2782.30223820848,3699.37325782268
2763.14250291144,3699.38325782268
2760.31616094892,3699.39325782268
2771.52481465977,3699.40325782268
2754.75127030241,3699.41325782268
2705.37190632168,3699.42325782268
2651.00391446631,3699.43325782268
2603.88686042907,3699.44325782268
2557.29234261586,3699.45325782268
2538.2228716473,3699.46325782268
2515.57535278317,3699.47325782268
2493.01260836023,3699.48325782268
2471.87670286339,3699.49325782268
2460.48444255774,3699.50325782268
2444.18346402073,3699.51325782268
2416.71270091408,3699.52325782268
2412.7266845985,3699.53325782268
2395.07229451523,3699.54325782268
2362.82575075811,3699.55325782268
2339.58471471667,3699.56325782268
2310.40439581751,3699.57325782268
2291.248928187,3699.58325782268
2287.19182566031,3699.59325782268
2304.63437298489,3699.60325782268
2325.21283591659,3699.61325782268
2329.67765434571,3699.62325782268
2322.4289612552,3699.63325782268
2312.0550110554,3699.64325782268
2313.44023860755,3699.65325782268
2312.85463808738,3699.66325782268
2312.81803157816,3699.67325782268
2317.08197170899,3699.68325782268
2331.24861878285,3699.69325782268
2308.98833655943,3699.70325782268
2298.38981460243,3699.71325782268
2289.77794033788,3699.72325782268
2261.06404081908,3699.73325782268
2242.42586762835,3699.74325782268
2226.02656970267,3699.75325782268
2198.80960265449,3699.76325782268
2149.62902991222,3699.77325782268
2093.24454339413,3699.78325782268
2030.41676483455,3699.79325782268
1972.31726070638,3699.80325782268
1921.03647106977,3699.81325782268
1896.25174158865,3699.82325782268
1918.22576218431,3699.83325782268
1946.47853325837,3699.84325782268
1989.21562048218,3699.85325782268
2009.16577365502,3699.86325782268
2019.62064775411,3699.87325782268
2012.20077704075,3699.88325782268
2002.51902020484,3699.89325782268
2002.30647934267,3699.90325782268
2007.96446506231,3699.91325782268
2022.4576715501,3699.92325782268
2043.47583750924,3699.93325782268
2067.86044926365,3699.94325782268
2095.13108179226,3699.95325782268
2108.58927235867,3699.96325782268
2106.8409630052,3699.97325782268
2091.24879317326,3699.98325782268
2058.37201163859,3699.99325782268
2025.25853585889,3700.00325782268
1978.26302454392,3700.01325782268
1934.678091843,3700.02325782268
1900.00502553098,3700.03325782268
1878.70658762301,3700.04325782268
1853.97678173608,3700.05325782268
1825.92541759648,3700.06325782268
1827.47155772821,3700.07325782268
1820.54195413614,3700.08325782268
1811.24900273778,3700.09325782268
1812.05383694268,3700.10325782268
1812.00638679154,3700.11325782268
1799.56781491422,3700.12325782268
1796.41100492255,3700.13325782268
1796.76620301646,3700.14325782268
1800.86113548884,3700.15325782268
1818.24281080869,3700.16325782268
1826.28587141423,3700.17325782268
1825.96903261369,3700.18325782268
1825.86022264913,3700.19325782268
1826.27510286235,3700.20325782268
1825.27129295447,3700.21325782268
1830.35138977782,3700.22325782268
1847.13455583836,3700.23325782268
1869.09243857429,3700.24325782268
1871.32157522693,3700.25325782268
1871.07841623365,3700.26325782268
1870.90239720881,3700.27325782268
1882.5895464658,3700.28325782268
1885.74788380223,3700.29325782268
1896.49539703751,3700.30325782268
1890.23192063089,3700.31325782268
1874.69539850351,3700.32325782268
1849.55436456949,3700.33325782268
1836.48946417704,3700.34325782268
1808.49286885398,3700.35325782268
1791.55966663478,3700.36325782268
1790.88310205741,3700.37325782268
1808.69676819367,3700.38325782268
1826.0471423528,3700.39325782268
1842.72576852482,3700.40325782268
1869.84783482946,3700.41325782268
1897.72634915036,3700.42325782268
1962.05089682451,3700.43325782268
2028.51971167531,3700.44325782268
2114.88771318185,3700.45325782268
2204.85109293669,3700.46325782268
2298.70990228989,3700.47325782268
2384.51981762501,3700.48325782268
2490.78683293968,3700.49325782268
2572.36308868059,3700.50325782268
2614.60279772571,3700.51325782268
2666.75344807259,3700.52325782268
2719.99735023414,3700.53325782268
2788.52219769417,3700.54325782268
2835.50397859437,3700.55325782268
2844.79572470294,3700.56325782268
2828.49707831086,3700.57325782268
2783.94002978561,3700.58325782268
2753.41474809333,3700.59325782268
2734.1996964565,3700.60325782268
2714.91845878979,3700.61325782268
2690.28776641515,3700.62325782268
2643.61953776441,3700.63325782268
2600.02455170312,3700.64325782268
2536.20252456228,3700.65325782268
2485.56180430152,3700.66325782268
2432.82878466955,3700.67325782268
2362.08754381385,3700.68325782268
2297.66405322174,3700.69325782268
2237.75125303087,3700.70325782268
2183.11546414993,3700.71325782268
2130.54052772568,3700.72325782268
2082.80186112462,3700.73325782268
2042.88505687033,3700.74325782268
2001.38804112671,3700.75325782268
1963.62208032847,3700.76325782268
1929.71582974139,3700.77325782268
1896.31325869493,3700.78325782268
1867.21865301646,3700.79325782268
1842.55535945933,3700.80325782268
1824.93474376498,3700.81325782268
1804.5261296902,3700.82325782268
1796.95727182784,3700.83325782268
1796.6658910293,3700.84325782268
1820.57094020999,3700.85325782268
1839.84325115669,3700.86325782268
1852.73563601804,3700.87325782268
1869.8633725331,3700.88325782268
1881.23804222717,3700.89325782268
1903.61680123218,3700.90325782268
1915.77643620441,3700.91325782268
1919.14387181088,3700.92325782268
1943.6271086399,3700.93325782268
1943.27628720931,3700.94325782268
1945.30811124912,3700.95325782268
1927.8335966409,3700.96325782268
1896.86425148068,3700.97325782268
1867.54341177396,3700.98325782268
1842.04053204364,3700.99325782268
1829.57996760735,3701.00325782268
1820.46239511803,3701.01325782268
1798.97943081465,3701.02325782268
1784.46537589722,3701.03325782268
1781.0440752406,3701.04325782268
1782.71148510511,3701.05325782268
1768.84624504016,3701.06325782268
1756.11707054169,3701.07325782268
1735.09586174628,3701.08325782268
1721.07256575556,3701.09325782268
1724.25514106289,3701.10325782268
1721.62445271905,3701.11325782268
1727.9346223915,3701.12325782268
1743.30407585803,3701.13325782268
1758.46238467046,3701.14325782268
1768.19473050524,3701.15325782268
1766.06338534616,3701.16325782268
1757.05238948159,3701.17325782268
1722.81853799308,3701.18325782268
1690.24505609872,3701.19325782268
1649.42019200443,3701.20325782268
1627.97799114873,3701.21325782268
1592.06352380612,3701.22325782268
1542.73291183592,3701.23325782268
1507.7040770083,3701.24325782268
1482.10477193712,3701.25325782268
1479.07578039847,3701.26325782268
1526.63379677905,3701.27325782268
1575.6916441284,3701.28325782268
1609.26366152313,3701.29325782268
1621.51550504659,3701.30325782268
1615.20210835754,3701.31325782268
1587.80968035613,3701.32325782268
1569.45572630072,3701.33325782268
1548.49663677927,3701.34325782268
1544.6544502584,3701.35325782268
1550.81009288632,3701.36325782268
1566.60068071514,3701.37325782268
1588.86521776282,3701.38325782268
1589.20593055428,3701.39325782268
1591.93032160886,3701.40325782268
1580.20388412582,3701.41325782268
1569.86951088527,3701.42325782268
1583.0318344742,3701.43325782268
1601.68669000626,3701.44325782268
1630.74996182875,3701.45325782268
1649.88521684736,3701.46325782268
1673.72589813875,3701.47325782268
1679.50707160175,3701.48325782268
1680.39681715791,3701.49325782268
1695.60817099519,3701.50325782268
1708.92450537445,3701.51325782268
1738.17360012637,3701.52325782268
1751.96467124028,3701.53325782268
1803.92571402268,3701.54325782268
1855.90997594796,3701.55325782268
1894.34904828598,3701.56325782268
1929.57742133912,3701.57325782268
1940.61245423079,3701.58325782268
1960.48729739828,3701.59325782268
1985.08701937416,3701.60325782268
2016.93767661021,3701.61325782268
2029.71189704023,3701.62325782268
2060.32416594953,3701.63325782268
2104.87437023954,3701.64325782268
2183.55430570646,3701.65325782268
2261.00372223492,3701.66325782268
2356.79798326259,3701.67325782268
2468.22782073934,3701.68325782268
2561.05836952103,3701.69325782268
2669.20631665179,3701.70325782268
2758.89518312082,3701.71325782268
2850.64032010289,3701.72325782268
2925.35466259746,3701.73325782268
2983.53742896331,3701.74325782268
3021.40573059605,3701.75325782268
3045.01341185452,3701.76325782268
3053.33729983467,3701.77325782268
3049.94814214272,3701.78325782268
3051.96683446007,3701.79325782268
3053.57242089894,3701.80325782268
3073.52141973397,3701.81325782268
3074.12365633332,3701.82325782268
3069.23336106935,3701.83325782268
3093.7299527244,3701.84325782268
3096.00763242608,3701.85325782268
3090.24185222522,3701.86325782268
3075.86595232481,3701.87325782268
3039.79206902183,3701.88325782268
2968.01214053572,3701.89325782268
2921.99869824115,3701.90325782268
2913.48422675621,3701.91325782268
2896.89640708989,3701.92325782268
2884.2701494476,3701.93325782268
2828.03726883964,3701.94325782268
2758.99785601368,3701.95325782268
2684.8863554958,3701.96325782268
2616.25434843054,3701.97325782268
2569.04451281471,3701.98325782268
2534.35935937809,3701.99325782268
2522.84312528888,3702.00325782268
2506.59971881481,3702.01325782268
2504.54168120925,3702.02325782268
2505.16500235202,3702.03325782268
2516.50704969562,3702.04325782268
2532.9910895058,3702.05325782268
2532.6390469895,3702.06325782268
2539.810159606,3702.07325782268
2548.89588591823,3702.08325782268
2554.01200408067,3702.09325782268
2576.96892777109,3702.10325782268
2594.89609900338,3702.11325782268
2614.83871267879,3702.12325782268
2623.83764779961,3702.13325782268
2609.99947195327,3702.14325782268
2596.8761068944,3702.15325782268
2571.99998695406,3702.16325782268
2540.64666703878,3702.17325782268
2523.99996309862,3702.18325782268
2513.64159155916,3702.19325782268
2492.85868502761,3702.20325782268
2473.10799940907,3702.21325782268
2442.75912879181,3702.22325782268
2413.18796001958,3702.23325782268
2384.62255520197,3702.24325782268
2349.64398508445,3702.25325782268
2307.89474142543,3702.26325782268
2297.06858550095,3702.27325782268
2290.30394095636,3702.28325782268
2303.81425306775,3702.29325782268
2325.38974110841,3702.30325782268
2333.15051728884,3702.31325782268
2344.80727490289,3702.32325782268
2338.05571038377,3702.33325782268
2310.41613531306,3702.34325782268
2268.62400072195,3702.35325782268
2234.85764843541,3702.36325782268
2212.31189071999,3702.37325782268
2193.45837146487,3702.38325782268
2172.87375875576,3702.39325782268
2166.42248408619,3702.40325782268
2152.93656549168,3702.41325782268
2151.58463096311,3702.42325782268
2145.65088694225,3702.43325782268
2138.40854569943,3702.44325782268
2158.65901593244,3702.45325782268
2165.26882277544,3702.46325782268
2167.53608260439,3702.47325782268
2148.43234680007,3702.48325782268
2130.60232567609,3702.49325782268
2091.38625521166,3702.50325782268
2062.72235464484,3702.51325782268
2061.64842591868,3702.52325782268
2063.20320072397,3702.53325782268
2056.57547407372,3702.54325782268
2033.57628704902,3702.55325782268
2028.04534468828,3702.56325782268
2016.86697809649,3702.57325782268
2029.92240832684,3702.58325782268
2038.14515056165,3702.59325782268
2062.58604979352,3702.60325782268
2073.555773378,3702.61325782268
2090.73421580265,3702.62325782268
2091.62414613291,3702.63325782268
2092.99397025836,3702.64325782268
2075.26396068877,3702.65325782268
2055.98597560489,3702.66325782268
2028.91839174652,3702.67325782268
2000.56391694454,3702.68325782268
1982.65218161504,3702.69325782268
1973.3080692129,3702.70325782268
1973.9746745497,3702.71325782268
1977.36313457327,3702.72325782268
1995.90991458752,3702.73325782268
2001.66988015854,3702.74325782268
2008.8974732218,3702.75325782268
2014.1518242239,3702.76325782268
2000.46286471052,3702.77325782268
2004.68461809084,3702.78325782268
2000.65961648959,3702.79325782268
2033.53103199766,3702.80325782268
2091.46795528364,3702.81325782268
2160.90724433443,3702.82325782268
2233.04185485176,3702.83325782268
2294.91256793239,3702.84325782268
2360.92073603705,3702.85325782268
2433.82863613583,3702.86325782268
2513.80880364847,3702.87325782268
2598.06394806144,3702.88325782268
2682.24168786568,3702.89325782268
2761.12691045355,3702.90325782268
2843.28123927088,3702.91325782268
2917.15039458111,3702.92325782268
2977.98795318221,3702.93325782268
3026.87619074966,3702.94325782268
3070.95703036775,3702.95325782268
3081.20948314984,3702.96325782268
3076.16277120338,3702.97325782268
3059.21965086541,3702.98325782268
3023.57411660383,3702.99325782268
2969.51192192282,3703.00325782268
2930.25021853218,3703.01325782268
2883.26158922721,3703.02325782268
2827.29882151769,3703.03325782268
2773.21923577271,3703.04325782268
2724.16061262663,3703.05325782268
2681.65383463308,3703.06325782268
2637.0369080494,3703.07325782268
2588.85035778089,3703.08325782268
2515.45847743581,3703.09325782268
2455.36204487021,3703.10325782268
2402.48886526581,3703.11325782268
2347.57699008349,3703.12325782268
2309.14809103023,3703.13325782268
2292.93656918735,3703.14325782268
2265.87563762153,3703.15325782268
2239.83816711842,3703.16325782268
2227.6478796155,3703.17325782268
2211.67729617816,3703.18325782268
2209.59807024592,3703.19325782268
2210.16537753771,3703.20325782268
2232.54559164487,3703.21325782268
2245.61415600237,3703.22325782268
2254.26947300556,3703.23325782268
2266.22300125218,3703.24325782268
2266.23697346087,3703.25325782268
2249.16455269856,3703.26325782268
2266.91582527925,3703.27325782268
2283.12151577017,3703.28325782268
2317.78855416696,3703.29325782268
2370.39913111254,3703.30325782268
2399.41936163875,3703.31325782268
2425.32362267686,3703.32325782268
2425.97844060092,3703.33325782268
2411.28730290652,3703.34325782268
2384.62449084837,3703.35325782268
2342.39283357547,3703.36325782268
2297.65337745223,3703.37325782268
2265.23862889163,3703.38325782268
2240.03372984918,3703.39325782268
2228.4727778995,3703.40325782268
2206.88219817117,3703.41325782268
2193.22982403518,3703.42325782268
2207.96318967903,3703.43325782268
2210.54632993271,3703.44325782268
2206.12791607512,3703.45325782268
2188.09611500008,3703.46325782268
2180.27070763685,3703.47325782268
2178.8384987315,3703.48325782268
2197.76679803993,3703.49325782268
2223.76805822991,3703.50325782268
2225.62983614132,3703.51325782268
2211.84645475004,3703.52325782268
2199.18290140711,3703.53325782268
2161.02009763856,3703.54325782268
2104.97192196803,3703.55325782268
2072.34992138396,3703.56325782268
2026.87134282457,3703.57325782268
2002.0597498444,3703.58325782268
1969.06353215108,3703.59325782268
1946.62771706777,3703.60325782268
1930.55253816753,3703.61325782268
1934.80755585686,3703.62325782268
1933.19983387976,3703.63325782268
1929.10883539792,3703.64325782268
1917.8279071605,3703.65325782268
1926.42752433247,3703.66325782268
1930.78841327302,3703.67325782268
1929.96333969737,3703.68325782268
1940.31127414819,3703.69325782268
1962.35003111316,3703.70325782268
1975.16123600778,3703.71325782268
1985.98384629174,3703.72325782268
2000.6350252926,3703.73325782268
2031.46437616695,3703.74325782268
2069.48574730293,3703.75325782268
2088.63709238222,3703.76325782268
2106.24606020592,3703.77325782268
2090.29841748257,3703.78325782268
2073.81242127047,3703.79325782268
2083.83206296542,3703.80325782268
2114.98245414054,3703.81325782268
2152.2861549557,3703.82325782268
2179.17071700468,3703.83325782268
2180.52146722085,3703.84325782268
2164.63065297169,3703.85325782268
2131.61676584072,3703.86325782268
2096.73508259124,3703.87325782268
2090.30007779123,3703.88325782268
2093.92152803737,3703.89325782268
2086.04074998267,3703.90325782268
2076.94856398728,3703.91325782268
2072.56119535734,3703.92325782268
2059.88232570286,3703.93325782268
2064.09450653616,3703.94325782268
2044.02799775984,3703.95325782268
2013.16777685567,3703.96325782268
1991.01577420191,3703.97325782268
1998.75675544197,3703.98325782268
2021.13736287819,3703.99325782268
2034.57075433356,3704.00325782268
2054.45535975579,3704.01325782268
2069.66987685094,3704.02325782268
2099.14822142006,3704.03325782268
2130.26346963359,3704.04325782268
2167.68025283223,3704.05325782268
2218.44822836371,3704.06325782268
2307.08294161723,3704.07325782268
2411.70758412276,3704.08325782268
2521.38858033596,3704.09325782268
2628.72621521151,3704.10325782268
2733.86227297476,3704.11325782268
2819.67905078158,3704.12325782268
2891.34393575955,3704.13325782268
2943.48801087076,3704.14325782268
2967.97061848492,3704.15325782268
3006.25383322452,3704.16325782268
3037.29327162278,3704.17325782268
3030.16673786808,3704.18325782268
3009.21245986529,3704.19325782268
2977.52201352783,3704.20325782268
2943.30950058848,3704.21325782268
2904.12028379798,3704.22325782268
2853.44271536792,3704.23325782268
2805.24882107907,3704.24325782268
2766.88232182978,3704.25325782268
2726.24465826891,3704.26325782268
2692.27161364347,3704.27325782268
2668.81136341863,3704.28325782268
2654.81786456354,3704.29325782268
2647.57627565494,3704.30325782268
2632.21796053229,3704.31325782268
2606.71878672964,3704.32325782268
2581.56747556096,3704.33325782268
2546.86772130275,3704.34325782268
2499.72252132899,3704.35325782268
2439.47445876328,3704.36325782268
2371.68150549841,3704.37325782268
2344.59168480031,3704.38325782268
2337.63320960619,3704.39325782268
2327.16921833311,3704.40325782268
2327.29568761993,3704.41325782268
2333.02863764874,3704.42325782268
2343.92324140125,3704.43325782268
2354.03107988896,3704.44325782268
2357.73632976468,3704.45325782268
2354.03879106919,3704.46325782268
2331.26294683497,3704.47325782268
2311.60704516411,3704.48325782268
2300.80350965336,3704.49325782268
2313.17649527786,3704.50325782268
2347.6199350017,3704.51325782268
2357.62055472907,3704.52325782268
2356.5287005066,3704.53325782268
2357.81778396232,3704.54325782268
2367.47766349094,3704.55325782268
2394.19631992055,3704.56325782268
2423.88742671311,3704.57325782268
2443.04891952633,3704.58325782268
2459.50610123056,3704.59325782268
2460.91950774244,3704.60325782268
2449.71659510293,3704.61325782268
2428.41010664893,3704.62325782268
2398.90588751873,3704.63325782268
2356.86113676504,3704.64325782268
2328.1009356522,3704.65325782268
2317.53649003359,3704.66325782268
2306.1729823119,3704.67325782268
2298.67794977649,3704.68325782268
2293.03977835119,3704.69325782268
2283.53439502778,3704.70325782268
2280.12608338456,3704.71325782268
2251.16209436111,3704.72325782268
2218.08753760108,3704.73325782268
2170.52706700778,3704.74325782268
2133.05154822268,3704.75325782268
2103.13852557879,3704.76325782268
2090.43940699087,3704.77325782268
2081.27900254893,3704.78325782268
2070.76853730574,3704.79325782268
2061.29349355316,3704.80325782268
2062.09774297408,3704.81325782268
2038.94552790932,3704.82325782268
2026.57284390379,3704.83325782268
2002.44039103589,3704.84325782268
1977.01188138558,3704.85325782268
1953.92013839202,3704.86325782268
1926.0359016766,3704.87325782268
1914.31207024294,3704.88325782268
1914.13610487804,3704.89325782268
1932.27249301686,3704.90325782268
1945.31444134528,3704.91325782268
1971.42601672135,3704.92325782268
2009.34533729306,3704.93325782268
2017.61056066732,3704.94325782268
2019.25748481835,3704.95325782268
2012.75059059035,3704.96325782268
1990.7292300401,3704.97325782268
1973.29556467298,3704.98325782268
1935.85539032526,3704.99325782268
1904.40495999607,3705.00325782268
1865.94005283777,3705.01325782268
1844.37009402285,3705.02325782268
1834.15145839117,3705.03325782268
1830.44468792224,3705.04325782268
1841.87753236746,3705.05325782268
1844.36300803757,3705.06325782268
1862.44605140099,3705.07325782268
1871.94649813732,3705.08325782268
1854.24854636958,3705.09325782268
1822.24312136569,3705.10325782268
1798.16873487695,3705.11325782268
1800.83725656919,3705.12325782268
1829.47980394521,3705.13325782268
1858.14473861391,3705.14325782268
1892.7798661497,3705.15325782268
1935.16408426838,3705.16325782268
1955.38435628666,3705.17325782268
1965.49025888025,3705.18325782268
1970.27452009484,3705.19325782268
1952.57579816035,3705.20325782268
1931.26405920485,3705.21325782268
1933.34897309198,3705.22325782268
1949.8405245016,3705.23325782268
1975.31545182382,3705.24325782268
2010.57147311932,3705.25325782268
2071.4134451945,3705.26325782268
2172.7594485161,3705.27325782268
2262.12224854407,3705.28325782268
2356.30133905799,3705.29325782268
2444.86539419706,3705.30325782268
2533.72248869963,3705.31325782268
2614.85100824718,3705.32325782268
2667.19551617707,3705.33325782268
2717.6155967226,3705.34325782268
2760.43479824795,3705.35325782268
2811.51205543587,3705.36325782268
2861.57898281185,3705.37325782268
2891.22776276377,3705.38325782268
2918.20955391537,3705.39325782268
2913.25374733612,3705.40325782268
2898.57126992471,3705.41325782268
2867.05415029855,3705.42325782268
2823.54223192367,3705.43325782268
2792.17261252793,3705.44325782268
2761.4453927889,3705.45325782268
2714.7289073677,3705.46325782268
2706.74158632805,3705.47325782268
2691.25963988268,3705.48325782268
2665.30445576956,3705.49325782268
2618.00185756909,3705.50325782268
2557.0216460711,3705.51325782268
2511.65592645476,3705.52325782268
2454.84894410846,3705.53325782268
2422.63692155655,3705.54325782268
2416.5627393801,3705.55325782268
2414.59275513269,3705.56325782268
2421.18728151969,3705.57325782268
2431.91890646122,3705.58325782268
2418.16883228244,3705.59325782268
2403.82212900159,3705.60325782268
2401.46007150575,3705.61325782268
2401.84006910362,3705.62325782268
2402.1656693713,3705.63325782268
2412.32502144358,3705.64325782268
2433.83617873595,3705.65325782268
2474.3295308733,3705.66325782268
2526.1191597834,3705.67325782268
2579.22297674267,3705.68325782268
2619.25350213661,3705.69325782268
2693.80006619322,3705.70325782268
2763.00290551178,3705.71325782268
2816.16192650348,3705.72325782268
2832.23373409673,3705.73325782268
2822.41143474297,3705.74325782268
2819.84831731702,3705.75325782268
2826.65158206482,3705.76325782268
2811.72866732529,3705.77325782268
2819.1153316561,3705.78325782268
2790.94132251553,3705.79325782268
2768.43177182664,3705.80325782268
2758.72463856781,3705.81325782268
2756.40234233505,3705.82325782268
2738.55507080193,3705.83325782268
2712.6322705793,3705.84325782268
2682.92932831516,3705.85325782268
2648.14490543749,3705.86325782268
2620.09678255515,3705.87325782268
2594.00711218598,3705.88325782268
2581.38492662316,3705.89325782268
2566.6531960277,3705.90325782268
2558.88604965472,3705.91325782268
2543.80044339659,3705.92325782268
2528.23773275813,3705.93325782268
2515.94473339838,3705.94325782268
2485.0224985503,3705.95325782268
2479.13174696705,3705.96325782268
2491.01674370692,3705.97325782268
2505.31447163403,3705.98325782268
2554.29000035481,3705.99325782268
2615.50532847981,3706.00325782268
2667.40416090739,3706.01325782268
2717.16276443605,3706.02325782268
2745.57493315873,3706.03325782268
2730.54882800103,3706.04325782268
2692.57180809933,3706.05325782268
2669.23939183451,3706.06325782268
2653.55516494631,3706.07325782268
2656.37605034175,3706.08325782268
2669.47888755235,3706.09325782268
2685.44593973639,3706.10325782268
2683.06751027362,3706.11325782268
2656.99561765051,3706.12325782268
2650.66283199001,3706.13325782268
2652.59693135875,3706.14325782268
2643.31108299072,3706.15325782268
2658.59516420841,3706.16325782268
2643.39367204186,3706.17325782268
2625.10024110207,3706.18325782268
2606.26985167348,3706.19325782268
2586.57752303037,3706.20325782268
2566.07051432609,3706.21325782268
2567.35087473493,3706.22325782268
2585.68930061459,3706.23325782268
2592.99263161965,3706.24325782268
2593.6268217576,3706.25325782268
2588.82418538268,3706.26325782268
2549.62986009181,3706.27325782268
2511.21828472105,3706.28325782268
2470.65338168222,3706.29325782268
2432.96921211629,3706.30325782268
2391.05199541345,3706.31325782268
2370.99359630469,3706.32325782268
2371.11753750251,3706.33325782268
2389.10148632564,3706.34325782268
2406.93307696762,3706.35325782268
2434.54639725534,3706.36325782268
2468.96788973062,3706.37325782268
2498.44960570806,3706.38325782268
2521.96935829017,3706.39325782268
2522.61427412949,3706.40325782268
2540.19500409439,3706.41325782268
2565.64108013582,3706.42325782268
2596.97789758144,3706.43325782268
2636.44629953324,3706.44325782268
2678.47984819161,3706.45325782268
2744.28988072861,3706.46325782268
2815.07128318344,3706.47325782268
2879.29869768486,3706.48325782268
2950.55862484487,3706.49325782268
3016.44011613261,3706.50325782268
3093.19557326467,3706.51325782268
3158.78613120733,3706.52325782268
3209.93876522634,3706.53325782268
3212.32178458517,3706.54325782268
3181.10005629045,3706.55325782268
3145.32210624096,3706.56325782268
3099.51040081783,3706.57325782268
3073.48153603514,3706.58325782268
3043.89615988219,3706.59325782268
3031.262742727,3706.60325782268
3007.81856391531,3706.61325782268
2990.82627039725,3706.62325782268
2954.53094248164,3706.63325782268
2909.30377487465,3706.64325782268
2854.23699691116,3706.65325782268
2779.61820842832,3706.66325782268
2717.65309486792,3706.67325782268
2689.59472610685,3706.68325782268
2658.60944307413,3706.69325782268
2652.86627703035,3706.70325782268
2636.02934985685,3706.71325782268
2604.13756701179,3706.72325782268
2576.44626970288,3706.73325782268
2533.35996246422,3706.74325782268
2514.02083011764,3706.75325782268
2487.33506461483,3706.76325782268
2472.47182539896,3706.77325782268
2476.81222545486,3706.78325782268
2461.41095021786,3706.79325782268
2463.23658044679,3706.80325782268
2449.99161194117,3706.81325782268
2429.2747602387,3706.82325782268
2430.91936855623,3706.83325782268
2447.47311444157,3706.84325782268
2478.22965670868,3706.85325782268
2512.09012525992,3706.86325782268
2553.68210168094,3706.87325782268
2568.93142163956,3706.88325782268
2584.62568348238,3706.89325782268
2594.50587220181,3706.90325782268
2588.47012539578,3706.91325782268
2574.15930481933,3706.92325782268
2557.84593784546,3706.93325782268
2536.79061255251,3706.94325782268
2517.74481888059,3706.95325782268
2486.83938283831,3706.96325782268
2457.4093965045,3706.97325782268
2420.3518995578,3706.98325782268
2414.21697641839,3706.99325782268
2410.02569362934,3707.00325782268
2415.75447165625,3707.01325782268
2428.61442452498,3707.02325782268
2419.36810065949,3707.03325782268
2412.0477897901,3707.04325782268
2379.47541121753,3707.05325782268
2326.1931222404,3707.06325782268
2294.6943029366,3707.07325782268
2270.69973324847,3707.08325782268
2265.03651883618,3707.09325782268
2247.22686117913,3707.10325782268
2238.84596015479,3707.11325782268
2238.52005888041,3707.12325782268
2240.04149459998,3707.13325782268
2233.94333733327,3707.14325782268
2224.01172048015,3707.15325782268
2213.25910105079,3707.16325782268
2208.79103257767,3707.17325782268
2210.77981285527,3707.18325782268
2209.21903544604,3707.19325782268
2211.06140029979,3707.20325782268
2205.05648720643,3707.21325782268
2193.13402901137,3707.22325782268
2196.87760357444,3707.23325782268
2177.30470729427,3707.24325782268
2164.29245502371,3707.25325782268
2170.12005899218,3707.26325782268
2198.58410777013,3707.27325782268
2223.24371479529,3707.28325782268
2237.46629116285,3707.29325782268
2235.0490955908,3707.30325782268
2223.08900555643,3707.31325782268
2214.74115752784,3707.32325782268
2203.17492500003,3707.33325782268
2183.2953641685,3707.34325782268
2174.42870145312,3707.35325782268
2165.41699027686,3707.36325782268
2165.74850559241,3707.37325782268
2169.91797130154,3707.38325782268
2182.32405147525,3707.39325782268
2177.32261521154,3707.40325782268
2186.9973032792,3707.41325782268
2193.34913258111,3707.42325782268
2205.30585901409,3707.43325782268
2215.41329110711,3707.44325782268
2219.4632281217,3707.45325782268
2231.27405204141,3707.46325782268
2231.77275914251,3707.47325782268
2240.74013127579,3707.48325782268
2233.56978020695,3707.49325782268
2212.16177341976,3707.50325782268
2184.98589222844,3707.51325782268
2178.54703565271,3707.52325782268
2169.51148691317,3707.53325782268
2152.01420341231,3707.54325782268
2166.57996917329,3707.55325782268
2187.71276381943,3707.56325782268
2205.56627801059,3707.57325782268
2232.11235356063,3707.58325782268
2261.36768276993,3707.59325782268
2269.25556263282,3707.60325782268
2267.99423690308,3707.61325782268
2273.63383926938,3707.62325782268
2300.15455534726,3707.63325782268
2332.31838877882,3707.64325782268
2354.24670888454,3707.65325782268
2401.53293274898,3707.66325782268
2473.21063194525,3707.67325782268
2544.1563062923,3707.68325782268
2632.74030126042,3707.69325782268
2715.3011080798,3707.70325782268
2788.99127359684,3707.71325782268
2850.61926433147,3707.72325782268
2909.31371587038,3707.73325782268
2955.77812487327,3707.74325782268
2988.91809543092,3707.75325782268
3007.93540973088,3707.76325782268
3005.35546050677,3707.77325782268
3019.14502674713,3707.78325782268
3033.36614556906,3707.79325782268
3041.32340891034,3707.80325782268
3064.62347223882,3707.81325782268
3060.76174544511,3707.82325782268
3034.31662308922,3707.83325782268
2986.80563261976,3707.84325782268
2914.90048568363,3707.85325782268
2850.86520973742,3707.86325782268
2800.1744193644,3707.87325782268
2749.10642526048,3707.88325782268
2699.67157462747,3707.89325782268
2684.21051956415,3707.90325782268
2694.11513481564,3707.91325782268
2693.85327878084,3707.92325782268
2675.15905141504,3707.93325782268
2651.40726453399,3707.94325782268
2614.51540312583,3707.95325782268
2571.11834134112,3707.96325782268
2524.523044498,3707.97325782268
2490.59944739037,3707.98325782268
2478.07796492273,3707.99325782268
2473.69380129692,3708.00325782268
2487.97610701648,3708.01325782268
2490.03857484738,3708.02325782268
2490.11546850853,3708.03325782268
2489.59471480382,3708.04325782268
2502.43233764546,3708.05325782268
2493.39104689426,3708.06325782268
2488.8210411459,3708.07325782268
2502.80002196215,3708.08325782268
2505.59004586298,3708.09325782268
2504.28227553136,3708.10325782268
2509.25278708725,3708.11325782268
2526.21544793525,3708.12325782268
2546.45797620493,3708.13325782268
2562.43121142364,3708.14325782268
2563.64527575207,3708.15325782268
2553.40149993209,3708.16325782268
2530.27058961829,3708.17325782268
2520.35236231357,3708.18325782268
2514.63487819414,3708.19325782268
2504.87538414574,3708.20325782268
2476.6184980331,3708.21325782268
2441.88039068891,3708.22325782268
2389.89505066335,3708.23325782268
2352.5225755079,3708.24325782268
2326.16129776664,3708.25325782268
2306.14981129723,3708.26325782268
2297.34587140701,3708.27325782268
2298.97591141022,3708.28325782268
2293.47513079021,3708.29325782268
2279.31539389873,3708.30325782268
2259.38793158493,3708.31325782268
2228.19443479064,3708.32325782268
2188.4107790898,3708.33325782268
2153.36622248717,3708.34325782268
2119.35843106118,3708.35325782268
2087.20487339718,3708.36325782268
2065.29277826618,3708.37325782268
2055.7611121617,3708.38325782268
2034.2724906547,3708.39325782268
2015.01945143979,3708.40325782268
2002.07708473271,3708.41325782268
1998.82015471301,3708.42325782268
1987.64788535196,3708.43325782268
1988.93352485752,3708.44325782268
1993.12349272117,3708.45325782268
2004.5695846112,3708.46325782268
1990.77331385706,3708.47325782268
1988.67211627316,3708.48325782268
1989.312666029,3708.49325782268
1988.7911234541,3708.50325782268
2012.75224776813,3708.51325782268
2031.77264113992,3708.52325782268
2032.84766774042,3708.53325782268
2021.0015913348,3708.54325782268
1981.38250612058,3708.55325782268
1944.74275885788,3708.56325782268
1918.06807082631,3708.57325782268
1897.82831778362,3708.58325782268
1901.46747438134,3708.59325782268
1897.99633705618,3708.60325782268
1917.83093582403,3708.61325782268
1945.90588698679,3708.62325782268
1982.23894462319,3708.63325782268
2008.86863886925,3708.64325782268
2039.32996111509,3708.65325782268
2094.63324535618,3708.66325782268
2144.19241317443,3708.67325782268
2176.15225885324,3708.68325782268
2181.62697627273,3708.69325782268
2174.96207588671,3708.70325782268
2165.15895963848,3708.71325782268
2166.44572443659,3708.72325782268
2166.07137968828,3708.73325782268
2176.77138807939,3708.74325782268
2185.6666209656,3708.75325782268
2196.26192241778,3708.76325782268
2193.91680777249,3708.77325782268
2199.57243984215,3708.78325782268
2215.96290177939,3708.79325782268
2226.35340850827,3708.80325782268
2220.38173321749,3708.81325782268
2204.25442831545,3708.82325782268
2190.12262317524,3708.83325782268
2162.42377403264,3708.84325782268
2137.0550656675,3708.85325782268
2135.79242969075,3708.86325782268
2135.45139200238,3708.87325782268
2139.64530669851,3708.88325782268
2180.50155598973,3708.89325782268
2215.67566825573,3708.90325782268
2268.35887160602,3708.91325782268
2343.24761208704,3708.92325782268
2434.40879408815,3708.93325782268
2545.74481894345,3708.94325782268
2642.53401327595,3708.95325782268
2725.27311094874,3708.96325782268
2790.91792681304,3708.97325782268
2850.99246271513,3708.98325782268
2920.17422884777,3708.99325782268
2977.000863148,3709.00325782268
3026.51140158987,3709.01325782268
3048.98477040448,3709.02325782268
3040.39547424043,3709.03325782268
3006.82122055789,3709.04325782268
2985.0258914429,3709.05325782268
2965.16482988719,3709.06325782268
2945.80591658536,3709.07325782268
2911.01690971508,3709.08325782268
2861.25357942113,3709.09325782268
2776.90353881072,3709.10325782268
2698.97947872977,3709.11325782268
2633.95058020157,3709.12325782268
2599.6707123325,3709.13325782268
2570.05757108235,3709.14325782268
2543.16956969324,3709.15325782268
2501.01927666901,3709.16325782268
2439.02162045085,3709.17325782268
2392.5301033682,3709.18325782268
2353.66317479069,3709.19325782268
2312.76477653917,3709.20325782268
2291.14286505978,3709.21325782268
2258.94342941715,3709.22325782268
2240.67735200369,3709.23325782268
2223.06607763258,3709.24325782268
2194.12189981819,3709.25325782268
2200.65387342042,3709.26325782268
2213.57872095398,3709.27325782268
2259.61255572726,3709.28325782268
2314.73459086124,3709.29325782268
2358.35513137101,3709.30325782268
2397.809368554,3709.31325782268
2415.91315100791,3709.32325782268
2418.7682257848,3709.33325782268
2400.26315691904,3709.34325782268
2390.83633638435,3709.35325782268
2385.48724525614,3709.36325782268
2388.1084805908,3709.37325782268
2373.80106729589,3709.38325782268
2375.41865253624,3709.39325782268
2394.25567043149,3709.40325782268
2412.44347267748,3709.41325782268
2422.50496627912,3709.42325782268
2430.55331794705,3709.43325782268
2436.22216435236,3709.44325782268
2447.06651557209,3709.45325782268
2457.80574523295,3709.46325782268
2450.19216290724,3709.47325782268
2440.92174507229,3709.48325782268
2410.13429456937,3709.49325782268
2373.95621221107,3709.50325782268
2344.40331803706,3709.51325782268
2330.74788087547,3709.52325782268
2314.32461041613,3709.53325782268
2304.83198309246,3709.54325782268
2317.71392185935,3709.55325782268
2334.06974724199,3709.56325782268
2354.99144459825,3709.57325782268
2369.74511863027,3709.58325782268
2372.41251044042,3709.59325782268
2371.86243221738,3709.60325782268
2359.94783285513,3709.61325782268
2355.98723350459,3709.62325782268
2357.87118596166,3709.63325782268
2355.81721963731,3709.64325782268
2362.1478992943,3709.65325782268
2373.35878850391,3709.66325782268
2358.79299239479,3709.67325782268
2345.85492225351,3709.68325782268
2325.66916174988,3709.69325782268
2309.63400613146,3709.70325782268
2319.82533858359,3709.71325782268
2326.9436998733,3709.72325782268
2333.64071088464,3709.73325782268
2343.01204828237,3709.74325782268
2370.84884883826,3709.75325782268
2417.2188972997,3709.76325782268
2453.13295574831,3709.77325782268
2498.27208197286,3709.78325782268
2543.08739963644,3709.79325782268
2570.9707765631,3709.80325782268
2591.3488758174,3709.81325782268
2592.66808146881,3709.82325782268
2597.94221431992,3709.83325782268
2609.66841569029,3709.84325782268
2607.06710043498,3709.85325782268
2609.09409328995,3709.86325782268
2606.76797281533,3709.87325782268
2598.21861549454,3709.88325782268
2570.48053313794,3709.89325782268
2530.8617915248,3709.90325782268
2501.34585956005,3709.91325782268
2489.08762465951,3709.92325782268
2489.3450389438,3709.93325782268
2495.21932998239,3709.94325782268
2505.60524965643,3709.95325782268
2505.34936352328,3709.96325782268
2491.25586395351,3709.97325782268
2495.19150190294,3709.98325782268
2504.81043771666,3709.99325782268
2510.49996386826,3710.00325782268
2516.15330397759,3710.01325782268
2491.06085656892,3710.02325782268
2489.20157964702,3710.03325782268
2506.5924309957,3710.04325782268
2537.28012377134,3710.05325782268
2567.03560069314,3710.06325782268
2583.31978816302,3710.07325782268
2602.9491982267,3710.08325782268
2641.14351384003,3710.09325782268
2684.70683986592,3710.10325782268
2764.38868939768,3710.11325782268
2852.62119517988,3710.12325782268
2941.82331976243,3710.13325782268
3017.91528976011,3710.14325782268
3103.19157119797,3710.15325782268
3181.39696186516,3710.16325782268
3249.39372794769,3710.17325782268
3315.06328509007,3710.18325782268
3350.43618577525,3710.19325782268
3361.6685981857,3710.20325782268
3355.97752967748,3710.21325782268
3316.50486841739,3710.22325782268
3270.79087176723,3710.23325782268
3239.38870402914,3710.24325782268
3210.28265787146,3710.25325782268
3180.27471957043,3710.26325782268
3139.32885908393,3710.27325782268
3093.30799708085,3710.28325782268
3062.86729629884,3710.29325782268
3017.1325971774,3710.30325782268
2966.69734231169,3710.31325782268
2917.76467611456,3710.32325782268
2860.32032945202,3710.33325782268
2825.03872447466,3710.34325782268
2789.37088076207,3710.35325782268
2769.27895446447,3710.36325782268
2728.57765327817,3710.37325782268
2660.09329379326,3710.38325782268
2591.23778999049,3710.39325782268
2549.26697208226,3710.40325782268
2510.96013014355,3710.41325782268
2473.75989528206,3710.42325782268
2459.44999245077,3710.43325782268
2472.11023539809,3710.44325782268
2492.22836176823,3710.45325782268
2507.33023313119,3710.46325782268
2502.65752043092,3710.47325782268
2510.91803803614,3710.48325782268
2520.52093281737,3710.49325782268
2531.35311457013,3710.50325782268
2558.41323860013,3710.51325782268
2570.16972424214,3710.52325782268
2594.12614456291,3710.53325782268
2632.16568966325,3710.54325782268
2654.12166132613,3710.55325782268
2651.17280206809,3710.56325782268
2641.23988911025,3710.57325782268
2637.02862659546,3710.58325782268
2649.87910077565,3710.59325782268
2641.85553332696,3710.60325782268
2620.38805337808,3710.61325782268
2590.54854904997,3710.62325782268
2560.62812633421,3710.63325782268
2535.3679607537,3710.64325782268
2534.04182330175,3710.65325782268
2534.3036944394,3710.66325782268
2530.56545577342,3710.67325782268
2489.41917487991,3710.68325782268
2445.92718937146,3710.69325782268
2396.50415082509,3710.70325782268
2336.87957733952,3710.71325782268
2277.25279560957,3710.72325782268
2234.60765604262,3710.73325782268
2196.37001395668,3710.74325782268
2156.63107489521,3710.75325782268
2113.73492408313,3710.76325782268
2057.89426811413,3710.77325782268
2012.67278410697,3710.78325782268
1997.18132597472,3710.79325782268
1991.26202726788,3710.80325782268
2010.39621577341,3710.81325782268
2028.63676466083,3710.82325782268
2042.74680830665,3710.83325782268
2071.72008294129,3710.84325782268
2103.9554874967,3710.85325782268
2110.69761359726,3710.86325782268
2117.43599140183,3710.87325782268
2133.8253616079,3710.88325782268
2141.04325704047,3710.89325782268
2164.60790995984,3710.90325782268
2166.30853952018,3710.91325782268
2165.45730708642,3710.92325782268
2170.26047891398,3710.93325782268
2182.37876633975,3710.94325782268
2174.32770874524,3710.95325782268
2165.53388534434,3710.96325782268
2153.9433963213,3710.97325782268
2150.15168165634,3710.98325782268
2151.44457944948,3710.99325782268
2150.72421132907,3711.00325782268
2151.12752905438,3711.01325782268
2150.95783958754,3711.02325782268
2150.95447203171,3711.03325782268
2151.15529735031,3711.04325782268
2150.74290984945,3711.05325782268
2151.49874059476,3711.06325782268
2150.03995632325,3711.07325782268
2156.12701396279,3711.08325782268
2178.63254933382,3711.09325782268
2180.4539498785,3711.10325782268
2176.32211097393,3711.11325782268
2147.80932821301,3711.12325782268
2130.49497936302,3711.13325782268
2104.35768004052,3711.14325782268
2085.96311410427,3711.15325782268
2071.89570507991,3711.16325782268
2059.83167156787,3711.17325782268
2079.74109290472,3711.18325782268
2106.07017280318,3711.19325782268
2106.50463231289,3711.20325782268
2118.88708149305,3711.21325782268
2132.71717791156,3711.22325782268
2141.2108426057,3711.23325782268
2155.52770454119,3711.24325782268
2172.12472976708,3711.25325782268
2179.2097359837,3711.26325782268
2185.17929090896,3711.27325782268
2207.25378013565,3711.28325782268
2241.53000504256,3711.29325782268
2309.96049806624,3711.30325782268
2382.38264934761,3711.31325782268
2469.41757230292,3711.32325782268
2557.77333108951,3711.33325782268
2658.11159029578,3711.34325782268
2751.36471473271,3711.35325782268
2821.80433997088,3711.36325782268
2879.10889222359,3711.37325782268
2939.41935854105,3711.38325782268
2973.22564993077,3711.39325782268
3014.13962061753,3711.40325782268
3059.59866925899,3711.41325782268
3111.95002084598,3711.42325782268
3137.36754239696,3711.43325782268
3143.98464557545,3711.44325782268
3144.33669781988,3711.45325782268
3120.45833796628,3711.46325782268
3085.65221296202,3711.47325782268
3058.93591787486,3711.48325782268
3011.54477738446,3711.49325782268
2974.60968092907,3711.50325782268
2939.44551953551,3711.51325782268
2886.7547467835,3711.52325782268
2844.11349813373,3711.53325782268
2810.21863426586,3711.54325782268
2784.03143729786,3711.55325782268
2746.23960045662,3711.56325782268
2712.0326228322,3711.57325782268
2695.75308355982,3711.58325782268
2662.28693176501,3711.59325782268
2639.61078776387,3711.60325782268
2613.59924356714,3711.61325782268
2590.41823820827,3711.62325782268
2572.57433380777,3711.63325782268
2539.35209999803,3711.64325782268
2528.38562147574,3711.65325782268
2518.38461174137,3711.66325782268
2513.17314863182,3711.67325782268
2520.26067110265,3711.68325782268
2531.25499266313,3711.69325782268
2546.87091683255,3711.70325782268
2537.91235162881,3711.71325782268
2528.29526975738,3711.72325782268
2507.58886484985,3711.73325782268
2500.40509126762,3711.74325782268
2484.1887679196,3711.75325782268
2470.58588023748,3711.76325782268
2442.87415892723,3711.77325782268
2416.57277075061,3711.78325782268
2397.17757386505,3711.79325782268
2402.00108020367,3711.80325782268
2401.82548334477,3711.81325782268
2402.27907841515,3711.82325782268
2389.60067111454,3711.83325782268
2398.54181911448,3711.84325782268
2414.55851141857,3711.85325782268
2416.30001670763,3711.86325782268
2401.17660478124,3711.87325782268
2340.32963923428,3711.88325782268
2287.57194890162,3711.89325782268
2242.92617954728,3711.90325782268
2238.09616699792,3711.91325782268
2239.49214275712,3711.92325782268
2238.55566158179,3711.93325782268
2239.46713893237,3711.94325782268
2238.42799549071,3711.95325782268
2239.70409534967,3711.96325782268
2226.66315541938,3711.97325782268
2225.93912540118,3711.98325782268
2216.59439305389,3711.99325782268
2195.05462240558,3712.00325782268
2175.59802950244,3712.01325782268
2148.31567960663,3712.02325782268
2117.68789740339,3712.03325782268
2081.22349079299,3712.04325782268
2063.82775025856,3712.05325782268
2061.58033911148,3712.06325782268
2062.19940304164,3712.07325782268
2061.70650201407,3712.08325782268
2062.33235737296,3712.09325782268
2061.16479322761,3712.10325782268
2066.45734568821,3712.11325782268
2067.73073067095,3712.12325782268
2042.04077264887,3712.13325782268
2019.07261497359,3712.14325782268
2005.82195193053,3712.15325782268
2001.94732291707,3712.16325782268
2015.78650527743,3712.17325782268
2018.04333256029,3712.18325782268
2021.19734585007,3712.19325782268
2052.45310748852,3712.20325782268
2076.35384347866,3712.21325782268
2076.19563563205,3712.22325782268
2078.08151421426,3712.23325782268
2075.1341903972,3712.24325782268
2095.53865487197,3712.25325782268
2130.5660928876,3712.26325782268
2170.65123558684,3712.27325782268
2226.93091278257,3712.28325782268
2257.41950168694,3712.29325782268
2282.95919814569,3712.30325782268
2295.78520934871,3712.31325782268
2295.74389324948,3712.32325782268
2273.50508237314,3712.33325782268
2244.23187745472,3712.34325782268
2213.96139657739,3712.35325782268
2177.22643788217,3712.36325782268
2156.99666068749,3712.37325782268
2123.58229510751,3712.38325782268
2079.55470958016,3712.39325782268
2043.56899657066,3712.40325782268
2020.59632604368,3712.41325782268
2035.60425373827,3712.42325782268
2030.81083358878,3712.43325782268
2038.00153450996,3712.44325782268
2063.4444822689,3712.45325782268
2044.10769089813,3712.46325782268
2013.64838699694,3712.47325782268
1986.59388778928,3712.48325782268
1954.80055633528,3712.49325782268
1942.44698157389,3712.50325782268
1944.75227645828,3712.51325782268
1954.62258313213,3712.52325782268
1988.73374134264,3712.53325782268
2032.09981765991,3712.54325782268
2073.21143916018,3712.55325782268
2119.72103315214,3712.56325782268
2187.4767426713,3712.57325782268
2277.84077665091,3712.58325782268
2382.01864959368,3712.59325782268
2514.77166771536,3712.60325782268
2635.86051682429,3712.61325782268
2736.69240339777,3712.62325782268
2831.01865563081,3712.63325782268
2891.85224893029,3712.64325782268
2907.72652553447,3712.65325782268
2925.00339878517,3712.66325782268
2909.21140834066,3712.67325782268
2901.70614506984,3712.68325782268
2889.21009483929,3712.69325782268
2849.44489511837,3712.70325782268
2823.67891435989,3712.71325782268
2797.62491515778,3712.72325782268
2767.49689795482,3712.73325782268
2737.58306355642,3712.74325782268
2709.5975849521,3712.75325782268
2673.69279120917,3712.76325782268
2645.4864507602,3712.77325782268
2621.63021374284,3712.78325782268
2600.74846514077,3712.79325782268
2581.79107257191,3712.80325782268
2562.38816664781,3712.81325782268
2515.02569545925,3712.82325782268
2465.2370171836,3712.83325782268
2416.26168792956,3712.84325782268
2367.38307375393,3712.85325782268
2317.93061324538,3712.86325782268
2280.60994908531,3712.87325782268
2250.40010856491,3712.88325782268
2237.22977149814,3712.89325782268
2251.99251342265,3712.90325782268
2254.01111889081,3712.91325782268
2253.97587590901,3712.92325782268
2253.75021497145,3712.93325782268
2266.35319249396,3712.94325782268
2281.44551701831,3712.95325782268
2299.68620248611,3712.96325782268
2332.34878209347,3712.97325782268
2343.87493267677,3712.98325782268
2342.76124142506,3712.99325782268
2342.98699241442,3713.00325782268
2343.23160890425,3713.01325782268
2342.46702163225,3713.02325782268
2344.02158787523,3713.03325782268
2352.13265548516,3713.04325782268
2380.46731293072,3713.05325782268
2415.96152262808,3713.06325782268
2415.95399177644,3713.07325782268
2412.30802618383,3713.08325782268
2399.34737103341,3713.09325782268
2419.74106442896,3713.10325782268
2456.15563049621,3713.11325782268
2477.93705756051,3713.12325782268
2507.91972536675,3713.13325782268
2526.1883759807,3713.14325782268
2511.28479609453,3713.15325782268
2487.45173462248,3713.16325782268
2464.81204919897,3713.17325782268
2427.32219477799,3713.18325782268
2410.40954596682,3713.19325782268
2388.72178388134,3713.20325782268
2386.76844081666,3713.21325782268
2386.7699870817,3713.22325782268
2387.22907515008,3713.23325782268
2401.06936861647,3713.24325782268
2444.57369171239,3713.25325782268
2497.9940782117,3713.26325782268
2547.74944005579,3713.27325782268
2599.02765488826,3713.28325782268
2620.93081414769,3713.29325782268
2620.12430817109,3713.30325782268
2600.66054876385,3713.31325782268
2582.65043456216,3713.32325782268
2560.62682645341,3713.33325782268
2524.56385831294,3713.34325782268
2490.61085023852,3713.35325782268
2467.52838345998,3713.36325782268
2461.43244405833,3713.37325782268
2460.12656108853,3713.38325782268
2462.06429853872,3713.39325782268
2458.98840611237,3713.40325782268
2467.0687653194,3713.41325782268
2474.09496876304,3713.42325782268
2504.61699157317,3713.43325782268
2525.77465347856,3713.44325782268
2564.097299632,3713.45325782268
2581.19914486416,3713.46325782268
2578.79523211635,3713.47325782268
2574.57187380219,3713.48325782268
2562.63599500887,3713.49325782268
2576.40774784762,3713.50325782268
2595.48549985166,3713.51325782268
2622.93911774052,3713.52325782268
2618.5938209997,3713.53325782268
2602.02077387127,3713.54325782268
2580.83078342853,3713.55325782268
2566.57451936225,3713.56325782268
2551.15417732402,3713.57325782268
2548.56407406614,3713.58325782268
2549.64485119404,3713.59325782268
2544.88415970812,3713.60325782268
2504.60525111881,3713.61325782268
2483.35546514742,3713.62325782268
2459.34724025338,3713.63325782268
2426.58163518612,3713.64325782268
2411.80075186142,3713.65325782268
2382.72136135031,3713.66325782268
2359.89017814902,3713.67325782268
2347.28120651442,3713.68325782268
2321.00264875229,3713.69325782268
2310.98106060349,3713.70325782268
2321.8853619126,3713.71325782268
2364.991794713,3713.72325782268
2433.71995805821,3713.73325782268
2499.64228786234,3713.74325782268
2592.51502724327,3713.75325782268
2691.56891450967,3713.76325782268
2779.51701901446,3713.77325782268
2863.38849534024,3713.78325782268
2936.57601609878,3713.79325782268
2997.41950247894,3713.80325782268
3061.97246415027,3713.81325782268
3116.69819959985,3713.82325782268
3135.89207555793,3713.83325782268
3165.21253227168,3713.84325782268
3169.75480658514,3713.85325782268
3169.38386123104,3713.86325782268
3168.64684668726,3713.87325782268
3170.41964928604,3713.88325782268
3151.55818584114,3713.89325782268
3125.39938455723,3713.90325782268
3109.45014453373,3713.91325782268
3083.40426278276,3713.92325782268
3048.00875490383,3713.93325782268
3017.8253177332,3713.94325782268
2977.21098738029,3713.95325782268
2942.27888511774,3713.96325782268
2921.04810808045,3713.97325782268
2888.41431573491,3713.98325782268
2843.75089985255,3713.99325782268
2794.30852094037,3714.00325782268
2750.46715151084,3714.01325782268
2725.0610854328,3714.02325782268
2699.41805541252,3714.03325782268
2676.5458924997,3714.04325782268
2649.46405460371,3714.05325782268
2632.54292415289,3714.06325782268
2616.84899998843,3714.07325782268
2595.37898784999,3714.08325782268
2580.07956502109,3714.09325782268
2580.60669119842,3714.10325782268
2580.32329362276,3714.11325782268
2574.72762475872,3714.12325782268
2580.31383950933,3714.13325782268
2578.75762100013,3714.14325782268
2575.32725548124,3714.15325782268
2557.28640712509,3714.16325782268
2551.93462084037,3714.17325782268
2583.72502935413,3714.18325782268
2592.47200113003,3714.19325782268
2607.33315914482,3714.20325782268
2590.15487478462,3714.21325782268
2564.58750465301,3714.22325782268
2514.38871619624,3714.23325782268
2471.64636900822,3714.24325782268
2460.47652284879,3714.25325782268
2443.00942101586,3714.26325782268
2435.45127899193,3714.27325782268
2429.15428010304,3714.28325782268
2420.08975555533,3714.29325782268
2387.6030734353,3714.30325782268
2348.24343301646,3714.31325782268
2309.60013422331,3714.32325782268
2280.22525871376,3714.33325782268
2267.44023320106,3714.34325782268
2257.63770327646,3714.35325782268
2239.98926911098,3714.36325782268
2228.58311797688,3714.37325782268
2218.90516669445,3714.38325782268
2221.13657730385,3714.39325782268
2229.61816295893,3714.40325782268
2245.08825993408,3714.41325782268
2266.24147927428,3714.42325782268
2274.41359431852,3714.43325782268
2285.3093200662,3714.44325782268
2283.13695926235,3714.45325782268
2273.19156611181,3714.46325782268
2263.11573407261,3714.47325782268
2249.85242203053,3714.48325782268
2220.72695435629,3714.49325782268
2198.01374256419,3714.50325782268
2188.82275241492,3714.51325782268
2169.47965801168,3714.52325782268
2144.11945612838,3714.53325782268
2109.855160447,3714.54325782268
2072.56762509844,3714.55325782268
2062.40825412115,3714.56325782268
2044.36129578661,3714.57325782268
2026.39737681176,3714.58325782268
1997.53664922002,3714.59325782268
1949.18185558542,3714.60325782268
1911.58699047533,3714.61325782268
1897.36417090753,3714.62325782268
1905.6887329764,3714.63325782268
1930.65214860143,3714.64325782268
1967.90338596544,3714.65325782268
2002.91618716943,3714.66325782268
2002.19720825034,3714.67325782268
2003.6185676344,3714.68325782268
2001.95307002866,3714.69325782268
2007.54226643706,3714.70325782268
2034.89897887927,3714.71325782268
2071.75018412445,3714.72325782268
2111.06333277927,3714.73325782268
2125.22987071327,3714.74325782268
2143.39737530875,3714.75325782268
2161.41877568339,3714.76325782268
2188.95123072018,3714.77325782268
2224.02042658625,3714.78325782268
2241.05012343333,3714.79325782268
2268.74462891564,3714.80325782268
2280.65963374236,3714.81325782268
2285.53235157292,3714.82325782268
2270.80169236192,3714.83325782268
2257.31442842134,3714.84325782268
2236.70982378831,3714.85325782268
2210.70148410884,3714.86325782268
2211.06636857655,3714.87325782268
2204.888619759,3714.88325782268
2193.37814190128,3714.89325782268
2196.4849505881,3714.90325782268
2189.34668848031,3714.91325782268
2167.42192463321,3714.92325782268
2153.2808280124,3714.93325782268
2137.96704562008,3714.94325782268
2134.91218339271,3714.95325782268
2151.73658499386,3714.96325782268
2188.1840789773,3714.97325782268
2244.00396010805,3714.98325782268
2317.1067703114,3714.99325782268
2389.46111658125,3715.00325782268
2480.67038265515,3715.01325782268
2585.94722016162,3715.02325782268
2688.82350827461,3715.03325782268
2787.82217476876,3715.04325782268
2862.60864287103,3715.05325782268
2913.05456985691,3715.06325782268
2963.08048311412,3715.07325782268
3007.16199035301,3715.08325782268
3039.89748226909,3715.09325782268
3056.62748486082,3715.10325782268
3067.2838111668,3715.11325782268
3071.5360381187,3715.12325782268
3078.18627724424,3715.13325782268
3076.55930363026,3715.14325782268
3059.33635484015,3715.15325782268
3034.95136124642,3715.16325782268
2998.21455037683,3715.17325782268
2931.29162417872,3715.18325782268
2861.58874482575,3715.19325782268
2793.62135439378,3715.20325782268
2746.2766738335,3715.21325782268
2696.46704247553,3715.22325782268
2650.36461436795,3715.23325782268
2609.73901550645,3715.24325782268
2563.95559765878,3715.25325782268
2516.1195356229,3715.26325782268
2493.99307213439,3715.27325782268
2472.68116942623,3715.28325782268
2475.8725187255,3715.29325782268
2486.65796584764,3715.30325782268
2502.71743640813,3715.31325782268
2509.39430182841,3715.32325782268
2525.85626539286,3715.33325782268
2546.89621705423,3715.34325782268
2549.46857190907,3715.35325782268
2548.92094719053,3715.36325782268
2548.91951986813,3715.37325782268
2537.4555732606,3715.38325782268
2517.80291163479,3715.39325782268
2495.19987969069,3715.40325782268
2463.62927737829,3715.41325782268
2440.64224505293,3715.42325782268
2413.17763546472,3715.43325782268
2400.51518746349,3715.44325782268
2402.66971992096,3715.45325782268
2401.69213174062,3715.46325782268
2402.12699498692,3715.47325782268
2413.28892011968,3715.48325782268
2417.10093875077,3715.49325782268
2411.96723022779,3715.50325782268
2383.85396676208,3715.51325782268
2354.98179047655,3715.52325782268
2323.75636760121,3715.53325782268
2300.65817469161,3715.54325782268
2281.18792154653,3715.55325782268
2267.11906549923,3715.56325782268
2270.07657619102,3715.57325782268
2268.21802313348,3715.58325782268
2269.80114058943,3715.59325782268
2253.09341906913,3715.60325782268
2227.3832666986,3715.61325782268
2184.00791919014,3715.62325782268
2155.67754372235,3715.63325782268
2137.45182659008,3715.64325782268
2136.10380487249,3715.65325782268
2135.70214774199,3715.66325782268
2121.79602077835,3715.67325782268
2093.38382157319,3715.68325782268
2078.19865731448,3715.69325782268
2067.2929323446,3715.70325782268
2016.84460187693,3715.71325782268
2003.91218208565,3715.72325782268
1976.05859230156,3715.73325782268
1945.66153186404,3715.74325782268
1932.30801531055,3715.75325782268
1928.92446546435,3715.76325782268
1945.24164620642,3715.77325782268
1970.02621532467,3715.78325782268
1995.36732861213,3715.79325782268
2003.36885716744,3715.80325782268
2002.79810124355,3715.81325782268
2003.00698632352,3715.82325782268
1992.00343821764,3715.83325782268
1984.19033951976,3715.84325782268
1968.05252011888,3715.85325782268
1957.94003361047,3715.86325782268
1959.82883757869,3715.87325782268
1957.68077982365,3715.88325782268
1964.39122607863,3715.89325782268
1998.42688100126,3715.90325782268
2028.66516626887,3715.91325782268
2033.76881340835,3715.92325782268
2032.82799193459,3715.93325782268
2032.51883863233,3715.94325782268
2036.78907079493,3715.95325782268
2067.42409793419,3715.96325782268
2081.54542575078,3715.97325782268
2098.48486968995,3715.98325782268
2107.36317035345,3715.99325782268
2118.50652465968,3716.00325782268
2121.64092147639,3716.01325782268
2132.9686851976,3716.02325782268
2137.06907933541,3716.03325782268
2135.50894009806,3716.04325782268
2148.5823051793,3716.05325782268
2163.86438922584,3716.06325782268
2166.61046829625,3716.07325782268
2165.57063961546,3716.08325782268
2154.6994678573,3716.09325782268
2133.46160498966,3716.10325782268
2103.82790327059,3716.11325782268
2085.7129072358,3716.12325782268
2076.13821408691,3716.13325782268
2077.39507620518,3716.14325782268
2076.50168583978,3716.15325782268
2088.96417967328,3716.16325782268
2069.37556714946,3716.17325782268
2050.6695246644,3716.18325782268
2029.8798908953,3716.19325782268
2042.02172036213,3716.20325782268
2084.85683930844,3716.21325782268
2153.35098990589,3716.22325782268
2229.02638118428,3716.23325782268
2312.74321368946,3716.24325782268
2408.61875697604,3716.25325782268
2498.7785402614,3716.26325782268
2588.29122038455,3716.27325782268
2648.35245384454,3716.28325782268
2697.0419582209,3716.29325782268
2718.04212308037,3716.30325782268
2754.04639776182,3716.31325782268
2806.38830009537,3716.32325782268
2848.84334334369,3716.33325782268
2875.48291390517,3716.34325782268
2896.00022951262,3716.35325782268
2901.64357655628,3716.36325782268
2909.90251994562,3716.37325782268
2913.37384961137,3716.38325782268
2890.76784879704,3716.39325782268
2870.97388149414,3716.40325782268
2846.05960841749,3716.41325782268
2830.38519996227,3716.42325782268
2831.51158364982,3716.43325782268
2803.10643608264,3716.44325782268
2746.82533375424,3716.45325782268
2698.3876924773,3716.46325782268
2632.13261844107,3716.47325782268
2567.34381335318,3716.48325782268
2514.09818995925,3716.49325782268
2488.36713035489,3716.50325782268
2465.24007312778,3716.51325782268
2433.8841292241,3716.52325782268
2411.88889453632,3716.53325782268
2390.444212423,3716.54325782268
2370.59801775268,3716.55325782268
2359.16847482362,3716.56325782268
2361.2528679716,3716.57325782268
2372.88518619448,3716.58325782268
2375.56194769115,3716.59325782268
2392.88676142606,3716.60325782268
2407.09953313726,3716.61325782268
2416.97804109798,3716.62325782268
2415.71692951438,3716.63325782268
2427.68964983052,3716.64325782268
2436.57510675718,3716.65325782268
2447.21889300722,3716.66325782268
2445.13034512157,3716.67325782268
2446.84784441347,3716.68325782268
2432.8699917309,3716.69325782268
2431.53316277532,3716.70325782268
2426.12198119192,3716.71325782268
2414.20489495995,3716.72325782268
2420.62678898392,3716.73325782268
2437.20330744862,3716.74325782268
2446.365575004,3716.75325782268
2461.28581577326,3716.76325782268
2482.95899212354,3716.77325782268
2488.7322238462,3716.78325782268
2495.61056313211,3716.79325782268
2505.75729681334,3716.80325782268
2516.88963697669,3716.81325782268
2508.90604628599,3716.82325782268
2503.27176703543,3716.83325782268
2506.48391240599,3716.84325782268
2503.15985817287,3716.85325782268
2522.68804603375,3716.86325782268
2535.52873979865,3716.87325782268
2545.04567057965,3716.88325782268
2554.28305726336,3716.89325782268
2569.50111774807,3716.90325782268
2583.50518609953,3716.91325782268
2611.2726066201,3716.92325782268
2624.6370611212,3716.93325782268
2622.21162019805,3716.94325782268
2623.63072813089,3716.95325782268
2622.55403895945,3716.96325782268
2623.51969870566,3716.97325782268
2622.38202570431,3716.98325782268
2624.15580901164,3716.99325782268
2617.74677610012,3717.00325782268
2594.68041129544,3717.01325782268
2581.33549698877,3717.02325782268
2578.33418577813,3717.03325782268
2579.45592763928,3717.04325782268
2589.76135661472,3717.05325782268
2609.99322928103,3717.06325782268
2630.24357620267,3717.07325782268
2637.68586440782,3717.08325782268
2639.44834058302,3717.09325782268
2632.28295835018,3717.10325782268
2622.72312072108,3717.11325782268
2610.17821248723,3717.12325782268
2597.08204793389,3717.13325782268
2571.04645978461,3717.14325782268
2530.69304639345,3717.15325782268
2486.61610536336,3717.16325782268
2459.07399667555,3717.17325782268
2445.82704599937,3717.18325782268
2446.17582565449,3717.19325782268
2433.30878728146,3717.20325782268
2431.1381762857,3717.21325782268
2426.44429325403,3717.22325782268
2414.1328366554,3717.23325782268
2429.68779123539,3717.24325782268
2427.02636207142,3717.25325782268
2410.03913622573,3717.26325782268
2398.30885558411,3717.27325782268
2375.94865765231,3717.28325782268
2354.30752053625,3717.29325782268
2348.49451206647,3717.30325782268
2331.43347989497,3717.31325782268
2311.18677358411,3717.32325782268
2326.06873051534,3717.33325782268
2340.38604097451,3717.34325782268
2355.01270534748,3717.35325782268
2357.58401696154,3717.36325782268
2353.21577780868,3717.37325782268
2336.279079119,3717.38325782268
2327.73839502684,3717.39325782268
2327.00543678668,3717.40325782268
2332.92887327077,3717.41325782268
2355.0303900601,3717.42325782268
2360.92770341929,3717.43325782268
2405.20854791434,3717.44325782268
2468.88610337724,3717.45325782268
2518.67794470031,3717.46325782268
2597.25554187934,3717.47325782268
2680.72256588477,3717.48325782268
2758.8670547338,3717.49325782268
2844.94521898827,3717.50325782268
2923.97879881844,3717.51325782268
2988.6236066041,3717.52325782268
3047.23292402303,3717.53325782268
3104.12159842642,3717.54325782268
3148.37717762996,3717.55325782268
3182.91451554016,3717.56325782268
3196.10471217859,3717.57325782268
3203.20525114131,3717.58325782268
3159.96231996351,3717.59325782268
3120.54315845616,3717.60325782268
3081.15821983079,3717.61325782268
3032.9508435956,3717.62325782268
3009.38441785033,3717.63325782268
2984.65840476796,3717.64325782268
2942.65592516024,3717.65325782268
2904.06805119643,3717.66325782268
2868.65263919622,3717.67325782268
2858.54420729085,3717.68325782268
2858.92722461478,3717.69325782268
2847.30728292014,3717.70325782268
2827.09659468644,3717.71325782268
2796.26092801138,3717.72325782268
2760.06010972771,3717.73325782268
2727.70420609975,3717.74325782268
2674.73766436126,3717.75325782268
2634.27573106059,3717.76325782268
2604.17271160314,3717.77325782268
2581.12843169693,3717.78325782268
2561.47486411483,3717.79325782268
2534.82712042812,3717.80325782268
2522.63960828812,3717.81325782268
2519.14118327631,3717.82325782268
2520.30962643623,3717.83325782268
2530.88267006851,3717.84325782268
2524.329546395,3717.85325782268
2498.56346571158,3717.86325782268
2450.28405856124,3717.87325782268
2417.38961255651,3717.88325782268
2403.70645120503,3717.89325782268
2405.51012140133,3717.90325782268
2433.81685680238,3717.91325782268
2475.54007604624,3717.92325782268
2508.47796479927,3717.93325782268
2523.11786924807,3717.94325782268
2509.21192092339,3717.95325782268
2472.98084781083,3717.96325782268
2449.66015050756,3717.97325782268
2429.41876339816,3717.98325782268
2455.45903571196,3717.99325782268
2490.83466442322,3718.00325782268
2519.54247443988,3718.01325782268
2520.00551672732,3718.02325782268
2516.63844941806,3718.03325782268
2497.81426235999,3718.04325782268
2490.72003453655,3718.05325782268
2473.33190641597,3718.06325782268
2443.18954080438,3718.07325782268
2412.122501347,3718.08325782268
2377.83086548217,3718.09325782268
2352.94068729385,3718.10325782268
2343.51888044922,3718.11325782268
2336.92909022529,3718.12325782268
2332.0782304662,3718.13325782268
2320.28558564914,3718.14325782268
2298.4723090557,3718.15325782268
2298.30260412681,3718.16325782268
2298.45921314498,3718.17325782268
2293.92468576493,3718.18325782268
2279.0702431753,3718.19325782268
2259.57566457909,3718.20325782268
2216.71279710335,3718.21325782268
2171.68566135663,3718.22325782268
2116.73718304953,3718.23325782268
2055.00879559652,3718.24325782268
1997.40573216741,3718.25325782268
1963.78715567505,3718.26325782268
1957.67284933582,3718.27325782268
1971.49064603141,3718.28325782268
1986.86938549383,3718.29325782268
1988.72263448168,3718.30325782268
1992.67222583299,3718.31325782268
2008.95405514146,3718.32325782268
2031.14066541706,3718.33325782268
2032.60375946365,3718.34325782268
2036.73157516863,3718.35325782268
2067.5354595147,3718.36325782268
2078.11600939682,3718.37325782268
2075.6642256133,3718.38325782268
2082.13155027269,3718.39325782268
2108.65822320689,3718.40325782268
2152.31545426032,3718.41325782268
2182.12606310665,3718.42325782268
2206.74408112499,3718.43325782268
2229.23416030842,3718.44325782268
2250.28076845901,3718.45325782268
2270.31695229968,3718.46325782268
2273.06133549476,3718.47325782268
2286.15232083886,3718.48325782268
2282.81000883721,3718.49325782268
2285.01932263169,3718.50325782268
2271.25966561933,3718.51325782268
2268.50910348292,3718.52325782268
2257.73066880871,3718.53325782268
2248.04185868369,3718.54325782268
2202.97948424207,3718.55325782268
2176.642543572,3718.56325782268
2160.68406592068,3718.57325782268
2148.56020062762,3718.58325782268
2157.63619188758,3718.59325782268
2161.83733522473,3718.60325782268
2149.05071137748,3718.61325782268
2152.34934891128,3718.62325782268
2149.37299378653,3718.63325782268
2156.35556539302,3718.64325782268
2167.43260141131,3718.65325782268
2161.31671292783,3718.66325782268
2132.77062670545,3718.67325782268
2107.65419761156,3718.68325782268
2107.36419674907,3718.69325782268
2105.95218255811,3718.70325782268
2122.54769755676,3718.71325782268
2142.98371782685,3718.72325782268
2162.66136795656,3718.73325782268
2182.34076867288,3718.74325782268
2224.54183992278,3718.75325782268
2261.33412338284,3718.76325782268
2319.26498976691,3718.77325782268
2388.80471443035,3718.78325782268
2457.8712157612,3718.79325782268
2536.63661317404,3718.80325782268
2597.36596182893,3718.81325782268
2678.79555394953,3718.82325782268
2778.26711073471,3718.83325782268
2892.85692228064,3718.84325782268
2975.57111623162,3718.85325782268
3028.75571914841,3718.86325782268
3076.67452900802,3718.87325782268
3098.22608186872,3718.88325782268
3108.39051118062,3718.89325782268
3075.58776146288,3718.90325782268
3050.05090728505,3718.91325782268
3012.57327410606,3718.92325782268
2974.27373059642,3718.93325782268
2951.96996012364,3718.94325782268
2914.68334715814,3718.95325782268
2897.23748897529,3718.96325782268
2883.7771606092,3718.97325782268
2855.7215136143,3718.98325782268
2827.63455387145,3718.99325782268
2791.29918101849,3719.00325782268
2740.57345737207,3719.01325782268
2679.30716820796,3719.02325782268
2628.21207935993,3719.03325782268
2585.07318964376,3719.04325782268
2544.94797090971,3719.05325782268
2516.65433654193,3719.06325782268
2478.98114798402,3719.07325782268
2462.23842335698,3719.08325782268
2449.4069001744,3719.09325782268
2427.75051657108,3719.10325782268
2413.94766428794,3719.11325782268
2393.95018841976,3719.12325782268
2367.51628129335,3719.13325782268
2355.80641942103,3719.14325782268
2357.51472653157,3719.15325782268
2356.12641618504,3719.16325782268
2373.13857300551,3719.17325782268
2409.57916122848,3719.18325782268
2454.13436337086,3719.19325782268
2510.1184972262,3719.20325782268
2579.03098676159,3719.21325782268
2606.74348178026,3719.22325782268
2620.973553685,3719.23325782268
2607.97884770489,3719.24325782268
2581.45609498989,3719.25325782268
2534.97722935664,3719.26325782268
2496.78299707418,3719.27325782268
2455.82771977636,3719.28325782268
2433.80020982089,3719.29325782268
2416.92708676721,3719.30325782268
2421.11196106457,3719.31325782268
2432.11030118788,3719.32325782268
2454.800200033,3719.33325782268
2463.41616170877,3719.34325782268
2443.98102673204,3719.35325782268
2408.99797916725,3719.36325782268
2363.6219327135,3719.37325782268
2320.39186736493,3719.38325782268
2274.79002425286,3719.39325782268
2247.27423974263,3719.40325782268
2234.99272457392,3719.41325782268
2206.77416231392,3719.42325782268
2177.8411508516,3719.43325782268
2146.91580119953,3719.44325782268
2123.16998236345,3719.45325782268
2104.68061809992,3719.46325782268
2077.11503675057,3719.47325782268
2078.44745028374,3719.48325782268
2071.34642594484,3719.49325782268
2061.41690188822,3719.50325782268
2059.00127480142,3719.51325782268
2026.20091103942,3719.52325782268
2006.50995486658,3719.53325782268
1973.41199467888,3719.54325782268
1956.37796294733,3719.55325782268
1960.63354863368,3719.56325782268
1957.29130395704,3719.57325782268
1961.21136048582,3719.58325782268
1952.1343943719,3719.59325782268
1948.42975683995,3719.60325782268
1960.60212285847,3719.61325782268
1982.41044044126,3719.62325782268
2015.04110696191,3719.63325782268
2018.08166652391,3719.64325782268
2018.26653208745,3719.65325782268
2005.55360799198,3719.66325782268
1991.07032984692,3719.67325782268
1976.44013247035,3719.68325782268
1970.1371048102,3719.69325782268
1936.44265074571,3719.70325782268
1895.83385683535,3719.71325782268
1879.54861685614,3719.72325782268
1870.10693114584,3719.73325782268
1894.42573030579,3719.74325782268
1917.76829638636,3719.75325782268
1947.02198593949,3719.76325782268
1965.26461745886,3719.77325782268
1974.7138160479,3719.78325782268
1973.4869187964,3719.79325782268
1974.49465454192,3719.80325782268
1973.11347893219,3719.81325782268
1978.56228087555,3719.82325782268
1994.32395727863,3719.83325782268
2007.84424743606,3719.84325782268
2023.86893246746,3719.85325782268
2034.23715812167,3719.86325782268
2032.03796590362,3719.87325782268
2057.53507163928,3719.88325782268
2062.62926415086,3719.89325782268
2062.327090852,3719.90325782268
2060.70856549255,3719.91325782268
2067.6936208699,3719.92325782268
2077.23997482929,3719.93325782268
2089.95593412452,3719.94325782268
2087.34292642934,3719.95325782268
2075.7489689099,3719.96325782268
2073.20235804565,3719.97325782268
2058.68609724162,3719.98325782268
2080.22956987083,3719.99325782268
2119.41061677769,3720.00325782268
2175.91078325221,3720.01325782268
2261.35417321262,3720.02325782268
2360.12555387609,3720.03325782268
2488.9129380628,3720.04325782268
2599.72313597106,3720.05325782268
2715.68295408498,3720.06325782268
2810.65909325114,3720.07325782268
2904.53646452951,3720.08325782268
2970.1449274241,3720.09325782268
2999.42407615954,3720.10325782268
3018.16476115634,3720.11325782268
3023.36161235492,3720.12325782268
3003.34050325571,3720.13325782268
2979.18463437095,3720.14325782268
2948.76237999107,3720.15325782268
2913.15735006117,3720.16325782268
2890.48885331206,3720.17325782268
2884.02495768215,3720.18325782268
2855.49048209432,3720.19325782268
2830.61272062637,3720.20325782268
2816.99863085666,3720.21325782268
2803.21660975297,3720.22325782268
2794.06468850208,3720.23325782268
2772.50746401076,3720.24325782268
2741.78132880996,3720.25325782268
2706.23179222354,3720.26325782268
2672.52224274416,3720.27325782268
2649.36619915388,3720.28325782268
2632.25939132576,3720.29325782268
2629.77550207914,3720.30325782268
2622.06405581385,3720.31325782268
2612.12092819613,3720.32325782268
2589.54294595089,3720.33325782268
2577.93145364742,3720.34325782268
2566.8859492477,3720.35325782268
2563.20475716102,3720.36325782268
2564.04647138756,3720.37325782268
2576.13518707581,3720.38325782268
2593.85533114571,3720.39325782268
2632.2302366289,3720.40325782268
2653.80231630171,3720.41325782268
2675.54777481132,3720.42325782268
2684.50667125683,3720.43325782268
2703.26996686116,3720.44325782268
2730.9165703298,3720.45325782268
2744.3823276237,3720.46325782268
2767.6030827336,3720.47325782268
2789.19134962451,3720.48325782268
2823.78959176089,3720.49325782268
2842.58151818178,3720.50325782268
2818.58257266063,3720.51325782268
2764.94476350311,3720.52325782268
2724.50487509123,3720.53325782268
2731.69429867991,3720.54325782268
2757.51896379848,3720.55325782268
2776.97030506217,3720.56325782268
2773.23660139687,3720.57325782268
2768.80421813626,3720.58325782268
2771.26457937251,3720.59325782268
2753.90376280868,3720.60325782268
2722.26334087008,3720.61325782268
2697.9621593885,3720.62325782268
2697.58524568965,3720.63325782268
2695.97261476894,3720.64325782268
2699.30098354426,3720.65325782268
2686.66436176366,3720.66325782268
2664.44062293946,3720.67325782268
2656.98152033825,3720.68325782268
2645.575120159,3720.69325782268
2626.30817031589,3720.70325782268
2617.6667420891,3720.71325782268
2591.4783748453,3720.72325782268
2544.91486596049,3720.73325782268
2494.79885620014,3720.74325782268
2446.14911095127,3720.75325782268
2407.64067848957,3720.76325782268
2367.88022126337,3720.77325782268
2328.59732916524,3720.78325782268
2292.72988818322,3720.79325782268
2272.59432087164,3720.80325782268
2250.2003564046,3720.81325782268
2238.37691140059,3720.82325782268
2223.17813317775,3720.83325782268
2194.97671462954,3720.84325782268
2196.01175955643,3720.85325782268
2190.28316352344,3720.86325782268
2174.06271768967,3720.87325782268
2165.28514080453,3720.88325782268
2165.88573661205,3720.89325782268
2169.28559669264,3720.90325782268
2198.63225928278,3720.91325782268
2226.19900448324,3720.92325782268
2262.48744662227,3720.93325782268
2301.89339057642,3720.94325782268
2331.02825152927,3720.95325782268
2348.09154918201,3720.96325782268
2363.20595189328,3720.97325782268
2372.01640808407,3720.98325782268
2376.98861088707,3720.99325782268
2400.4631645783,3721.00325782268
2414.12426485464,3721.01325782268
2415.87762410068,3721.02325782268
2406.38723253715,3721.03325782268
2379.56081368106,3721.04325782268
2335.16677395413,3721.05325782268
2276.4734410137,3721.06325782268
2240.02368376296,3721.07325782268
2234.47944490703,3721.08325782268
2235.16682387501,3721.09325782268
2240.00911438915,3721.10325782268
2227.84715382344,3721.11325782268
2219.30727341998,3721.12325782268
2209.25911608081,3721.13325782268
2209.5409489976,3721.14325782268
2214.34996219664,3721.15325782268
2230.26641567203,3721.16325782268
2240.89709199395,3721.17325782268
2221.49001157574,3721.18325782268
2196.63749996059,3721.19325782268
2170.18677637215,3721.20325782268
2168.63206907472,3721.21325782268
2185.91988717332,3721.22325782268
2211.74562334616,3721.23325782268
2242.67062561978,3721.24325782268
2282.96624281084,3721.25325782268
2332.39051742377,3721.26325782268
2397.00498940543,3721.27325782268
2472.71028310892,3721.28325782268
2565.07025781034,3721.29325782268
2653.32243125195,3721.30325782268
2734.58874985557,3721.31325782268
2820.71731595612,3721.32325782268
2863.07372234662,3721.33325782268
2903.35361612241,3721.34325782268
2924.97492221782,3721.35325782268
2937.56873087337,3721.36325782268
2949.65631798702,3721.37325782268
2941.34129327069,3721.38325782268
2933.29879653245,3721.39325782268
2928.66996014047,3721.40325782268
2903.91993715516,3721.41325782268
2892.04170866324,3721.42325782268
2870.3938235182,3721.43325782268
2833.94623647858,3721.44325782268
2812.00861479209,3721.45325782268
2785.78074938315,3721.46325782268
2785.93957995686,3721.47325782268
2780.42000662486,3721.48325782268
2764.5979661991,3721.49325782268
2739.47730978865,3721.50325782268
2703.41189408216,3721.51325782268
2658.74824581672,3721.52325782268
2606.29823267119,3721.53325782268
2564.15607440763,3721.54325782268
2517.25637264622,3721.55325782268
2504.27972303424,3721.56325782268
2491.80701417697,3721.57325782268
2494.45661316715,3721.58325782268
2506.03294078212,3721.59325782268
2504.81783508102,3721.60325782268
2491.84726774761,3721.61325782268
2494.43161607649,3721.62325782268
2518.20180363843,3721.63325782268
2535.53002719382,3721.64325782268
2556.14324827889,3721.65325782268
2564.282450953,3721.66325782268
2551.91773724692,3721.67325782268
2548.11351316236,3721.68325782268
2549.9289831369,3721.69325782268
2548.20331547355,3721.70325782268
2550.47503640174,3721.71325782268
2531.90888205616,3721.72325782268
2517.83348429001,3721.73325782268
2498.11236339319,3721.74325782268
2466.73662843946,3721.75325782268
2423.99669990414,3721.76325782268
2365.3106974881,3721.77325782268
2300.8236260238,3721.78325782268
2247.24009627426,3721.79325782268
2209.92228258641,3721.80325782268
2210.46888218801,3721.81325782268
2221.61459396803,3721.82325782268
2226.20705404113,3721.83325782268
2196.83798793128,3721.84325782268
2166.89606032812,3721.85325782268
2154.09442327585,3721.86325782268
2172.20871587872,3721.87325782268
2195.86576191981,3721.88325782268
2218.93432124342,3721.89325782268
2215.77108154873,3721.90325782268
2187.75724123082,3721.91325782268
2179.7032834407,3721.92325782268
2180.48025324166,3721.93325782268
2167.9160814921,3721.94325782268
2154.48897144713,3721.95325782268
2132.72689400456,3721.96325782268
2093.97876653851,3721.97325782268
2038.01933504359,3721.98325782268
1985.71420874302,3721.99325782268
1947.84290424522,3722.00325782268
1943.67868959885,3722.01325782268
1931.57565463549,3722.02325782268
1945.85986964394,3722.03325782268
1973.04311106761,3722.04325782268
1989.31122544942,3722.05325782268
2010.92431590544,3722.06325782268
2028.93292070166,3722.07325782268
2039.13928642107,3722.08325782268
2061.5573527075,3722.09325782268
2062.97642904157,3722.10325782268
2057.64763463667,3722.11325782268
2028.39412859741,3722.12325782268
2000.0480486312,3722.13325782268
1975.49554189467,3722.14325782268
1958.33653630948,3722.15325782268
1932.2249699715,3722.16325782268
1912.8302546145,3722.17325782268
1919.9775404016,3722.18325782268
1935.08348134995,3722.19325782268
1972.60032924063,3722.20325782268
2012.45211347182,3722.21325782268
2062.57525257036,3722.22325782268
2096.5825290034,3722.23325782268
2118.61260957512,3722.24325782268
2126.33637144818,3722.25325782268
2137.52541518579,3722.26325782268
2146.81153429585,3722.27325782268
2157.31920582939,3722.28325782268
2166.65368314267,3722.29325782268
2153.95618662946,3722.30325782268
2134.36910909257,3722.31325782268
2102.39845069896,3722.32325782268
2091.34865272614,3722.33325782268
2091.86498927543,3722.34325782268
2092.84398801163,3722.35325782268
2086.96805398377,3722.36325782268
2075.68985125878,3722.37325782268
2089.76869667256,3722.38325782268
2092.60475181157,3722.39325782268
2091.49909633138,3722.40325782268
2115.82213544423,3722.41325782268
2122.47727546275,3722.42325782268
2119.78059360604,3722.43325782268
2111.17740217375,3722.44325782268
2100.24805611182,3722.45325782268
2079.9302231504,3722.46325782268
2062.29634457055,3722.47325782268
2082.85868125476,3722.48325782268
2126.89947489259,3722.49325782268
2162.70867854587,3722.50325782268
2206.00520825901,3722.51325782268
2236.21496213202,3722.52325782268
2260.20856001698,3722.53325782268
2307.15850450985,3722.54325782268
2362.51114721369,3722.55325782268
2457.59649517863,3722.56325782268
2560.55275595435,3722.57325782268
2663.3942471521,3722.58325782268
2733.60476484282,3722.59325782268
2786.60073060712,3722.60325782268
2818.82098224326,3722.61325782268
2842.6697425502,3722.62325782268
2856.66301859252,3722.63325782268
2860.04613897083,3722.64325782268
2846.69814049907,3722.65325782268
2843.35037001833,3722.66325782268
2833.46268900416,3722.67325782268
2819.73182870454,3722.68325782268
2777.43346558417,3722.69325782268
2720.70807973831,3722.70325782268
2664.29017013468,3722.71325782268
2639.43958146192,3722.72325782268
2613.64943727487,3722.73325782268
2602.42387612462,3722.74325782268
2576.28906095764,3722.75325782268
2546.03179506708,3722.76325782268
2527.80754632903,3722.77325782268
2516.65343568954,3722.78325782268
2493.13667554485,3722.79325782268
2473.55265431635,3722.80325782268
2451.94617611195,3722.81325782268
2444.09469300784,3722.82325782268
2447.10209432108,3722.83325782268
2445.1868970192,3722.84325782268
2446.58340226466,3722.85325782268
2433.30176166597,3722.86325782268
2418.2693670014,3722.87325782268
2391.9298421945,3722.88325782268
2358.53378457041,3722.89325782268
2330.00008383525,3722.90325782268
2292.39501785989,3722.91325782268
2298.49273355766,3722.92325782268
2297.69341398251,3722.93325782268
2310.01600415245,3722.94325782268
2317.70855729298,3722.95325782268
2334.15255598681,3722.96325782268
2343.84707103556,3722.97325782268
2342.7119612657,3722.98325782268
2354.55658651278,3722.99325782268
2358.15856286448,3723.00325782268
2341.65741587084,3723.01325782268
2305.31108328162,3723.02325782268
2237.14291113966,3723.03325782268
2160.55429808244,3723.04325782268
2105.72330463907,3723.05325782268
2084.57847003456,3723.06325782268
2077.86765988914,3723.07325782268
2071.24749348559,3723.08325782268
2061.35968967646,3723.09325782268
2038.08282508929,3723.10325782268
2031.84027586993,3723.11325782268
2020.63272538149,3723.12325782268
2032.686647606,3723.13325782268
2069.64148267989,3723.14325782268
2087.97758504083,3723.15325782268
2110.44876313665,3723.16325782268
2134.14611574766,3723.17325782268
2148.98154511728,3723.18325782268
2139.25008736372,3723.19325782268
2132.10219128108,3723.20325782268
2098.90646899534,3723.21325782268
2070.46234806449,3723.22325782268
2045.24364262095,3723.23325782268
2020.97856569082,3723.24325782268
1985.59286764509,3723.25325782268
1947.77007931897,3723.26325782268
1932.40158424611,3723.27325782268
1951.34544869378,3723.28325782268
1970.81363728643,3723.29325782268
1990.58225980216,3723.30325782268
1975.97622415252,3723.31325782268
1961.6279527547,3723.32325782268
1954.89959667886,3723.33325782268
1933.73318373153,3723.34325782268
1896.34614006051,3723.35325782268
1871.18923106354,3723.36325782268
1876.00640678492,3723.37325782268
1897.78221142176,3723.38325782268
1925.24215462181,3723.39325782268
1930.47278299486,3723.40325782268
1933.56753390007,3723.41325782268
1949.67811063465,3723.42325782268
1964.49170172689,3723.43325782268
1975.27807702169,3723.44325782268
1973.35121555521,3723.45325782268
1986.67018447353,3723.46325782268
1989.86461993165,3723.47325782268
1999.65792325322,3723.48325782268
2017.33730673615,3723.49325782268
2013.25895626679,3723.50325782268
1987.20880729997,3723.51325782268
1950.85795476201,3723.52325782268
1911.44576500919,3723.53325782268
1881.78448636604,3723.54325782268
1869.84277870386,3723.55325782268
1871.0923900104,3723.56325782268
1871.75212284326,3723.57325782268
1865.69565921992,3723.58325782268
1842.83780471993,3723.59325782268
1827.87729245468,3723.60325782268
1826.13634821839,3723.61325782268
1824.74644810739,3723.62325782268
1855.61555638646,3723.63325782268
1873.83700615964,3723.64325782268
1869.15797449653,3723.65325782268
1872.6229646491,3723.66325782268
1880.29801297326,3723.67325782268
1916.31728186017,3723.68325782268
1954.49218514323,3723.69325782268
1976.90262880502,3723.70325782268
1990.70464297622,3723.71325782268
1987.89097086484,3723.72325782268
1989.53698886335,3723.73325782268
1988.27680009425,3723.74325782268
1989.42117828729,3723.75325782268
1999.07269049268,3723.76325782268
2035.58808897331,3723.77325782268
2103.41640967179,3723.78325782268
2186.93496795003,3723.79325782268
2283.84934342112,3723.80325782268
2369.24523201597,3723.81325782268
2466.3588023589,3723.82325782268
2547.13054763857,3723.83325782268
2630.57069515369,3723.84325782268
2721.22129654718,3723.85325782268
2793.78828061581,3723.86325782268
2840.98872333842,3723.87325782268
2845.46877520752,3723.88325782268
2839.59104651605,3723.89325782268
2824.16730745093,3723.90325782268
2809.69593729642,3723.91325782268
2786.82077296281,3723.92325782268
2784.838483497,3723.93325782268
2773.44709439441,3723.94325782268
2765.24245483497,3723.95325782268
2750.61384893486,3723.96325782268
2724.184794233,3723.97325782268
2700.17631612693,3723.98325782268
2652.10229016371,3723.99325782268
2630.6497297904,3724.00325782268
2623.24287267361,3724.01325782268
2622.01255196944,3724.02325782268
2640.12565819383,3724.03325782268
2678.40815960799,3724.04325782268
2718.18457546462,3724.05325782268
2741.05614675527,3724.06325782268
2724.54714571968,3724.07325782268
2700.72786733274,3724.08325782268
2647.80029166461,3724.09325782268
2585.83692184653,3724.10325782268
2533.52245808118,3724.11325782268
2500.61332921756,3724.12325782268
2476.82330158247,3724.13325782268
2462.81751510478,3724.14325782268
2472.05394154307,3724.15325782268
2487.46877897143,3724.16325782268
2518.38729242529,3724.17325782268
2565.92083339663,3724.18325782268
2607.56418794613,3724.19325782268
2654.79556700494,3724.20325782268
2691.60713426131,3724.21325782268
2727.13689507211,3724.22325782268
2743.18475549947,3724.23325782268
2752.10542972857,3724.24325782268
2745.91174270754,3724.25325782268
2726.17860121663,3724.26325782268
2716.50400438156,3724.27325782268
2699.45583952078,3724.28325782268
2681.57284954718,3724.29325782268
2677.55919655191,3724.30325782268
2665.42856224392,3724.31325782268
2656.01658898558,3724.32325782268
2635.56189255378,3724.33325782268
2603.82368569623,3724.34325782268
2581.30963895441,3724.35325782268
2561.48871891297,3724.36325782268
2534.74194833566,3724.37325782268
2522.85392975309,3724.38325782268
2506.66912628706,3724.39325782268
2492.89106776129,3724.40325782268
2473.41830404235,3724.41325782268
2441.79766574435,3724.42325782268
2417.83708149787,3724.43325782268
2404.23959757332,3724.44325782268
2424.44732595131,3724.45325782268
2437.68192572181,3724.46325782268
2458.68722567054,3724.47325782268
2461.58701073503,3724.48325782268
2436.88320546831,3724.49325782268
2413.37842640343,3724.50325782268
2384.21375513772,3724.51325782268
2342.65465938791,3724.52325782268
2309.10923498264,3724.53325782268
2281.82994137865,3724.54325782268
