PPG,time
-0.00345429117981647,2346.61459018911
-0.0132311852578261,2346.62459018911
-0.0213111855337389,2346.63459018911
-0.0294031844466298,2346.64459018911
-0.0374876329718471,2346.65459018911
-0.0456745767481638,2346.66459018911
-0.0541211824853632,2346.67459018911
-0.0625668338490895,2346.68459018911
-0.0709088432923879,2346.69459018911
-0.0787564559034752,2346.70459018911
-0.0860631455129429,2346.71459018911
-0.0921692848948737,2346.72459018911
-0.0950236819011313,2346.73459018911
-0.090042332841577,2346.74459018911
-0.0702827517811874,2346.75459018911
-0.0296045646563321,2346.76459018911
0.0350518477388752,2346.77459018911
0.120212753600992,2346.78459018911
0.218270215580597,2346.79459018911
0.318997336356124,2346.80459018911
0.414435067337079,2346.81459018911
0.498601040222365,2346.82459018911
0.570723121617909,2346.83459018911
0.630769147689668,2346.84459018911
0.680086910292275,2346.85459018911
0.718987392898921,2346.86459018911
0.747679361694911,2346.87459018911
0.765542911556652,2346.88459018911
0.772873706923613,2346.89459018911
0.770278170949788,2346.90459018911
0.759487946828629,2346.91459018911
0.742226719676584,2346.92459018911
0.719707583631307,2346.93459018911
0.693565666780518,2346.94459018911
0.664545463053605,2346.95459018911
0.633648894340726,2346.96459018911
0.601393908759677,2346.97459018911
0.568906972094777,2346.98459018911
0.535950196573454,2346.99459018911
0.502614593362236,2347.00459018911
0.468809544680131,2347.01459018911
0.434868943501363,2347.02459018911
0.401151841138379,2347.03459018911
0.367039237946383,2347.04459018911
0.3336674050017,2347.05459018911
0.301759317590611,2347.06459018911
0.27103750376743,2347.07459018911
0.244026247401133,2347.08459018911
0.223599317906802,2347.09459018911
0.212981907405339,2347.10459018911
0.212718619742722,2347.11459018911
0.221760734582238,2347.12459018911
0.236825125674249,2347.13459018911
0.25500267613657,2347.14459018911
0.273497441657363,2347.15459018911
0.29038546635561,2347.16459018911
0.304412170336267,2347.17459018911
0.315215326370525,2347.18459018911
0.323144343631565,2347.19459018911
0.326750233033562,2347.20459018911
0.326996089004744,2347.21459018911
0.324634201586707,2347.22459018911
0.321210949885055,2347.23459018911
0.317010355358928,2347.24459018911
0.312155354159751,2347.25459018911
0.306418753086902,2347.26459018911
0.299498402081506,2347.27459018911
0.291030169673458,2347.28459018911
0.281415681340238,2347.29459018911
0.271266265327243,2347.30459018911
0.260805518749295,2347.31459018911
0.249663521963622,2347.32459018911
0.236572734510623,2347.33459018911
0.220539873345306,2347.34459018911
0.201783032877751,2347.35459018911
0.17974457215856,2347.36459018911
0.155398295271062,2347.37459018911
0.129293890900445,2347.38459018911
0.103315691301111,2347.39459018911
0.0777466089496225,2347.40459018911
0.0537934330958115,2347.41459018911
0.0314139563197833,2347.42459018911
0.0111270857405861,2347.43459018911
-0.00689927787218988,2347.44459018911
-0.0228955473491186,2347.45459018911
-0.0377329564072158,2347.46459018911
-0.0514205725863625,2347.47459018911
-0.0652880756302328,2347.48459018911
-0.079527707207335,2347.49459018911
-0.0943106722391388,2347.50459018911
-0.108574045423952,2347.51459018911
-0.12212160960161,2347.52459018911
-0.134399455300345,2347.53459018911
-0.145619562784877,2347.54459018911
-0.155432144623733,2347.55459018911
-0.164056252723519,2347.56459018911
-0.171006276909292,2347.57459018911
-0.176785038994998,2347.58459018911
-0.182419876619429,2347.59459018911
-0.18939009660378,2347.60459018911
-0.19849241260569,2347.61459018911
-0.209909797843906,2347.62459018911
-0.22266503387678,2347.63459018911
-0.23562823948811,2347.64459018911
-0.245885628317827,2347.65459018911
-0.24852924359245,2347.66459018911
-0.236985917133101,2347.67459018911
-0.203555284007024,2347.68459018911
-0.144034344000204,2347.69459018911
-0.0609580049638092,2347.70459018911
0.0371502621388347,2347.71459018911
0.139108275444782,2347.72459018911
0.235890076577619,2347.73459018911
0.320079710345927,2347.74459018911
0.389380896104902,2347.75459018911
0.44325288961671,2347.76459018911
0.483498481579382,2347.77459018911
0.511773492589985,2347.78459018911
0.529854523424293,2347.79459018911
0.539629443272906,2347.80459018911
0.542080177632015,2347.81459018911
0.538314797599605,2347.82459018911
0.527946045811349,2347.83459018911
0.512399301094432,2347.84459018911
0.492178221028102,2347.85459018911
0.468403325776224,2347.86459018911
0.441833480866175,2347.87459018911
0.413508530590881,2347.88459018911
0.384380854490369,2347.89459018911
0.354995139750519,2347.90459018911
0.325281806317815,2347.91459018911
0.294934941674918,2347.92459018911
0.264661825809898,2347.93459018911
0.232984320877045,2347.94459018911
0.199613315064022,2347.95459018911
0.166527721801105,2347.96459018911
0.134296518440015,2347.97459018911
0.107188874338627,2347.98459018911
0.0867225140448501,2347.99459018911
0.074035279750843,2348.00459018911
0.0706435239551506,2348.01459018911
0.075639791569887,2348.02459018911
0.0883051697287143,2348.03459018911
0.106092328517739,2348.04459018911
0.127691118020474,2348.05459018911
0.151793299627166,2348.06459018911
0.175071635360231,2348.07459018911
0.196200742799413,2348.08459018911
0.213305030057088,2348.09459018911
0.22565367349729,2348.10459018911
0.23342335429608,2348.11459018911
0.236325994250054,2348.12459018911
0.236351963886105,2348.13459018911
0.233072563980003,2348.14459018911
0.227736177136779,2348.15459018911
0.22121409541838,2348.16459018911
0.214169958061154,2348.17459018911
0.206447447847901,2348.18459018911
0.199000161583299,2348.19459018911
0.19044815799975,2348.20459018911
0.18031750519959,2348.21459018911
0.168970161523918,2348.22459018911
0.155941200582489,2348.23459018911
0.141463302226351,2348.24459018911
0.125282820623574,2348.25459018911
0.107821078651459,2348.26459018911
0.0895519221076387,2348.27459018911
0.0714481928084988,2348.28459018911
0.0538299611016482,2348.29459018911
0.0368197085660252,2348.30459018911
0.0212484409931709,2348.31459018911
0.00654999004106717,2348.32459018911
-0.00837545885685695,2348.33459018911
-0.0229317081209929,2348.34459018911
-0.0369438507993532,2348.35459018911
-0.0511190715480482,2348.36459018911
-0.0658534161525874,2348.37459018911
-0.0805536001932723,2348.38459018911
-0.0949348039353596,2348.39459018911
-0.108406588199373,2348.40459018911
-0.120830743961331,2348.41459018911
-0.132859733010637,2348.42459018911
-0.144322077568219,2348.43459018911
-0.15621446743886,2348.44459018911
-0.168613390136945,2348.45459018911
-0.180103865143783,2348.46459018911
-0.190261091953541,2348.47459018911
-0.19664506854774,2348.48459018911
-0.195807447286869,2348.49459018911
-0.180481015559335,2348.50459018911
-0.144773456501546,2348.51459018911
-0.0844129428954054,2348.52459018911
-0.00272886842515307,2348.53459018911
0.0912932973728231,2348.54459018911
0.188792050472611,2348.55459018911
0.279972237114626,2348.56459018911
0.358693390275067,2348.57459018911
0.422441426874323,2348.58459018911
0.471008099323074,2348.59459018911
0.506823464238793,2348.60459018911
0.532309150411697,2348.61459018911
0.549077519596525,2348.62459018911
0.558110756125515,2348.63459018911
0.560241394776531,2348.64459018911
0.556437424256286,2348.65459018911
0.545772000233395,2348.66459018911
0.528766445915028,2348.67459018911
0.506754614171996,2348.68459018911
0.479574046065008,2348.69459018911
0.448586456018401,2348.70459018911
0.415137344019886,2348.71459018911
0.379717847538367,2348.72459018911
0.342909750861975,2348.73459018911
0.305746144585162,2348.74459018911
0.267976836640098,2348.75459018911
0.229689639556392,2348.76459018911
0.190471258903193,2348.77459018911
0.15027481536972,2348.78459018911
0.109766817894663,2348.79459018911
0.0716219545141964,2348.80459018911
0.0386863230315706,2348.81459018911
0.0139035073239681,2348.82459018911
-0.00135988554293414,2348.83459018911
-0.00583662427527973,2348.84459018911
-0.000757573417982162,2348.85459018911
0.0134013036359925,2348.86459018911
0.0338522544617947,2348.87459018911
0.0582608448932832,2348.88459018911
0.0839058557449221,2348.89459018911
0.108252702185981,2348.90459018911
0.129738721251357,2348.91459018911
0.147079017847777,2348.92459018911
0.159919865720007,2348.93459018911
0.168347256461295,2348.94459018911
0.172543904667665,2348.95459018911
0.173694967936409,2348.96459018911
0.172749152553385,2348.97459018911
0.169158035984653,2348.98459018911
0.16358518881159,2348.99459018911
0.156578467054077,2349.00459018911
0.148953191607232,2349.01459018911
0.140851297817384,2349.02459018911
0.131791890932797,2349.03459018911
0.122842655497162,2349.04459018911
0.113072438752717,2349.05459018911
0.10298014419758,2349.06459018911
0.0916444022894933,2349.07459018911
0.0799113953871316,2349.08459018911
0.0673364070854957,2349.09459018911
0.0542832141529706,2349.10459018911
0.040712376646863,2349.11459018911
0.0272052239811566,2349.12459018911
0.0140441401361958,2349.13459018911
0.00119957274623018,2349.14459018911
-0.0110819378993262,2349.15459018911
-0.0230939537155667,2349.16459018911
-0.0343687686930372,2349.17459018911
-0.0456179059026803,2349.18459018911
-0.056627796239796,2349.19459018911
-0.0684913164258224,2349.20459018911
-0.0804431393180786,2349.21459018911
-0.0924243909871584,2349.22459018911
-0.104113130187137,2349.23459018911
-0.115481955730609,2349.24459018911
-0.126640110684402,2349.25459018911
-0.137199469132118,2349.26459018911
-0.148513688804816,2349.27459018911
-0.160157896543856,2349.28459018911
-0.171913626381418,2349.29459018911
-0.183072415504778,2349.30459018911
-0.192922170369611,2349.31459018911
-0.199930842690201,2349.32459018911
-0.201375141774898,2349.33459018911
-0.190793843018189,2349.34459018911
-0.161478203572439,2349.35459018911
-0.108805427270804,2349.36459018911
-0.0333119381387778,2349.37459018911
0.0567452741911972,2349.38459018911
0.151954191917062,2349.39459018911
0.24435336112407,2349.40459018911
0.326877352274676,2349.41459018911
0.397323929939466,2349.42459018911
0.455458478152202,2349.43459018911
0.501929181114594,2349.44459018911
0.539033273586204,2349.45459018911
0.566788720844495,2349.46459018911
0.586092775096495,2349.47459018911
0.597562912501215,2349.48459018911
0.601214414267616,2349.49459018911
0.597667377583381,2349.50459018911
0.587892932422136,2349.51459018911
0.572366043029278,2349.52459018911
0.552518414222903,2349.53459018911
0.530480153340004,2349.54459018911
0.507423157593394,2349.55459018911
0.482759270086807,2349.56459018911
0.457446894046744,2349.57459018911
0.430236014698882,2349.58459018911
0.402574260175263,2349.59459018911
0.374044176645496,2349.60459018911
0.344250208063443,2349.61459018911
0.313455958951491,2349.62459018911
0.281259681080714,2349.63459018911
0.249217413076925,2349.64459018911
0.218523508075361,2349.65459018911
0.191743490652018,2349.66459018911
0.170501720323636,2349.67459018911
0.155932902444181,2349.68459018911
0.14883474503163,2349.69459018911
0.149500816365393,2349.70459018911
0.15773972271493,2349.71459018911
0.172612801410182,2349.72459018911
0.191970892207369,2349.73459018911
0.212702892274633,2349.74459018911
0.232675952723808,2349.75459018911
0.249757196642607,2349.76459018911
0.263252396961542,2349.77459018911
0.273228877872464,2349.78459018911
0.278949137174454,2349.79459018911
0.280951759939602,2349.80459018911
0.279296882001605,2349.81459018911
0.27526927383946,2349.82459018911
0.269519588213559,2349.83459018911
0.261717240675898,2349.84459018911
0.252688739558946,2349.85459018911
0.241252455707997,2349.86459018911
0.227980546517307,2349.87459018911
0.212203295174994,2349.88459018911
0.194808594263622,2349.89459018911
0.175959204970397,2349.90459018911
0.15624709228375,2349.91459018911
0.135627048358393,2349.92459018911
0.114405689038848,2349.93459018911
0.0921644113615741,2349.94459018911
0.0700448894712079,2349.95459018911
0.0477401440799333,2349.96459018911
0.0261083853006918,2349.97459018911
0.00502889501903686,2349.98459018911
-0.0149558674663224,2349.99459018911
-0.0336873774859085,2350.00459018911
-0.0508382081253411,2350.01459018911
-0.0664402162449073,2350.02459018911
-0.0805053457780007,2350.03459018911
-0.0933356013401059,2350.04459018911
-0.105805950855865,2350.05459018911
-0.118290756342922,2350.06459018911
-0.130862576595857,2350.07459018911
-0.143639769814517,2350.08459018911
-0.157102649927044,2350.09459018911
-0.171172596297013,2350.10459018911
-0.184778721956747,2350.11459018911
-0.1978532434561,2350.12459018911
-0.210504515455927,2350.13459018911
-0.221536729978195,2350.14459018911
-0.229566996020052,2350.15459018911
-0.229486116103406,2350.16459018911
-0.214924035571411,2350.17459018911
-0.178643838635616,2350.18459018911
-0.116634850694872,2350.19459018911
-0.0300960303611309,2350.20459018911
0.0723813146431018,2350.21459018911
0.179910159709318,2350.22459018911
0.280917965743166,2350.23459018911
0.368117789685189,2350.24459018911
0.437728043403879,2350.25459018911
0.490651573839788,2350.26459018911
0.529499386385365,2350.27459018911
0.556393711862395,2350.28459018911
0.573870153435724,2350.29459018911
0.583043779648494,2350.30459018911
0.583791175692972,2350.31459018911
0.576815507135808,2350.32459018911
0.562399347649409,2350.33459018911
0.540403670011466,2350.34459018911
0.512551847063176,2350.35459018911
0.482020275318491,2350.36459018911
0.450380258831803,2350.37459018911
0.419406841375882,2350.38459018911
0.388798831309244,2350.39459018911
0.358854005058545,2350.40459018911
0.329367892773349,2350.41459018911
0.299432901292138,2350.42459018911
0.267979375716655,2350.43459018911
0.235816134214733,2350.44459018911
0.202720895903926,2350.45459018911
0.169582905648113,2350.46459018911
0.138387245615034,2350.47459018911
0.111346673560954,2350.48459018911
0.0907750230638549,2350.49459018911
0.0777949511184683,2350.50459018911
0.0725667423348742,2350.51459018911
0.0755681814444122,2350.52459018911
0.0848193352718752,2350.53459018911
0.0995306625129946,2350.54459018911
0.117367136113164,2350.55459018911
0.137283252322777,2350.56459018911
0.157092459761667,2350.57459018911
0.175044493184503,2350.58459018911
0.189586419309195,2350.59459018911
0.199659194059341,2350.60459018911
0.205295435990674,2350.61459018911
0.207214550163173,2350.62459018911
0.205611693099354,2350.63459018911
0.201741144316316,2350.64459018911
0.195127881180088,2350.65459018911
0.187409275545623,2350.66459018911
0.178029304289632,2350.67459018911
0.166555123114691,2350.68459018911
0.153616394311884,2350.69459018911
0.139124717052119,2350.70459018911
0.123633551946489,2350.71459018911
0.107039665142728,2350.72459018911
0.0893899263547445,2350.73459018911
0.0708859327064658,2350.74459018911
0.0509707401659717,2350.75459018911
0.0300092879888586,2350.76459018911
0.00987180260426402,2350.77459018911
-0.00821300859599749,2350.78459018911
-0.0240253727216517,2350.79459018911
-0.038730876952078,2350.80459018911
-0.0531703206151047,2350.81459018911
-0.0676799236838393,2350.82459018911
-0.0824947593862386,2350.83459018911
-0.0973504404874362,2350.84459018911
-0.112542564180308,2350.85459018911
-0.127361338492638,2350.86459018911
-0.142561452964989,2350.87459018911
-0.157715862142658,2350.88459018911
-0.172581600647308,2350.89459018911
-0.187029134556238,2350.90459018911
-0.201305877903556,2350.91459018911
-0.215761249392395,2350.92459018911
-0.230339818321085,2350.93459018911
-0.245946653675267,2350.94459018911
-0.261435711770281,2350.95459018911
-0.276103829669739,2350.96459018911
-0.288436024423974,2350.97459018911
-0.294809805168672,2350.98459018911
-0.289525720249298,2350.99459018911
-0.264797434699045,2351.00459018911
-0.214496378269194,2351.01459018911
-0.137580136529257,2351.02459018911
-0.0409108065724993,2351.03459018911
0.0636303385058662,2351.04459018911
0.163218442785086,2351.05459018911
0.249484426527348,2351.06459018911
0.318343191832553,2351.07459018911
0.369712200116934,2351.08459018911
0.405574990716178,2351.09459018911
0.42969848432452,2351.10459018911
0.445013626939865,2351.11459018911
0.453075674389095,2351.12459018911
0.454547770020508,2351.13459018911
0.449687994495075,2351.14459018911
0.438598277368285,2351.15459018911
0.421199816820365,2351.16459018911
0.39769583911152,2351.17459018911
0.370005166730428,2351.18459018911
0.340314445114503,2351.19459018911
0.310150234302634,2351.20459018911
0.280343079056317,2351.21459018911
0.250520741714003,2351.22459018911
0.220491146541832,2351.23459018911
0.190252349545124,2351.24459018911
0.15804298509376,2351.25459018911
0.12457759051697,2351.26459018911
0.0904146293264323,2351.27459018911
0.0560135097677853,2351.28459018911
0.0233918205753469,2351.29459018911
-0.0057064915269496,2351.30459018911
-0.027527316697473,2351.31459018911
-0.0406038093064462,2351.32459018911
-0.0437427626839659,2351.33459018911
-0.038497413996579,2351.34459018911
-0.0261780468300451,2351.35459018911
-0.00851147630072282,2351.36459018911
0.0123749362269824,2351.37459018911
0.0345505148907256,2351.38459018911
0.0559268790525698,2351.39459018911
0.0747838161903071,2351.40459018911
0.0898550101153878,2351.41459018911
0.100356979995441,2351.42459018911
0.106447935525593,2351.43459018911
0.108705781525872,2351.44459018911
0.107050706506886,2351.45459018911
0.103021312653622,2351.46459018911
0.0969701950223603,2351.47459018911
0.0895536718015394,2351.48459018911
0.0813185838110303,2351.49459018911
0.0717875657057114,2351.50459018911
0.0601988986404077,2351.51459018911
0.0474178616782827,2351.52459018911
0.0338480764912125,2351.53459018911
0.0193968161696756,2351.54459018911
0.00421075943802731,2351.55459018911
-0.0111100902232559,2351.56459018911
-0.0268567226248826,2351.57459018911
-0.0430538826218949,2351.58459018911
-0.0594653339939124,2351.59459018911
-0.0747214749586819,2351.60459018911
-0.0892434639481905,2351.61459018911
-0.102247251178933,2351.62459018911
-0.115136216894339,2351.63459018911
-0.12799768347571,2351.64459018911
-0.140544651820644,2351.65459018911
-0.152997667256901,2351.66459018911
-0.165073276992575,2351.67459018911
-0.177235352294327,2351.68459018911
-0.188872808466027,2351.69459018911
-0.201473606974894,2351.70459018911
-0.215015965981726,2351.71459018911
-0.22921187274414,2351.72459018911
-0.243222615156362,2351.73459018911
-0.256438092036137,2351.74459018911
-0.268262373706084,2351.75459018911
-0.277063187193338,2351.76459018911
-0.27871224963029,2351.77459018911
-0.267341443572878,2351.78459018911
-0.235650097022886,2351.79459018911
-0.179529498406188,2351.80459018911
-0.100600980711958,2351.81459018911
-0.00725002171286526,2351.82459018911
0.0882593680907007,2351.83459018911
0.176519859009563,2351.84459018911
0.250224430856542,2351.85459018911
0.308075237348464,2351.86459018911
0.350195871365791,2351.87459018911
0.379639471532651,2351.88459018911
0.398786528173936,2351.89459018911
0.409091171630935,2351.90459018911
0.413011677681287,2351.91459018911
0.411136509616692,2351.92459018911
0.404089481567002,2351.93459018911
0.39233896853056,2351.94459018911
0.376117377994663,2351.95459018911
0.356062840003638,2351.96459018911
0.333121280154637,2351.97459018911
0.307787467880748,2351.98459018911
0.280326979495776,2351.99459018911
0.25170157144027,2352.00459018911
0.22239512741625,2352.01459018911
0.194222299167234,2352.02459018911
0.165610268241518,2352.03459018911
0.135647755326418,2352.04459018911
0.104245555448803,2352.05459018911
0.0726020969329988,2352.06459018911
0.0421411665035538,2352.07459018911
0.0152985763978297,2352.08459018911
-0.00581043136982091,2352.09459018911
-0.0202257405459429,2352.10459018911
-0.0272898776464149,2352.11459018911
-0.0276938791846589,2352.12459018911
-0.021372497666009,2352.13459018911
-0.0079539002213004,2352.14459018911
0.00954468088182488,2352.15459018911
0.029425583630012,2352.16459018911
0.0493216406678246,2352.17459018911
0.0668471766185885,2352.18459018911
0.0814688659199891,2352.19459018911
0.0921757762102451,2352.20459018911
0.0995446051300454,2352.21459018911
0.102961735035667,2352.22459018911
0.103054168545316,2352.23459018911
0.10026783851575,2352.24459018911
0.0948950734125633,2352.25459018911
0.0879539407264579,2352.26459018911
0.0799573260589695,2352.27459018911
0.0703536931933785,2352.28459018911
0.0590952083431707,2352.29459018911
0.0462613558762673,2352.30459018911
0.0320050146360638,2352.31459018911
0.016883401989165,2352.32459018911
0.00146565522312574,2352.33459018911
-0.0147677864423105,2352.34459018911
-0.0312814093109165,2352.35459018911
-0.0473765914273261,2352.36459018911
-0.0634671747654298,2352.37459018911
-0.0786314977160088,2352.38459018911
-0.093480088762078,2352.39459018911
-0.108374445052459,2352.40459018911
-0.122914590918678,2352.41459018911
-0.137444454932693,2352.42459018911
-0.151196294761546,2352.43459018911
-0.164529995942695,2352.44459018911
-0.178020919150235,2352.45459018911
-0.192167180653735,2352.46459018911
-0.206540528572049,2352.47459018911
-0.221414281199632,2352.48459018911
-0.236215919218838,2352.49459018911
-0.251510294995709,2352.50459018911
-0.267490495865012,2352.51459018911
-0.284096875808488,2352.52459018911
-0.30193986217719,2352.53459018911
-0.319044132776706,2352.54459018911
-0.33189935601257,2352.55459018911
-0.33545425176241,2352.56459018911
-0.324523316795759,2352.57459018911
-0.293207665734076,2352.58459018911
-0.236881497852181,2352.59459018911
-0.156527830882772,2352.60459018911
-0.060079193023741,2352.61459018911
0.0403160213728721,2352.62459018911
0.133934816304431,2352.63459018911
0.214783160772057,2352.64459018911
0.27960886583459,2352.65459018911
0.329746611824393,2352.66459018911
0.36578049395652,2352.67459018911
0.390945663719451,2352.68459018911
0.406934925346053,2352.69459018911
0.414747835579708,2352.70459018911
0.416254618921573,2352.71459018911
0.411670760079097,2352.72459018911
0.402277412410477,2352.73459018911
0.388696363936046,2352.74459018911
0.372145269337011,2352.75459018911
0.352729536295177,2352.76459018911
0.332301082886052,2352.77459018911
0.310523703528736,2352.78459018911
0.288642299947563,2352.79459018911
0.266586833923395,2352.80459018911
0.244078108193876,2352.81459018911
0.219996857025622,2352.82459018911
0.194286932263023,2352.83459018911
0.167098556171975,2352.84459018911
0.139298099421509,2352.85459018911
0.111625373492693,2352.86459018911
0.0855552061674978,2352.87459018911
0.0620824305256358,2352.88459018911
0.0431233549707273,2352.89459018911
0.0303659305618396,2352.90459018911
0.0245934294168435,2352.91459018911
0.0259618621438153,2352.92459018911
0.0327996097307439,2352.93459018911
0.0441792335365966,2352.94459018911
0.057458842236401,2352.95459018911
0.0722108968248224,2352.96459018911
0.0873767022345712,2352.97459018911
0.103114805624752,2352.98459018911
0.117017730746435,2352.99459018911
0.127843701157328,2353.00459018911
0.135632269763261,2353.01459018911
0.139397565151276,2353.02459018911
0.140216501501496,2353.03459018911
0.138122488556676,2353.04459018911
0.134098292215867,2353.05459018911
0.127577632637193,2353.06459018911
0.119260887742529,2353.07459018911
0.108878258692629,2353.08459018911
0.0973767820606773,2353.09459018911
0.0848870980041321,2353.10459018911
0.0713034647033312,2353.11459018911
0.0573913788114477,2353.12459018911
0.0427550530904792,2353.13459018911
0.0283799883988726,2353.14459018911
0.014428445228686,2353.15459018911
0.000449208463172471,2353.16459018911
-0.0135604901395302,2353.17459018911
-0.0275739033729953,2353.18459018911
-0.0414588441192617,2353.19459018911
-0.0560682226350338,2353.20459018911
-0.0699084764654715,2353.21459018911
-0.0837816230700216,2353.22459018911
-0.0975774312100126,2353.23459018911
-0.111152640975475,2353.24459018911
-0.124596743057852,2353.25459018911
-0.137914921703379,2353.26459018911
-0.151493492429712,2353.27459018911
-0.164999413117702,2353.28459018911
-0.178890092411841,2353.29459018911
-0.193271804666605,2353.30459018911
-0.207804343836721,2353.31459018911
-0.22215858651679,2353.32459018911
-0.237105809815994,2353.33459018911
-0.252384317448012,2353.34459018911
-0.267550364137017,2353.35459018911
-0.28170623026358,2353.36459018911
-0.292260186305416,2353.37459018911
-0.29567129299265,2353.38459018911
-0.285048007962052,2353.39459018911
-0.252563519980086,2353.40459018911
-0.194000320084708,2353.41459018911
-0.110348402197696,2353.42459018911
-0.0114672949771087,2353.43459018911
0.0895984018805141,2353.44459018911
0.182789972006641,2353.45459018911
0.261161313225668,2353.46459018911
0.322667016288411,2353.47459018911
0.366721258333775,2353.48459018911
0.39750761096797,2353.49459018911
0.417493369613345,2353.50459018911
0.429465215355046,2353.51459018911
0.435245818766798,2353.52459018911
0.434816220300132,2353.53459018911
0.429322092874561,2353.54459018911
0.418786287830686,2353.55459018911
0.404012538929644,2353.56459018911
0.385661672502392,2353.57459018911
0.364596087355277,2353.58459018911
0.342835637600185,2353.59459018911
0.319949855348529,2353.60459018911
0.296406781452661,2353.61459018911
0.273019623156785,2353.62459018911
0.249006315281783,2353.63459018911
0.223629987244563,2353.64459018911
0.196571793435774,2353.65459018911
0.167733132898914,2353.66459018911
0.138000249969706,2353.67459018911
0.109138366659241,2353.68459018911
0.0818001950402353,2353.69459018911
0.0583909941683451,2353.70459018911
0.0403126959326549,2353.71459018911
0.0288682766599365,2353.72459018911
0.0243916395406166,2353.73459018911
0.0274804144127075,2353.74459018911
0.0366130797608,2353.75459018911
0.0508520757296275,2353.76459018911
0.0684631101688638,2353.77459018911
0.0869253385492549,2353.78459018911
0.10538908403105,2353.79459018911
0.122134343649768,2353.80459018911
0.13585150847519,2353.81459018911
0.146022889656678,2353.82459018911
0.152379714267127,2353.83459018911
0.155317337560975,2353.84459018911
0.155813375882911,2353.85459018911
0.153822018736329,2353.86459018911
0.150112679957842,2353.87459018911
0.144221030490593,2353.88459018911
0.136525087893777,2353.89459018911
0.12687986260489,2353.90459018911
0.115739468678644,2353.91459018911
0.103717708692266,2353.92459018911
0.0909582531309751,2353.93459018911
0.0771316321071886,2353.94459018911
0.062550034295517,2353.95459018911
0.0469889659566526,2353.96459018911
0.0306580508219643,2353.97459018911
0.0144155379628967,2353.98459018911
-0.00165000249210834,2353.99459018911
-0.0174018851925293,2354.00459018911
-0.0326430260806236,2354.01459018911
-0.047010305720617,2354.02459018911
-0.0603328420539037,2354.03459018911
-0.0729470436249933,2354.04459018911
-0.0849336727349229,2354.05459018911
-0.0968216285957105,2354.06459018911
-0.108591614408965,2354.07459018911
-0.120629345706123,2354.08459018911
-0.132381070834881,2354.09459018911
-0.144656631657702,2354.10459018911
-0.157956216687353,2354.11459018911
-0.171379996533482,2354.12459018911
-0.185182118624179,2354.13459018911
-0.199087289716651,2354.14459018911
-0.213106516978715,2354.15459018911
-0.226516418752908,2354.16459018911
-0.238210707202871,2354.17459018911
-0.246629689908853,2354.18459018911
-0.247982418618257,2354.19459018911
-0.235224214495028,2354.20459018911
-0.201777221466613,2354.21459018911
-0.14321333402865,2354.22459018911
-0.0623231551604828,2354.23459018911
0.0311991074897314,2354.24459018911
0.125064465858551,2354.25459018911
0.210039537592907,2354.26459018911
0.280651544643917,2354.27459018911
0.335414299590768,2354.28459018911
0.37522586158171,2354.29459018911
0.40210844606851,2354.30459018911
0.418968376787449,2354.31459018911
0.427543933532992,2354.32459018911
0.429687852154692,2354.33459018911
0.426450982597898,2354.34459018911
0.417422217413575,2354.35459018911
0.404144268567038,2354.36459018911
0.38691697022774,2354.37459018911
0.366817107788766,2354.38459018911
0.344837968359297,2354.39459018911
0.32068486627175,2354.40459018911
0.295268935979131,2354.41459018911
0.268406440260626,2354.42459018911
0.24134250521705,2354.43459018911
0.213765994199547,2354.44459018911
0.186154612275153,2354.45459018911
0.157408136481581,2354.46459018911
0.127156278537928,2354.47459018911
0.0963505953330307,2354.48459018911
0.0665788060467141,2354.49459018911
0.0400243268006439,2354.50459018911
0.0191868914745227,2354.51459018911
0.00638392619681146,2354.52459018911
0.00145703801695622,2354.53459018911
0.00494163660287358,2354.54459018911
0.0157695948019479,2354.55459018911
0.0324979183753636,2354.56459018911
0.0534055975996077,2354.57459018911
0.0751866109680374,2354.58459018911
0.0956235658878314,2354.59459018911
0.113110134793394,2354.60459018911
0.126702983253025,2354.61459018911
0.136775639568412,2354.62459018911
0.143117383222179,2354.63459018911
0.145773150425212,2354.64459018911
0.145228330685739,2354.65459018911
0.141776347147542,2354.66459018911
0.136636382164082,2354.67459018911
0.130334407371637,2354.68459018911
0.123231745184497,2354.69459018911
0.11572452621918,2354.70459018911
0.107615209475881,2354.71459018911
0.0984757741930922,2354.72459018911
0.0871815574096716,2354.73459018911
0.075348635180223,2354.74459018911
0.0620759584060219,2354.75459018911
0.0483102851134253,2354.76459018911
0.0337338200278753,2354.77459018911
0.0190920144279348,2354.78459018911
0.00435274579964463,2354.79459018911
-0.0109928812726015,2354.80459018911
-0.0257714492965037,2354.81459018911
-0.0411597887415882,2354.82459018911
-0.0546899954522601,2354.83459018911
-0.0679127538233054,2354.84459018911
-0.0806679060844582,2354.85459018911
-0.0926714133382246,2354.86459018911
-0.104805991242322,2354.87459018911
-0.11666883474364,2354.88459018911
-0.128319038911161,2354.89459018911
-0.140038456464126,2354.90459018911
-0.151839830041028,2354.91459018911
-0.16396994763032,2354.92459018911
-0.176607695090812,2354.93459018911
-0.188859686185125,2354.94459018911
-0.202100361768322,2354.95459018911
-0.215216281124594,2354.96459018911
-0.227687156261011,2354.97459018911
-0.238540991757891,2354.98459018911
-0.244730411915919,2354.99459018911
-0.241890936384064,2355.00459018911
-0.223442030497847,2355.01459018911
-0.181901063974704,2355.02459018911
-0.115357554230364,2355.03459018911
-0.0284971009979653,2355.04459018911
0.0673771698753309,2355.05459018911
0.16111699867383,2355.06459018911
0.244542361070418,2355.07459018911
0.313720297166972,2355.08459018911
0.368200468434114,2355.09459018911
0.410039227534226,2355.10459018911
0.441775928395881,2355.11459018911
0.465095589404104,2355.12459018911
0.481005878988104,2355.13459018911
0.489074243478233,2355.14459018911
0.490444372117219,2355.15459018911
0.485446298294541,2355.16459018911
0.476150736544172,2355.17459018911
0.462714205311664,2355.18459018911
0.44638024049796,2355.19459018911
0.428271251361213,2355.20459018911
0.408527443892184,2355.21459018911
0.387676715797251,2355.22459018911
0.365594314887936,2355.23459018911
0.342336765196778,2355.24459018911
0.317639710635352,2355.25459018911
0.290990217740029,2355.26459018911
0.263165911799829,2355.27459018911
0.234161730714308,2355.28459018911
0.20475081957415,2355.29459018911
0.176408587206012,2355.30459018911
0.150077655854726,2355.31459018911
0.127412225848741,2355.32459018911
0.11038871239911,2355.33459018911
0.100578332415491,2355.34459018911
0.0985302876836796,2355.35459018911
0.103270796340738,2355.36459018911
0.113591696564877,2355.37459018911
0.128330219034023,2355.38459018911
0.145570570642761,2355.39459018911
0.163829529250903,2355.40459018911
0.180791059234934,2355.41459018911
0.194841589535851,2355.42459018911
0.205419313743158,2355.43459018911
0.212254942991487,2355.44459018911
0.214840688738703,2355.45459018911
0.214519971168553,2355.46459018911
0.21131513575685,2355.47459018911
0.206566530493828,2355.48459018911
0.199833924658717,2355.49459018911
0.191753769723996,2355.50459018911
0.18321603849276,2355.51459018911
0.173929295882824,2355.52459018911
0.163923676974408,2355.53459018911
0.152993595485494,2355.54459018911
0.140733185352028,2355.55459018911
0.127336096218787,2355.56459018911
0.112880918156498,2355.57459018911
0.0980576258086645,2355.58459018911
0.0827595744324066,2355.59459018911
0.066500637550394,2355.60459018911
0.0500013915286538,2355.61459018911
0.0339432078231128,2355.62459018911
0.0178018851089401,2355.63459018911
0.00267264298601182,2355.64459018911
-0.0122358512378854,2355.65459018911
-0.0263967724818753,2355.66459018911
-0.0404211966238557,2355.67459018911
-0.0538863736793013,2355.68459018911
-0.0662346351102958,2355.69459018911
-0.0782844465890026,2355.70459018911
-0.0895673350266344,2355.71459018911
-0.100909685840811,2355.72459018911
-0.1123582099202,2355.73459018911
-0.12448166150502,2355.74459018911
-0.137420357613034,2355.75459018911
-0.151224176585235,2355.76459018911
-0.165431017632405,2355.77459018911
-0.180162921967574,2355.78459018911
-0.194943579323042,2355.79459018911
-0.209172382374277,2355.80459018911
-0.22074404640421,2355.81459018911
-0.224797170770195,2355.82459018911
-0.215732959467561,2355.83459018911
-0.185962132289632,2355.84459018911
-0.130192204567146,2355.85459018911
-0.0509235663249853,2355.86459018911
0.0433770153565754,2355.87459018911
0.140057226071054,2355.88459018911
0.230041980976446,2355.89459018911
0.306597278305764,2355.90459018911
0.367921656156125,2355.91459018911
0.415313557739119,2355.92459018911
0.450241580177351,2355.93459018911
0.475857052508165,2355.94459018911
0.492476239437301,2355.95459018911
0.501207968971694,2355.96459018911
0.502739735052458,2355.97459018911
0.498051219679943,2355.98459018911
0.488726945703587,2355.99459018911
0.474567598876106,2356.00459018911
0.457459239365054,2356.01459018911
0.437029471387893,2356.02459018911
0.415031694365758,2356.03459018911
0.391597474828837,2356.04459018911
0.36717492240254,2356.05459018911
0.342786674197944,2356.06459018911
0.318077608715813,2356.07459018911
0.292887948113213,2356.08459018911
0.266340737993456,2356.09459018911
0.2394409675364,2356.10459018911
0.211533011872399,2356.11459018911
0.184046085940106,2356.12459018911
0.157958846413954,2356.13459018911
0.134833430035707,2356.14459018911
0.116436272203542,2356.15459018911
0.103966880875912,2356.16459018911
0.098111833083807,2356.17459018911
0.097945857992185,2356.18459018911
0.104192457077782,2356.19459018911
0.114968370660325,2356.20459018911
0.128856117274041,2356.21459018911
0.144891748011401,2356.22459018911
0.161587980472696,2356.23459018911
0.177293337012198,2356.24459018911
0.191074770539329,2356.25459018911
0.201242976095159,2356.26459018911
0.207445983350982,2356.27459018911
0.210120089873584,2356.28459018911
0.209668060126883,2356.29459018911
0.206304343826537,2356.30459018911
0.20032324706625,2356.31459018911
0.1920982420013,2356.32459018911
0.18123541307916,2356.33459018911
0.169183886143621,2356.34459018911
0.155947239240299,2356.35459018911
0.142012244739792,2356.36459018911
0.127425625607914,2356.37459018911
0.113063588998431,2356.38459018911
0.0990307937242503,2356.39459018911
0.0847569545565136,2356.40459018911
0.0704607244996074,2356.41459018911
0.0564175252509325,2356.42459018911
0.0429281774644013,2356.43459018911
0.0292993159940335,2356.44459018911
0.0155806362101643,2356.45459018911
0.00167920829643979,2356.46459018911
-0.012933579659422,2356.47459018911
-0.0275912628930668,2356.48459018911
-0.04287604191534,2356.49459018911
-0.0585025457035218,2356.50459018911
-0.073873380134859,2356.51459018911
-0.088934010714632,2356.52459018911
-0.103609286498003,2356.53459018911
-0.118864745427773,2356.54459018911
-0.134950341518418,2356.55459018911
-0.151356565896948,2356.56459018911
-0.168135884505719,2356.57459018911
-0.183890861395456,2356.58459018911
-0.197390401401832,2356.59459018911
-0.206088707745302,2356.60459018911
-0.205378936399855,2356.61459018911
-0.189146893393248,2356.62459018911
-0.15072806246813,2356.63459018911
-0.0875444427176518,2356.64459018911
-0.00394037531210894,2356.65459018911
0.0898791634118641,2356.66459018911
0.182297782547851,2356.67459018911
0.265000161978047,2356.68459018911
0.333083048065277,2356.69459018911
0.386119194474364,2356.70459018911
0.42495263408388,2356.71459018911
0.452225274061791,2356.72459018911
0.470589259303899,2356.73459018911
0.480796898410109,2356.74459018911
0.4836941154512,2356.75459018911
0.47963048196002,2356.76459018911
0.469827716211853,2356.77459018911
0.454650909652014,2356.78459018911
0.43553227286711,2356.79459018911
0.413153411266925,2356.80459018911
0.388542700887705,2356.81459018911
0.362440602162869,2356.82459018911
0.335762848415875,2356.83459018911
0.308596633914502,2356.84459018911
0.2816467273016,2356.85459018911
0.254723409655945,2356.86459018911
0.226417086847023,2356.87459018911
0.196790654464523,2356.88459018911
0.166097961958722,2356.89459018911
0.13439233831743,2356.90459018911
0.103277811524761,2356.91459018911
0.0746591945872116,2356.92459018911
0.0503896806149107,2356.93459018911
0.0326607986011684,2356.94459018911
0.0223473160217632,2356.95459018911
0.0199161083201972,2356.96459018911
0.0247868946483661,2356.97459018911
0.0360446432792216,2356.98459018911
0.0514928493221861,2356.99459018911
0.0691549171047556,2357.00459018911
0.0871931823877866,2357.01459018911
0.103623869228444,2357.02459018911
0.116915521366729,2357.03459018911
0.126640724657271,2357.04459018911
0.133489592513561,2357.05459018911
0.137019289053453,2357.06459018911
0.137886044105079,2357.07459018911
0.135424467751568,2357.08459018911
0.129290795609984,2357.09459018911
0.120646115894128,2357.10459018911
0.109670101753889,2357.11459018911
0.0970517622751652,2357.12459018911
0.0825599585925552,2357.13459018911
0.0672625896728716,2357.14459018911
0.0511197473239769,2357.15459018911
0.0345532533313349,2357.16459018911
0.018093540266992,2357.17459018911
0.00237235017180701,2357.18459018911
-0.0133313348708639,2357.19459018911
-0.0288590352344458,2357.20459018911
-0.0449695967020823,2357.21459018911
-0.0618309792760197,2357.22459018911
-0.0791605175452276,2357.23459018911
-0.0970822485891378,2357.24459018911
-0.115231813665392,2357.25459018911
-0.133605352847625,2357.26459018911
-0.152466521953541,2357.27459018911
-0.171538950579342,2357.28459018911
-0.191303225242808,2357.29459018911
-0.211270641122303,2357.30459018911
-0.231288124306411,2357.31459018911
-0.251398284860805,2357.32459018911
-0.270002352963515,2357.33459018911
-0.285434769909826,2357.34459018911
-0.29403598135534,2357.35459018911
-0.28889485320622,2357.36459018911
-0.262916913759887,2357.37459018911
-0.209352040446031,2357.38459018911
-0.130146099379847,2357.39459018911
-0.0344344582541006,2357.40459018911
0.0656001201510483,2357.41459018911
0.158047557222258,2357.42459018911
0.236603932209564,2357.43459018911
0.297629147274447,2357.44459018911
0.341763206042102,2357.45459018911
0.372349042130304,2357.46459018911
0.392974655003939,2357.47459018911
0.404925342801892,2357.48459018911
0.410280824877979,2357.49459018911
0.409243989346549,2357.50459018911
0.401645066004485,2357.51459018911
0.387956958783644,2357.52459018911
0.368785796893859,2357.53459018911
0.344584068084061,2357.54459018911
0.317188660192409,2357.55459018911
0.287626903143931,2357.56459018911
0.256158786250456,2357.57459018911
0.223588346887393,2357.58459018911
0.191190418223519,2357.59459018911
0.159706332610231,2357.60459018911
0.128694993750686,2357.61459018911
0.0967788047843005,2357.62459018911
0.0635733783224857,2357.63459018911
0.0286634683887838,2357.64459018911
-0.00534603904946192,2357.65459018911
-0.0364344321247112,2357.66459018911
-0.0621081312740695,2357.67459018911
-0.0804039936988813,2357.68459018911
-0.0896773227949265,2357.69459018911
-0.0897323744464092,2357.70459018911
-0.0814606131378091,2357.71459018911
-0.0654963260673733,2357.72459018911
-0.0436980856890964,2357.73459018911
-0.0184526566548797,2357.74459018911
0.00807918844081103,2357.75459018911
0.0328823752018735,2357.76459018911
0.0547840329256395,2357.77459018911
0.07300115358072,2357.78459018911
0.0866808275169874,2357.79459018911
0.0959322530036116,2357.80459018911
0.10146496271673,2357.81459018911
0.103816689329236,2357.82459018911
0.102595906446723,2357.83459018911
0.0990191908306889,2357.84459018911
0.0930619296372252,2357.85459018911
0.0847375492919232,2357.86459018911
0.0745737833813933,2357.87459018911
0.0628374372598484,2357.88459018911
0.0502928172171739,2357.89459018911
0.0371458500692652,2357.90459018911
0.0225822357194835,2357.91459018911
0.00721764758702413,2357.92459018911
-0.00944697517395321,2357.93459018911
-0.027850468201379,2357.94459018911
-0.0473362015972752,2357.95459018911
-0.0681602531223307,2357.96459018911
-0.0896773788634399,2357.97459018911
-0.111488154471355,2357.98459018911
-0.133919383776892,2357.99459018911
-0.155294560598709,2358.00459018911
-0.175576843629715,2358.01459018911
-0.194849652628062,2358.02459018911
-0.212213263029724,2358.03459018911
-0.227121251154839,2358.04459018911
-0.237594136146804,2358.05459018911
-0.238109595771287,2358.06459018911
-0.22200217715344,2358.07459018911
-0.182955303365306,2358.08459018911
-0.117561104182904,2358.09459018911
-0.0313557604585187,2358.10459018911
0.0649749770549852,2358.11459018911
0.159036916045563,2358.12459018911
0.242259295442705,2358.13459018911
0.30964223185591,2358.14459018911
0.360495059617419,2358.15459018911
0.39727827828148,2358.16459018911
0.422178303991849,2358.17459018911
0.438099208946541,2358.18459018911
0.446246718674794,2358.19459018911
0.447223250710735,2358.20459018911
0.441727311689824,2358.21459018911
0.429106224544683,2358.22459018911
0.410357141047196,2358.23459018911
0.386725542990248,2358.24459018911
0.359320052094911,2358.25459018911
0.330273540312047,2358.26459018911
0.300143927333435,2358.27459018911
0.270373626931823,2358.28459018911
0.241556689056902,2358.29459018911
0.212573022129105,2358.30459018911
0.184119236013635,2358.31459018911
0.153417045539284,2358.32459018911
0.121131978299541,2358.33459018911
0.0870916353485564,2358.34459018911
0.051979657914405,2358.35459018911
0.0182242308420659,2358.36459018911
-0.0116847947512507,2358.37459018911
-0.0354071047240713,2358.38459018911
-0.0520270601465763,2358.39459018911
-0.0598038595852871,2358.40459018911
-0.0589932203561029,2358.41459018911
-0.0503229292098062,2358.42459018911
-0.0356911864328709,2358.43459018911
-0.0167888206661236,2358.44459018911
0.00400629709912055,2358.45459018911
0.0244525777996983,2358.46459018911
0.0427272781599549,2358.47459018911
0.0573043046652209,2358.48459018911
0.0674635068671787,2358.49459018911
0.0728597067213966,2358.50459018911
0.0738929096999079,2358.51459018911
0.0707011811855188,2358.52459018911
0.0647365708187554,2358.53459018911
0.0567754868653038,2358.54459018911
0.0478528756033434,2358.55459018911
0.0381803419849822,2358.56459018911
0.0278378102732798,2358.57459018911
0.017177095313385,2358.58459018911
0.00560502697875439,2358.59459018911
-0.00655009803829114,2358.60459018911
-0.0195264599671664,2358.61459018911
-0.0328731206609303,2358.62459018911
-0.0466195825762952,2358.63459018911
-0.060682032638214,2358.64459018911
-0.0750643618604201,2358.65459018911
-0.0904853646603756,2358.66459018911
-0.106175425713642,2358.67459018911
-0.123102493085464,2358.68459018911
-0.141368003609096,2358.69459018911
-0.1606318562835,2358.70459018911
-0.18033863413064,2358.71459018911
-0.200059791918201,2358.72459018911
-0.219168988438432,2358.73459018911
-0.237211099002191,2358.74459018911
-0.252309725834408,2358.75459018911
-0.260776874147804,2358.76459018911
-0.256413494708909,2358.77459018911
-0.231460959497478,2358.78459018911
-0.180546969084102,2358.79459018911
-0.105011918696981,2358.80459018911
-0.0123349035478996,2358.81459018911
0.0844734288458566,2358.82459018911
0.175453012040101,2358.83459018911
0.254425335603628,2358.84459018911
0.317412258736935,2358.85459018911
0.3653827796878,2358.86459018911
0.400894132353197,2358.87459018911
0.425094248166292,2358.88459018911
0.440180570600277,2358.89459018911
0.447395761529347,2358.90459018911
0.446934086570622,2358.91459018911
0.439234777996008,2358.92459018911
0.424849930899552,2358.93459018911
0.404496691472416,2358.94459018911
0.379963489772821,2358.95459018911
0.352609090247785,2358.96459018911
0.324361142289683,2358.97459018911
0.295614966245166,2358.98459018911
0.266737246040385,2358.99459018911
0.237466594352168,2359.00459018911
0.207555881363127,2359.01459018911
0.176264290319286,2359.02459018911
0.143462015623798,2359.03459018911
0.109280030652904,2359.04459018911
0.0746160546551617,2359.05459018911
0.0412319059570096,2359.06459018911
0.0108470836950463,2359.07459018911
-0.0143319331280015,2359.08459018911
-0.03251476250438,2359.09459018911
-0.0423726823254197,2359.10459018911
-0.0437338651856293,2359.11459018911
-0.0365124542190191,2359.12459018911
-0.0220310114281857,2359.13459018911
-0.00239196128162139,2359.14459018911
0.0195884372198374,2359.15459018911
0.0413067635551982,2359.16459018911
0.0615241237394291,2359.17459018911
0.0782650691399195,2359.18459018911
0.0908488338109533,2359.19459018911
0.100173188281675,2359.20459018911
0.104849906131991,2359.21459018911
0.104873082844732,2359.22459018911
0.100552923501569,2359.23459018911
0.093550135885946,2359.24459018911
0.0852507459234128,2359.25459018911
0.0756305648308573,2359.26459018911
0.0650033674897072,2359.27459018911
0.0531891874990987,2359.28459018911
0.0398189489688793,2359.29459018911
0.0256224644257237,2359.30459018911
0.0103534378938363,2359.31459018911
-0.00451073609633241,2359.32459018911
-0.0195405799344311,2359.33459018911
-0.0351030622170621,2359.34459018911
-0.0513369210330292,2359.35459018911
-0.0692503970557758,2359.36459018911
-0.087069156133505,2359.37459018911
-0.104819379714424,2359.38459018911
-0.122755999974473,2359.39459018911
-0.141501537713146,2359.40459018911
-0.160957409199205,2359.41459018911
-0.181365255696171,2359.42459018911
-0.201849337557328,2359.43459018911
-0.221327944961933,2359.44459018911
-0.238019382921419,2359.45459018911
-0.249401892860296,2359.46459018911
-0.249703472482376,2359.47459018911
-0.23156581882719,2359.48459018911
-0.188172704067441,2359.49459018911
-0.118693928451037,2359.50459018911
-0.0292587963993171,2359.51459018911
0.0676317821076926,2359.52459018911
0.161553289661253,2359.53459018911
0.243891643834005,2359.54459018911
0.310610111758536,2359.55459018911
0.361522622310557,2359.56459018911
0.397997813963441,2359.57459018911
0.423832055459918,2359.58459018911
0.44076062039965,2359.59459018911
0.450105455928574,2359.60459018911
0.45257353795415,2359.61459018911
0.447704515319482,2359.62459018911
0.436026410800156,2359.63459018911
0.417961339181861,2359.64459018911
0.394677364583851,2359.65459018911
0.368684626588878,2359.66459018911
0.340480026568902,2359.67459018911
0.31187427534023,2359.68459018911
0.28252107846491,2359.69459018911
0.252807816810134,2359.70459018911
0.222311868611315,2359.71459018911
0.190827703001596,2359.72459018911
0.15856472870741,2359.73459018911
0.125198548776543,2359.74459018911
0.0914729365076876,2359.75459018911
0.0581916434408472,2359.76459018911
0.0266163173412257,2359.77459018911
2.77202646047476e-05,2359.78459018911
-0.0190780074758233,2359.79459018911
-0.0295556917464606,2359.80459018911
-0.0307155530953125,2359.81459018911
-0.0231122652711577,2359.82459018911
-0.00818311984577975,2359.83459018911
0.0113605559158287,2359.84459018911
0.033403544547417,2359.85459018911
0.0555207703835767,2359.86459018911
0.0751773630404673,2359.87459018911
0.0908863844096216,2359.88459018911
0.102463005042343,2359.89459018911
0.109695410924559,2359.90459018911
0.113237782441344,2359.91459018911
0.113156497584857,2359.92459018911
0.109492090398411,2359.93459018911
0.103746905343902,2359.94459018911
0.0963398418076956,2359.95459018911
0.0876704016597378,2359.96459018911
0.0776079889814995,2359.97459018911
0.0658526423372371,2359.98459018911
0.053156011654777,2359.99459018911
0.0393818220769839,2360.00459018911
0.0250359113194979,2360.01459018911
0.0103901193143845,2360.02459018911
-0.0038511395833379,2360.03459018911
-0.0183458265328734,2360.04459018911
-0.0334536991275344,2360.05459018911
-0.0492812122014869,2360.06459018911
-0.064873200839646,2360.07459018911
-0.0807208223027458,2360.08459018911
-0.0969097736562906,2360.09459018911
-0.113096269690424,2360.10459018911
-0.129586758129437,2360.11459018911
-0.145512911393306,2360.12459018911
-0.160582946036314,2360.13459018911
-0.175595091275038,2360.14459018911
-0.188651061654847,2360.15459018911
-0.197856182772498,2360.16459018911
-0.199108490346391,2360.17459018911
-0.185294534615197,2360.18459018911
-0.150165183093446,2360.19459018911
-0.0909709518687518,2360.20459018911
-0.0117635927831391,2360.21459018911
0.07683381655216,2360.22459018911
0.16502130025842,2360.23459018911
0.243931007433306,2360.24459018911
0.308996029971955,2360.25459018911
0.358970977165245,2360.26459018911
0.395486039788763,2360.27459018911
0.420373916258016,2360.28459018911
0.435745100335027,2360.29459018911
0.442904583912337,2360.30459018911
0.442785959125,2360.31459018911
0.437400503903045,2360.32459018911
0.426241211035423,2360.33459018911
0.410196051535868,2360.34459018911
0.390130697130013,2360.35459018911
0.366924264174185,2360.36459018911
0.341019683946799,2360.37459018911
0.312945671979884,2360.38459018911
0.28325734219135,2360.39459018911
0.252382296037874,2360.40459018911
0.220196021497644,2360.41459018911
0.186532289645034,2360.42459018911
0.150380446242127,2360.43459018911
0.112869106039409,2360.44459018911
0.0751680276421187,2360.45459018911
0.0381399447291157,2360.46459018911
0.00468874945523312,2360.47459018911
-0.0221844863273244,2360.48459018911
-0.0402904431105367,2360.49459018911
-0.048228300378688,2360.50459018911
-0.0464822335644209,2360.51459018911
-0.0363232670925738,2360.52459018911
-0.0194591440340502,2360.53459018911
0.00238931777694405,2360.54459018911
0.0265652599902751,2360.55459018911
0.0507115610722337,2360.56459018911
0.0727839241298294,2360.57459018911
0.0903690008642212,2360.58459018911
0.102286526741539,2360.59459018911
0.10907808381379,2360.60459018911
0.111161553682881,2360.61459018911
0.110321037992844,2360.62459018911
0.106084932779498,2360.63459018911
0.0999358905734541,2360.64459018911
0.0923190056371992,2360.65459018911
0.0830672498550832,2360.66459018911
0.0729382657893957,2360.67459018911
0.0615183803522765,2360.68459018911
0.0497217625347816,2360.69459018911
0.0374666938382314,2360.70459018911
0.025219622209269,2360.71459018911
0.0134710470526626,2360.72459018911
0.00197909437779458,2360.73459018911
-0.0096168349708071,2360.74459018911
-0.0216486212434927,2360.75459018911
-0.0344037785241248,2360.76459018911
-0.0476461449784891,2360.77459018911
-0.0613606397986558,2360.78459018911
-0.0754803292544398,2360.79459018911
-0.0904157671595469,2360.80459018911
-0.106064739006975,2360.81459018911
-0.122281462337529,2360.82459018911
-0.138143784114435,2360.83459018911
-0.152895260945399,2360.84459018911
-0.164220769182065,2360.85459018911
-0.16821928607536,2360.86459018911
-0.160006362251538,2360.87459018911
-0.13149062562799,2360.88459018911
-0.0790575928851773,2360.89459018911
-0.00557802921452955,2360.90459018911
0.0805018962724414,2360.91459018911
0.169042227992978,2360.92459018911
0.251479865437106,2360.93459018911
0.322004912314301,2360.94459018911
0.380185388549024,2360.95459018911
0.42640265084461,2360.96459018911
0.462185428484528,2360.97459018911
0.488716990607677,2360.98459018911
0.506235863924957,2360.99459018911
0.514869817245664,2361.00459018911
0.51630566866427,2361.01459018911
0.510564545797602,2361.02459018911
0.499262177570323,2361.03459018911
0.483534246576831,2361.04459018911
0.4638269682492,2361.05459018911
0.441346489297074,2361.06459018911
0.416969278844159,2361.07459018911
0.391473883990115,2361.08459018911
0.364513874789889,2361.09459018911
0.336589884854009,2361.10459018911
0.307474340280277,2361.11459018911
0.277059477000277,2361.12459018911
0.244415504442932,2361.13459018911
0.210857899387643,2361.14459018911
0.177588354582892,2361.15459018911
0.146358618081128,2361.16459018911
0.119431724808317,2361.17459018911
0.0971483004668332,2361.18459018911
0.0815867888093192,2361.19459018911
0.07299575674357,2361.20459018911
0.0719944533305064,2361.21459018911
0.0780568328180249,2361.22459018911
0.0894546588763426,2361.23459018911
0.105233153309856,2361.24459018911
0.123013015887993,2361.25459018911
0.141428141332218,2361.26459018911
0.158412023692976,2361.27459018911
0.17282513548218,2361.28459018911
0.18273021385512,2361.29459018911
0.189572379317646,2361.30459018911
0.192322550093724,2361.31459018911
0.191430960901218,2361.32459018911
0.187866209978035,2361.33459018911
0.181977240650921,2361.34459018911
0.174080197525179,2361.35459018911
0.163823166406742,2361.36459018911
0.152612637105943,2361.37459018911
0.140056775742566,2361.38459018911
0.127449805334683,2361.39459018911
0.114762308240774,2361.40459018911
0.102003570999166,2361.41459018911
0.0887322354378459,2361.42459018911
0.0749570358410278,2361.43459018911
0.0617935508640907,2361.44459018911
0.0488389620903374,2361.45459018911
0.0365803612254312,2361.46459018911
0.0245023593879979,2361.47459018911
0.0117793180196047,2361.48459018911
-0.000908978745515547,2361.49459018911
-0.0148088475221128,2361.50459018911
-0.0290605080750566,2361.51459018911
-0.0449436453516137,2361.52459018911
-0.0615262318709053,2361.53459018911
-0.0790772674460366,2361.54459018911
-0.096531341315088,2361.55459018911
-0.112074988357047,2361.56459018911
-0.124521586709091,2361.57459018911
-0.13040387436416,2361.58459018911
-0.124633446165701,2361.59459018911
-0.1004708455314,2361.60459018911
-0.0533121073733837,2361.61459018911
0.0145157563734072,2361.62459018911
0.0969871393123914,2361.63459018911
0.184249389196858,2361.64459018911
0.267495031921169,2361.65459018911
0.340883989801534,2361.66459018911
0.402489104576097,2361.67459018911
0.453663213225029,2361.68459018911
0.494958125368594,2361.69459018911
0.52692749820356,2361.70459018911
0.548983552836641,2361.71459018911
0.561305183242786,2361.72459018911
0.564600213102511,2361.73459018911
0.559993240640094,2361.74459018911
0.548630379928291,2361.75459018911
0.531469984282803,2361.76459018911
0.511520121478244,2361.77459018911
0.489505954754932,2361.78459018911
0.46630546727255,2361.79459018911
0.442400034981641,2361.80459018911
0.417787162415459,2361.81459018911
0.39244780173307,2361.82459018911
0.365193290252695,2361.83459018911
0.336424666178452,2361.84459018911
0.306315354775659,2361.85459018911
0.274891258141955,2361.86459018911
0.241964600544543,2361.87459018911
0.208501921319293,2361.88459018911
0.177101912120765,2361.89459018911
0.149261177764612,2361.90459018911
0.127766021633364,2361.91459018911
0.113516765427718,2361.92459018911
0.107529184898143,2361.93459018911
0.10874646886069,2361.94459018911
0.116349567683585,2361.95459018911
0.128630438713036,2361.96459018911
0.143778842171586,2361.97459018911
0.160569259478934,2361.98459018911
0.17648464438073,2361.99459018911
0.189899978153365,2362.00459018911
0.200487853241927,2362.01459018911
0.207078116379776,2362.02459018911
0.209883490687067,2362.03459018911
0.208975937181094,2362.04459018911
0.204415406419734,2362.05459018911
0.197512300573299,2362.06459018911
0.18774764456358,2362.07459018911
0.176189291061921,2362.08459018911
0.163616902807583,2362.09459018911
0.150356749244363,2362.10459018911
0.136429284230876,2362.11459018911
0.121402452854628,2362.12459018911
0.105794055112902,2362.13459018911
0.0901698977195895,2362.14459018911
0.0741730199924674,2362.15459018911
0.0580216397436053,2362.16459018911
0.0417823408847314,2362.17459018911
0.0266269202289874,2362.18459018911
0.0112124214219165,2362.19459018911
-0.00384384206151936,2362.20459018911
-0.0188669342296837,2362.21459018911
-0.0344569359228645,2362.22459018911
-0.0499668119028494,2362.23459018911
-0.0660117941993053,2362.24459018911
-0.0812107801681118,2362.25459018911
-0.0960171627725416,2362.26459018911
-0.109876908582762,2362.27459018911
-0.123865014962387,2362.28459018911
-0.138091644098856,2362.29459018911
-0.153077059287097,2362.30459018911
-0.168304938343074,2362.31459018911
-0.183078880093095,2362.32459018911
-0.195890931024411,2362.33459018911
-0.203864939368385,2362.34459018911
-0.202268190839501,2362.35459018911
-0.183627800638198,2362.36459018911
-0.141573324523416,2362.37459018911
-0.0741863441630258,2362.38459018911
0.0119879601930583,2362.39459018911
0.105840926565174,2362.40459018911
0.196494440390175,2362.41459018911
0.275366481707429,2362.42459018911
0.338665644567741,2362.43459018911
0.386782676982724,2362.44459018911
0.421472387416834,2362.45459018911
0.445677406610808,2362.46459018911
0.460661874995547,2362.47459018911
0.467873427390592,2362.48459018911
0.467436944955433,2362.49459018911
0.460165137397656,2362.50459018911
0.447493840553308,2362.51459018911
0.430113420389803,2362.52459018911
0.40907849723354,2362.53459018911
0.385417046417867,2362.54459018911
0.359214837669596,2362.55459018911
0.331496034321924,2362.56459018911
0.302205320413909,2362.57459018911
0.271401640889623,2362.58459018911
0.238878399407271,2362.59459018911
0.204558165861165,2362.60459018911
0.168991205797904,2362.61459018911
0.131214124563765,2362.62459018911
0.0935485556235881,2362.63459018911
0.0573083652886073,2362.64459018911
0.0244362126363303,2362.65459018911
-0.0022517165590024,2362.66459018911
-0.0213966744930772,2362.67459018911
-0.0319218566420689,2362.68459018911
-0.0332160762830545,2362.69459018911
-0.0253252075380449,2362.70459018911
-0.0100747933611033,2362.71459018911
0.0110166097488441,2362.72459018911
0.0350965240271652,2362.73459018911
0.059553927726546,2362.74459018911
0.0819232960009401,2362.75459018911
0.100520478937898,2362.76459018911
0.113978185289376,2362.77459018911
0.122715371663804,2362.78459018911
0.126418280254627,2362.79459018911
0.12609309831038,2362.80459018911
0.122811552192916,2362.81459018911
0.116906788231195,2362.82459018911
0.109683328808512,2362.83459018911
0.100746969599656,2362.84459018911
0.0906591999840401,2362.85459018911
0.0792593421075783,2362.86459018911
0.0667902524708399,2362.87459018911
0.0526449825335607,2362.88459018911
0.0377756440297278,2362.89459018911
0.021559854620937,2362.90459018911
0.00504165505918789,2362.91459018911
-0.0106743162745675,2362.92459018911
-0.0252604913232013,2362.93459018911
-0.0386100918254073,2362.94459018911
-0.0520322146334697,2362.95459018911
-0.0660894105509728,2362.96459018911
-0.0810500713536301,2362.97459018911
-0.0962148073434654,2362.98459018911
-0.111450059814544,2362.99459018911
-0.125988744438697,2363.00459018911
-0.1406401582739,2363.01459018911
-0.155360088514187,2363.02459018911
-0.170461628703126,2363.03459018911
-0.185922217919428,2363.04459018911
-0.199680846432705,2363.05459018911
-0.211006463073759,2363.06459018911
-0.219554038458756,2363.07459018911
-0.222552058948334,2363.08459018911
-0.214978673131864,2363.09459018911
-0.189724189772275,2363.10459018911
-0.140607580664124,2363.11459018911
-0.0682716064450709,2363.12459018911
0.0204972613923282,2363.13459018911
0.113426835224728,2363.14459018911
0.201677330607265,2363.15459018911
0.277779890286325,2363.16459018911
0.338032087274793,2363.17459018911
0.383212826736528,2363.18459018911
0.414670457558917,2363.19459018911
0.436250089293407,2363.20459018911
0.449139568826395,2363.21459018911
0.454670247665837,2363.22459018911
0.453673339565306,2363.23459018911
0.446466735129043,2363.24459018911
0.433552381984268,2363.25459018911
0.415266320808183,2363.26459018911
0.392670400714021,2363.27459018911
0.366932647925905,2363.28459018911
0.33909268883097,2363.29459018911
0.309504380010127,2363.30459018911
0.278824607375671,2363.31459018911
0.247022415831104,2363.32459018911
0.214541768363642,2363.33459018911
0.181133642020561,2363.34459018911
0.14690774891649,2363.35459018911
0.111328109696663,2363.36459018911
0.0748792080327007,2363.37459018911
0.0394921512659602,2363.38459018911
0.00757321629765782,2363.39459018911
-0.0187140572682037,2363.40459018911
-0.0364195151863676,2363.41459018911
-0.0454016217800785,2363.42459018911
-0.0454077468721187,2363.43459018911
-0.0375424954302753,2363.44459018911
-0.023040335463762,2363.45459018911
-0.00337551820807791,2363.46459018911
0.019360955752745,2363.47459018911
0.0420751764996191,2363.48459018911
0.0621254411250026,2363.49459018911
0.0784111973695933,2363.50459018911
0.0892649893036975,2363.51459018911
0.0951358538891578,2363.52459018911
0.0962666778613035,2363.53459018911
0.0939843465950445,2363.54459018911
0.089125154783807,2363.55459018911
0.0834819888901548,2363.56459018911
0.0769837879458526,2363.57459018911
0.069323809161889,2363.58459018911
0.0605111476545755,2363.59459018911
0.0497563670307302,2363.60459018911
0.0370851991927738,2363.61459018911
0.0235441386771069,2363.62459018911
0.00923778150448387,2363.63459018911
-0.00433799554753101,2363.64459018911
-0.0187204118121017,2363.65459018911
-0.0328738639212929,2363.66459018911
-0.0467105144531905,2363.67459018911
-0.0603396178415696,2363.68459018911
-0.0733691740183219,2363.69459018911
-0.0865569440702699,2363.70459018911
-0.100128640740165,2363.71459018911
-0.114217064455305,2363.72459018911
-0.129201663447499,2363.73459018911
-0.144042740721892,2363.74459018911
-0.15798044365809,2363.75459018911
-0.170621586049682,2363.76459018911
-0.18273250761752,2363.77459018911
-0.195509809344372,2363.78459018911
-0.208644578499421,2363.79459018911
-0.221929050235878,2363.80459018911
-0.23460641026376,2363.81459018911
-0.244695538300643,2363.82459018911
-0.247868348091803,2363.83459018911
-0.237964667497546,2363.84459018911
-0.207048998566689,2363.85459018911
-0.15092570520913,2363.86459018911
-0.0722995662205183,2363.87459018911
0.0207993659635942,2363.88459018911
0.116239153811618,2363.89459018911
0.204642601599025,2363.90459018911
0.27967594209043,2363.91459018911
0.340139077188746,2363.92459018911
0.38680519193996,2363.93459018911
0.421715003848714,2363.94459018911
0.446906147926947,2363.95459018911
0.464160257834756,2363.96459018911
0.473355809962597,2363.97459018911
0.475366601367587,2363.98459018911
0.47054344030839,2363.99459018911
0.458822719005464,2364.00459018911
0.441890429544964,2364.01459018911
0.421252905435959,2364.02459018911
0.397218076293174,2364.03459018911
0.371238008831946,2364.04459018911
0.34358295003352,2364.05459018911
0.315352886603612,2364.06459018911
0.287282312061483,2364.07459018911
0.258302379520836,2364.08459018911
0.228546903495183,2364.09459018911
0.197327337723357,2364.10459018911
0.165314480661118,2364.11459018911
0.131596462381251,2364.12459018911
0.0980046200244977,2364.13459018911
0.0653866602988055,2364.14459018911
0.0364734993205919,2364.15459018911
0.0145552377001885,2364.16459018911
0.00137616984037117,2364.17459018911
-0.00153285319253801,2364.18459018911
0.00409310046183079,2364.19459018911
0.0170518794388761,2364.20459018911
0.0353396462447384,2364.21459018911
0.0562965716430518,2364.22459018911
0.0776525936092969,2364.23459018911
0.0974100944469747,2364.24459018911
0.11385779282393,2364.25459018911
0.125740896802175,2364.26459018911
0.132578477940957,2364.27459018911
0.134949905372392,2364.28459018911
0.134237165595438,2364.29459018911
0.130995035337357,2364.30459018911
0.126177866066958,2364.31459018911
0.119692373492195,2364.32459018911
0.111590824324194,2364.33459018911
0.102084599775862,2364.34459018911
0.0908489369542691,2364.35459018911
0.0786097153481538,2364.36459018911
0.0651983805670263,2364.37459018911
0.0512484579591731,2364.38459018911
0.0362717068506006,2364.39459018911
0.0215500721883143,2364.40459018911
0.00672186685537002,2364.41459018911
-0.00804301791271825,2364.42459018911
-0.0225895076554489,2364.43459018911
-0.0374339303423483,2364.44459018911
-0.0527181924076382,2364.45459018911
-0.0679232845534081,2364.46459018911
-0.0833169338650395,2364.47459018911
-0.0980639822326195,2364.48459018911
-0.112143167574439,2364.49459018911
-0.125608331089317,2364.50459018911
-0.138579533154074,2364.51459018911
-0.150783920601149,2364.52459018911
-0.162289942303972,2364.53459018911
-0.17463123261504,2364.54459018911
-0.187567642211123,2364.55459018911
-0.201598971859682,2364.56459018911
-0.215855490693308,2364.57459018911
-0.229982778445558,2364.58459018911
-0.244542632964046,2364.59459018911
-0.258802007322444,2364.60459018911
-0.272025543476743,2364.61459018911
-0.281536557955584,2364.62459018911
-0.282105673794924,2364.63459018911
-0.266539827984576,2364.64459018911
-0.226800117310371,2364.65459018911
-0.159952499716261,2364.66459018911
-0.071638865258576,2364.67459018911
0.027693676922595,2364.68459018911
0.125690891366842,2364.69459018911
0.21458134498888,2364.70459018911
0.288323676839755,2364.71459018911
0.346765778189182,2364.72459018911
0.391647958484818,2364.73459018911
0.42477196045499,2364.74459018911
0.448383451622153,2364.75459018911
0.463791232899412,2364.76459018911
0.471106192216745,2364.77459018911
0.470973001187602,2364.78459018911
0.463370131388449,2364.79459018911
0.448627770703403,2364.80459018911
0.427800353831023,2364.81459018911
0.402967477196185,2364.82459018911
0.376112055101114,2364.83459018911
0.347985764537984,2364.84459018911
0.31963951503248,2364.85459018911
0.290738895296582,2364.86459018911
0.260883521490064,2364.87459018911
0.229925780249835,2364.88459018911
0.198102539809245,2364.89459018911
0.164395799022295,2364.90459018911
0.129299238515313,2364.91459018911
0.0928731832278488,2364.92459018911
0.0563411457637049,2364.93459018911
0.0220664285410551,2364.94459018911
-0.00790572322194817,2364.95459018911
-0.0310131714216912,2364.96459018911
-0.0462562597431608,2364.97459018911
-0.0526443476964992,2364.98459018911
-0.0492249640683727,2364.99459018911
-0.0372531441658737,2365.00459018911
-0.0191007652081621,2365.01459018911
0.00297725834157645,2365.02459018911
0.0261798909528246,2365.03459018911
0.0479134733763919,2365.04459018911
0.0663383428312821,2365.05459018911
0.0807795211032329,2365.06459018911
0.0907564591224156,2365.07459018911
0.0962822271415578,2365.08459018911
0.0976443664413783,2365.09459018911
0.0950348925135902,2365.10459018911
0.090194218971921,2365.11459018911
0.0838522118707997,2365.12459018911
0.0757754456755816,2365.13459018911
0.0656526823042996,2365.14459018911
0.0533173987050013,2365.15459018911
0.0391026886276471,2365.16459018911
0.0234622858467964,2365.17459018911
0.00691090981288039,2365.18459018911
-0.0103521989734752,2365.19459018911
-0.0273593398836884,2365.20459018911
-0.0449013061671343,2365.21459018911
-0.063918486017801,2365.22459018911
-0.0826096239268678,2365.23459018911
-0.10000148800414,2365.24459018911
-0.116249781681388,2365.25459018911
-0.131642937581035,2365.26459018911
-0.146401322411531,2365.27459018911
-0.161213323996816,2365.28459018911
-0.175854093359433,2365.29459018911
-0.189954549363852,2365.30459018911
-0.204251297090018,2365.31459018911
-0.217602994828519,2365.32459018911
-0.230384587456823,2365.33459018911
-0.24219700187758,2365.34459018911
-0.252954570541554,2365.35459018911
-0.262848574746494,2365.36459018911
-0.272135248627522,2365.37459018911
-0.281921525293406,2365.38459018911
-0.291511544048267,2365.39459018911
-0.300903070416452,2365.40459018911
-0.310240351649498,2365.41459018911
-0.319471381577148,2365.42459018911
-0.330042890544418,2365.43459018911
-0.339900955647742,2365.44459018911
-0.348588210536391,2365.45459018911
-0.352643849387251,2365.46459018911
-0.345257038649061,2365.47459018911
-0.318424779701985,2365.48459018911
-0.263916772762593,2365.49459018911
-0.181840062649037,2365.50459018911
-0.0795640335048772,2365.51459018911
0.0293454640479878,2365.52459018911
0.132649660644737,2365.53459018911
0.222761264423715,2365.54459018911
0.294894291321045,2365.55459018911
0.350409185404573,2365.56459018911
0.391809529701177,2365.57459018911
0.42134917318695,2365.58459018911
0.44101178343887,2365.59459018911
0.452018101120103,2365.60459018911
0.453593324307452,2365.61459018911
0.446396269800916,2365.62459018911
0.430303920092325,2365.63459018911
0.40731985879757,2365.64459018911
0.379871355097486,2365.65459018911
0.350087561395885,2365.66459018911
0.319304629439417,2365.67459018911
0.287824349533539,2365.68459018911
0.255921099319451,2365.69459018911
0.223057468957253,2365.70459018911
0.188578982104183,2365.71459018911
0.152296468970318,2365.72459018911
0.114872538562295,2365.73459018911
0.0756561902415167,2365.74459018911
0.0354654316573243,2365.75459018911
-0.00386782777884328,2365.76459018911
-0.0405294287273919,2365.77459018911
-0.0728142544280777,2365.78459018911
-0.0981511028962481,2365.79459018911
-0.114130931538611,2365.80459018911
-0.120587996193942,2365.81459018911
-0.11626023512335,2365.82459018911
-0.10329259166585,2365.83459018911
-0.0833283555641448,2365.84459018911
-0.0589484598020685,2365.85459018911
-0.0329480450047611,2365.86459018911
-0.00867497132749678,2365.87459018911
0.0119726670896164,2365.88459018911
0.0277756834433821,2365.89459018911
0.0381702513348775,2365.90459018911
0.0431414989904122,2365.91459018911
0.043268462187191,2365.92459018911
0.0398934050573233,2365.93459018911
0.0345372623438927,2365.94459018911
0.0285464295506571,2365.95459018911
0.0213008245299873,2365.96459018911
0.0130283206680737,2365.97459018911
0.00306222578597489,2365.98459018911
-0.00796255043349825,2365.99459018911
-0.020777446389338,2366.00459018911
-0.0345734092399919,2366.01459018911
-0.0491881560559646,2366.02459018911
-0.0651012886468493,2366.03459018911
-0.081874995695234,2366.04459018911
-0.0995619460231318,2366.05459018911
-0.11715149079847,2366.06459018911
-0.134286558842142,2366.07459018911
-0.15094852532639,2366.08459018911
-0.168132136365065,2366.09459018911
-0.185238639475644,2366.10459018911
-0.202192588243948,2366.11459018911
-0.218591124073487,2366.12459018911
-0.234985724306283,2366.13459018911
-0.251219343995991,2366.14459018911
-0.267624076330668,2366.15459018911
-0.285257769892438,2366.16459018911
-0.304153932547332,2366.17459018911
-0.323865942321589,2366.18459018911
-0.343967713705788,2366.19459018911
-0.364142811741129,2366.20459018911
-0.384414675795017,2366.21459018911
-0.40503695566144,2366.22459018911
-0.424764470335726,2366.23459018911
-0.442969108741515,2366.24459018911
-0.456255613145259,2366.25459018911
-0.459563997655064,2366.26459018911
-0.445233893661829,2366.27459018911
-0.404700449657071,2366.28459018911
-0.334068750758967,2366.29459018911
-0.237306122066087,2366.30459018911
-0.126277103142558,2366.31459018911
-0.0153185296775931,2366.32459018911
0.0817292103044191,2366.33459018911
0.159640120888794,2366.34459018911
0.217938621513412,2366.35459018911
0.25851478816256,2366.36459018911
0.286144429928796,2366.37459018911
0.303587341120398,2366.38459018911
0.313208443451008,2366.39459018911
0.314393506889381,2366.40459018911
0.307243528942285,2366.41459018911
0.292565930506163,2366.42459018911
0.271551989139505,2366.43459018911
0.24533696658089,2366.44459018911
0.215197693008826,2366.45459018911
0.182300609584669,2366.46459018911
0.148706669255433,2366.47459018911
0.115372889541256,2366.48459018911
0.082955141701487,2366.49459018911
0.0513393230662122,2366.50459018911
0.0193946484892752,2366.51459018911
-0.0133235398835298,2366.52459018911
-0.048058993788175,2366.53459018911
-0.0845745496352838,2366.54459018911
-0.12171935402581,2366.55459018911
-0.157774724006922,2366.56459018911
-0.191191737108412,2366.57459018911
-0.220337766729069,2366.58459018911
-0.244204704661931,2366.59459018911
-0.261051361187482,2366.60459018911
-0.270019673723207,2366.61459018911
-0.271263355376544,2366.62459018911
-0.264584556370795,2366.63459018911
-0.25223956157062,2366.64459018911
-0.235817234382241,2366.65459018911
-0.217810436688712,2366.66459018911
-0.200567481717309,2366.67459018911
-0.185174857569906,2366.68459018911
-0.172587484997746,2366.69459018911
-0.163340536384245,2366.70459018911
-0.157715688127347,2366.71459018911
-0.155486543722596,2366.72459018911
-0.156162344561194,2366.73459018911
-0.159083770593177,2366.74459018911
-0.163722148167712,2366.75459018911
-0.169515193893308,2366.76459018911
-0.177355778410916,2366.77459018911
-0.187335168143955,2366.78459018911
-0.199846922093575,2366.79459018911
-0.214518320329441,2366.80459018911
-0.230988516466205,2366.81459018911
-0.248459570596813,2366.82459018911
-0.266012545908212,2366.83459018911
-0.282633569596229,2366.84459018911
-0.298928002619116,2366.85459018911
-0.31486437748086,2366.86459018911
-0.331352869077184,2366.87459018911
-0.349245465066372,2366.88459018911
-0.367445238007773,2366.89459018911
-0.386803116127303,2366.90459018911
-0.405823873260908,2366.91459018911
-0.425609070859115,2366.92459018911
-0.445682866719458,2366.93459018911
-0.46567547554034,2366.94459018911
-0.485392591059364,2366.95459018911
-0.50491776679963,2366.96459018911
-0.524719882884718,2366.97459018911
-0.545375943637986,2366.98459018911
-0.567589258635771,2366.99459018911
-0.591427934908698,2367.00459018911
-0.616692683265708,2367.01459018911
-0.643547576116909,2367.02459018911
-0.670395995920829,2367.03459018911
-0.695899153635144,2367.04459018911
-0.718553766670131,2367.05459018911
-0.734721974895108,2367.06459018911
-0.739210766700301,2367.07459018911
-0.724564693544109,2367.08459018911
-0.685560787858469,2367.09459018911
-0.621411363595752,2367.10459018911
-0.538857886533864,2367.11459018911
-0.450484195906135,2367.12459018911
-0.368944484111281,2367.13459018911
-0.303136676593276,2367.14459018911
-0.256119567809353,2367.15459018911
-0.226745908220846,2367.16459018911
-0.21071223042054,2367.17459018911
-0.204058499557781,2367.18459018911
-0.204170602374198,2367.19459018911
-0.209797967338068,2367.20459018911
-0.221037836806404,2367.21459018911
-0.239041876167705,2367.22459018911
-0.264286957297072,2367.23459018911
-0.297135056994414,2367.24459018911
-0.336558407089344,2367.25459018911
-0.381924772317331,2367.26459018911
-0.43151290413438,2367.27459018911
-0.484628360055822,2367.28459018911
-0.540779034358853,2367.29459018911
-0.597581321696738,2367.30459018911
-0.653263909756263,2367.31459018911
-0.70831934660896,2367.32459018911
-0.762090006460336,2367.33459018911
-0.814772543497538,2367.34459018911
-0.866104854269318,2367.35459018911
-0.91464852165788,2367.36459018911
-0.958364687831128,2367.37459018911
-0.996010490084083,2367.38459018911
-1.02510391026755,2367.39459018911
-1.04304955630099,2367.40459018911
-1.04920327693131,2367.41459018911
-1.04226730821701,2367.42459018911
-1.02200964161521,2367.43459018911
-0.989063830489339,2367.44459018911
-0.945726594480561,2367.45459018911
-0.895944613452357,2367.46459018911
-0.842922372951291,2367.47459018911
-0.792919976986025,2367.48459018911
-0.74903175566574,2367.49459018911
-0.71512020499816,2367.50459018911
-0.69084213460131,2367.51459018911
-0.674556948757987,2367.52459018911
-0.665593319907426,2367.53459018911
-0.661485504207342,2367.54459018911
-0.661085968214787,2367.55459018911
-0.664000123886499,2367.56459018911
-0.669799000580615,2367.57459018911
-0.678193416250359,2367.58459018911
-0.688403543033285,2367.59459018911
-0.699980831622235,2367.60459018911
-0.712573431929596,2367.61459018911
-0.725361464494768,2367.62459018911
-0.739154650740655,2367.63459018911
-0.752887930743746,2367.64459018911
-0.768005775431298,2367.65459018911
-0.783781615503742,2367.66459018911
-0.800419689680635,2367.67459018911
-0.818627012703354,2367.68459018911
-0.838399026555755,2367.69459018911
-0.85927195449321,2367.70459018911
-0.87925845813709,2367.71459018911
-0.897001314058095,2367.72459018911
-0.913265635655121,2367.73459018911
-0.92795383319089,2367.74459018911
-0.942155575009008,2367.75459018911
-0.957629908653728,2367.76459018911
-0.974066846469968,2367.77459018911
-0.991712953776446,2367.78459018911
-1.01042980057002,2367.79459018911
-1.02866900109906,2367.80459018911
-1.04650721240446,2367.81459018911
-1.06278058182908,2367.82459018911
-1.07600049630533,2367.83459018911
-1.08340173482513,2367.84459018911
-1.0792584495504,2367.85459018911
-1.0557970697351,2367.86459018911
-1.00360143906644,2367.87459018911
-0.920428128949908,2367.88459018911
-0.811622593166383,2367.89459018911
-0.690867141274654,2367.90459018911
-0.575039730306789,2367.91459018911
-0.476892536111156,2367.92459018911
-0.401972717454387,2367.93459018911
-0.350814615459291,2367.94459018911
-0.319913382973209,2367.95459018911
-0.303629675889534,2367.96459018911
-0.295987802645814,2367.97459018911
-0.293969619583659,2367.98459018911
-0.295889424849632,2367.99459018911
-0.300553984864065,2368.00459018911
-0.308361733490388,2368.01459018911
-0.319192169490405,2368.02459018911
-0.333199395166108,2368.03459018911
-0.350203815024606,2368.04459018911
-0.369924557316631,2368.05459018911
-0.392721869349008,2368.06459018911
-0.417304256052591,2368.07459018911
-0.44402309302639,2368.08459018911
-0.472174701216301,2368.09459018911
-0.502045728242133,2368.10459018911
-0.534109495366414,2368.11459018911
-0.567578208735043,2368.12459018911
-0.601547487271916,2368.13459018911
-0.635049956004483,2368.14459018911
-0.66629439519366,2368.15459018911
-0.693540121746056,2368.16459018911
-0.714186715577389,2368.17459018911
-0.726829543024941,2368.18459018911
-0.730496857880585,2368.19459018911
-0.724861568145603,2368.20459018911
-0.710704899140152,2368.21459018911
-0.689196947035988,2368.22459018911
-0.663399898814003,2368.23459018911
-0.636237516607165,2368.24459018911
-0.610555658688366,2368.25459018911
-0.588115925644807,2368.26459018911
-0.57093908847318,2368.27459018911
-0.559327324926125,2368.28459018911
-0.554215306300815,2368.29459018911
-0.554408966853095,2368.30459018911
-0.558795335550889,2368.31459018911
-0.565840376840257,2368.32459018911
-0.574904048929592,2368.33459018911
-0.585244406033543,2368.34459018911
-0.596998831144115,2368.35459018911
-0.610475738907817,2368.36459018911
-0.624109007681629,2368.37459018911
-0.637884810399155,2368.38459018911
-0.651339034688767,2368.39459018911
-0.665230865550105,2368.40459018911
-0.679480089206372,2368.41459018911
-0.693935385621442,2368.42459018911
-0.708718540352236,2368.43459018911
-0.721956551766475,2368.44459018911
-0.734174095740448,2368.45459018911
-0.745325248175614,2368.46459018911
-0.756118413449362,2368.47459018911
-0.766319095379808,2368.48459018911
-0.776077313098541,2368.49459018911
-0.786025999063832,2368.50459018911
-0.796558244538466,2368.51459018911
-0.807416563161374,2368.52459018911
-0.818814392685754,2368.53459018911
-0.830272543658736,2368.54459018911
-0.842174138090571,2368.55459018911
-0.853626880373965,2368.56459018911
-0.865596906912424,2368.57459018911
-0.875863742826928,2368.58459018911
-0.883134053926817,2368.59459018911
-0.881726980124596,2368.60459018911
-0.86307227265301,2368.61459018911
-0.818425071443031,2368.62459018911
-0.742616190302167,2368.63459018911
-0.640555377249956,2368.64459018911
-0.524533773735074,2368.65459018911
-0.410097922877673,2368.66459018911
-0.310047694260144,2368.67459018911
-0.231430832512304,2368.68459018911
-0.175169050730851,2368.69459018911
-0.13808714620876,2368.70459018911
-0.114668839979624,2368.71459018911
-0.0998138825631124,2368.72459018911
-0.0894983564953541,2368.73459018911
-0.0820575144386594,2368.74459018911
-0.0762345553166935,2368.75459018911
-0.0735139866979494,2368.76459018911
-0.0745521806174635,2368.77459018911
-0.0800455852234552,2368.78459018911
-0.0897645249134483,2368.79459018911
-0.103041512497257,2368.80459018911
-0.119164447991604,2368.81459018911
-0.138381464891674,2368.82459018911
-0.159904482689755,2368.83459018911
-0.184132029343631,2368.84459018911
-0.210807247855202,2368.85459018911
-0.23970889630026,2368.86459018911
-0.271446794518609,2368.87459018911
-0.305056565876664,2368.88459018911
-0.339923683479886,2368.89459018911
-0.375087145381534,2368.90459018911
-0.408755983689402,2368.91459018911
-0.437609896046649,2368.92459018911
-0.460236594050843,2368.93459018911
-0.475255269124081,2368.94459018911
-0.480891977195524,2368.95459018911
-0.477127830813677,2368.96459018911
-0.463891966546188,2368.97459018911
-0.443663268536569,2368.98459018911
-0.418428290820496,2368.99459018911
-0.391560167734929,2369.00459018911
-0.366148474405822,2369.01459018911
-0.344219016614567,2369.02459018911
-0.327106809233981,2369.03459018911
-0.315394020823435,2369.04459018911
-0.309799302202846,2369.05459018911
-0.308697543998345,2369.06459018911
-0.310972345488562,2369.07459018911
-0.316269030585422,2369.08459018911
-0.323346380845791,2369.09459018911
-0.332217460463623,2369.10459018911
-0.342355063135122,2369.11459018911
-0.353498367118274,2369.12459018911
-0.365653900809022,2369.13459018911
-0.378185070075589,2369.14459018911
-0.391485486728794,2369.15459018911
-0.40523385397687,2369.16459018911
-0.41997258436681,2369.17459018911
-0.436374073205405,2369.18459018911
-0.453210039461854,2369.19459018911
-0.46906310519642,2369.20459018911
-0.483043543104525,2369.21459018911
-0.495784139565378,2369.22459018911
-0.507651654985976,2369.23459018911
-0.519778411406236,2369.24459018911
-0.532134708904659,2369.25459018911
-0.545096384828137,2369.26459018911
-0.558513541743333,2369.27459018911
-0.572737736512812,2369.28459018911
-0.58705858738324,2369.29459018911
-0.602268250543197,2369.30459018911
-0.617311948996137,2369.31459018911
-0.632152013920333,2369.32459018911
-0.646701772825753,2369.33459018911
-0.66131588518594,2369.34459018911
-0.675924690035436,2369.35459018911
-0.690552882669027,2369.36459018911
-0.703352455997863,2369.37459018911
-0.709871382366223,2369.38459018911
-0.70186056923894,2369.39459018911
-0.669674536992921,2369.40459018911
-0.605418761347141,2369.41459018911
-0.511331674893258,2369.42459018911
-0.398278932991313,2369.43459018911
-0.282868557980311,2369.44459018911
-0.179652276002265,2369.45459018911
-0.0978263579226325,2369.46459018911
-0.0385584952702782,2369.47459018911
0.000562870213224503,2369.48459018911
0.0255235274069258,2369.49459018911
0.0406102410313458,2369.50459018911
0.0500327241049016,2369.51459018911
0.055312462244032,2369.52459018911
0.0571784073707736,2369.53459018911
0.0559982043788468,2369.54459018911
0.0504464406797569,2369.55459018911
0.0412942674454951,2369.56459018911
0.0277180488389295,2369.57459018911
0.0104862652014767,2369.58459018911
-0.0104476050988851,2369.59459018911
-0.0347242163614605,2369.60459018911
-0.0604062525198484,2369.61459018911
-0.0870298669074523,2369.62459018911
-0.114551066242834,2369.63459018911
-0.143168281519488,2369.64459018911
-0.172742677427905,2369.65459018911
-0.203905521908498,2369.66459018911
-0.236351787800883,2369.67459018911
-0.268875087774708,2369.68459018911
-0.300464723210427,2369.69459018911
-0.328929168247488,2369.70459018911
-0.352101523325221,2369.71459018911
-0.368818691524253,2369.72459018911
-0.376371642876237,2369.73459018911
-0.373061349384937,2369.74459018911
-0.359128095715489,2369.75459018911
-0.336035088035147,2369.76459018911
-0.307705377587749,2369.77459018911
-0.277982128793146,2369.78459018911
-0.249842444711069,2369.79459018911
-0.225963586453707,2369.80459018911
-0.20668268055267,2369.81459018911
-0.193587493504855,2369.82459018911
-0.185631174373787,2369.83459018911
-0.182998510491765,2369.84459018911
-0.184665403413912,2369.85459018911
-0.189134317455741,2369.86459018911
-0.195699597749959,2369.87459018911
-0.203387676865782,2369.88459018911
-0.211658731217833,2369.89459018911
-0.220543014628645,2369.90459018911
-0.229933070703664,2369.91459018911
-0.239748363905483,2369.92459018911
-0.250818624266047,2369.93459018911
-0.262127729487962,2369.94459018911
-0.273868192820081,2369.95459018911
-0.285161338489319,2369.96459018911
-0.296657520817744,2369.97459018911
-0.30788371439376,2369.98459018911
-0.318909523341458,2369.99459018911
-0.330178785583512,2370.00459018911
-0.341728832602657,2370.01459018911
-0.353225698941772,2370.02459018911
-0.364366071696905,2370.03459018911
-0.374796630199743,2370.04459018911
-0.385745305217832,2370.05459018911
-0.397336604228957,2370.06459018911
-0.408960046896568,2370.07459018911
-0.420845806136252,2370.08459018911
-0.432491441766632,2370.09459018911
-0.444330815611428,2370.10459018911
-0.456884361029907,2370.11459018911
-0.470282831399209,2370.12459018911
-0.48469820241537,2370.13459018911
-0.499574437199505,2370.14459018911
-0.512574563026159,2370.15459018911
-0.521135839714684,2370.16459018911
-0.519321791113326,2370.17459018911
-0.499829654858043,2370.18459018911
-0.454975770128006,2370.19459018911
-0.382401715083698,2370.20459018911
-0.287947352539859,2370.21459018911
-0.183995263014074,2370.22459018911
-0.084403418400102,2370.23459018911
0.00216401241799985,2370.24459018911
0.0699014251854542,2370.25459018911
0.119752086232018,2370.26459018911
0.156057096394751,2370.27459018911
0.182869795034128,2370.28459018911
0.204019002490737,2370.29459018911
0.220882202030234,2370.30459018911
0.232902297447985,2370.31459018911
0.23969823216162,2370.32459018911
0.239721298216783,2370.33459018911
0.232922359683226,2370.34459018911
0.220238496873513,2370.35459018911
0.202901120330457,2370.36459018911
0.181984917362707,2370.37459018911
0.158725336426209,2370.38459018911
0.133662699875418,2370.39459018911
0.107390466540572,2370.40459018911
0.0806797604477806,2370.41459018911
0.0523373934356764,2370.42459018911
0.0227520827880201,2370.43459018911
-0.00775109731824738,2370.44459018911
-0.0387109301426913,2370.45459018911
-0.0703579532843409,2370.46459018911
-0.101657933810772,2370.47459018911
-0.131151327542504,2370.48459018911
-0.156760915917514,2370.49459018911
-0.177100906167884,2370.50459018911
-0.189809427053101,2370.51459018911
-0.193641072318265,2370.52459018911
-0.189044643432503,2370.53459018911
-0.175651140239801,2370.54459018911
-0.156580471985217,2370.55459018911
-0.133704180238803,2370.56459018911
-0.110336464598729,2370.57459018911
-0.089002025443439,2370.58459018911
-0.0719083008583446,2370.59459018911
-0.0599607978651658,2370.60459018911
-0.0533923618596592,2370.61459018911
-0.0511289402594145,2370.62459018911
-0.0521343420984886,2370.63459018911
-0.0569170223034065,2370.64459018911
-0.0644056761648206,2370.65459018911
-0.0745131851010736,2370.66459018911
-0.0875582803179349,2370.67459018911
-0.101933055832913,2370.68459018911
-0.11581316293226,2370.69459018911
-0.129071112362094,2370.70459018911
-0.14185977316358,2370.71459018911
-0.155133211387593,2370.72459018911
-0.168789185415465,2370.73459018911
-0.183010665406242,2370.74459018911
-0.19799112862058,2370.75459018911
-0.213677377151708,2370.76459018911
-0.230016298149752,2370.77459018911
-0.246280345366796,2370.78459018911
-0.261695938391175,2370.79459018911
-0.275643125954631,2370.80459018911
-0.288288948968614,2370.81459018911
-0.299745660618813,2370.82459018911
-0.311106078985312,2370.83459018911
-0.322826023359616,2370.84459018911
-0.334610852274757,2370.85459018911
-0.346637325408865,2370.86459018911
-0.358591663262899,2370.87459018911
-0.370585260783721,2370.88459018911
-0.382444520584711,2370.89459018911
-0.394394199574462,2370.90459018911
-0.406424503758872,2370.91459018911
-0.418729765420604,2370.92459018911
-0.43033997278244,2370.93459018911
-0.441866676904915,2370.94459018911
-0.451194903246815,2370.95459018911
-0.454536999444351,2370.96459018911
-0.443977422373004,2370.97459018911
-0.409799644220438,2370.98459018911
-0.3458547138615,2370.99459018911
-0.254623671861941,2371.00459018911
-0.147114625534635,2371.01459018911
-0.0379976487979286,2371.02459018911
0.0593908608201204,2371.03459018911
0.138618527801395,2371.04459018911
0.19874472694952,2371.05459018911
0.243076346430024,2371.06459018911
0.276211425632177,2371.07459018911
0.301569929153843,2371.08459018911
0.321742046604534,2371.09459018911
0.335882698526298,2371.10459018911
0.344313842943734,2371.11459018911
0.345889999096357,2371.12459018911
0.340902457054502,2371.13459018911
0.329663935890602,2371.14459018911
0.312673826472444,2371.15459018911
0.29217123135036,2371.16459018911
0.268509161546176,2371.17459018911
0.243292392866165,2371.18459018911
0.217514719554516,2371.19459018911
0.191163123739568,2371.20459018911
0.16400097910406,2371.21459018911
0.136499797985537,2371.22459018911
0.108542838551435,2371.23459018911
0.0791340537861959,2371.24459018911
0.0482198182295606,2371.25459018911
0.0167620502195004,2371.26459018911
-0.0141823792889514,2371.27459018911
-0.0424500387968476,2371.28459018911
-0.0671373259357294,2371.29459018911
-0.0854509361360216,2371.30459018911
-0.0961631815622845,2371.31459018911
-0.0983760739512196,2371.32459018911
-0.0927699231121152,2371.33459018911
-0.0794324609399132,2371.34459018911
-0.060625703202968,2371.35459018911
-0.0388001549808541,2371.36459018911
-0.0170508158874797,2371.37459018911
0.00230285008383802,2371.38459018911
0.0188286670235044,2371.39459018911
0.0314194317715442,2371.40459018911
0.0394876339035015,2371.41459018911
0.0432903034650894,2371.42459018911
0.0431031191874424,2371.43459018911
0.0399441904485124,2371.44459018911
0.0341861473894997,2371.45459018911
0.0271457225273364,2371.46459018911
0.0190179667601773,2371.47459018911
0.00955227555764312,2371.48459018911
-0.00141878629641693,2371.49459018911
-0.0147534379776875,2371.50459018911
-0.0285788874198648,2371.51459018911
-0.0422672186982992,2371.52459018911
-0.0554184134715691,2371.53459018911
-0.0685593186151806,2371.54459018911
-0.0817155184900924,2371.55459018911
-0.0951507605186123,2371.56459018911
-0.109133872676884,2371.57459018911
-0.12336229846345,2371.58459018911
-0.137702027431511,2371.59459018911
-0.151170699879649,2371.60459018911
-0.16423588971587,2371.61459018911
-0.176682003495351,2371.62459018911
-0.18880428457482,2371.63459018911
-0.200550343917041,2371.64459018911
-0.211637765721598,2371.65459018911
-0.222522676251796,2371.66459018911
-0.233577241991106,2371.67459018911
-0.245244624959692,2371.68459018911
-0.257052217654624,2371.69459018911
-0.269110592209077,2371.70459018911
-0.281886444852371,2371.71459018911
-0.295000903491128,2371.72459018911
-0.307534195680944,2371.73459018911
-0.319987303636781,2371.74459018911
-0.331190889143568,2371.75459018911
-0.340225122183093,2371.76459018911
-0.342699904831383,2371.77459018911
-0.332312937510213,2371.78459018911
-0.301124209356229,2371.79459018911
-0.242792187240067,2371.80459018911
-0.158871642679665,2371.81459018911
-0.0593303012693443,2371.82459018911
0.0427755400684495,2371.83459018911
0.135506079480834,2371.84459018911
0.212935640058056,2371.85459018911
0.27287707278921,2371.86459018911
0.318003617370196,2371.87459018911
0.352663134546301,2371.88459018911
0.378079119916897,2371.89459018911
0.396459064373871,2371.90459018911
0.406449827795511,2371.91459018911
0.409550355354732,2371.92459018911
0.406323213419696,2371.93459018911
0.397801233747437,2371.94459018911
0.383791057628901,2371.95459018911
0.365218082918653,2371.96459018911
0.344236350751015,2371.97459018911
0.3206379311843,2371.98459018911
0.295690528772817,2371.99459018911
0.269882280542456,2372.00459018911
0.242911337942624,2372.01459018911
0.215072216176008,2372.02459018911
0.18582735556417,2372.03459018911
0.154445990605003,2372.04459018911
0.122197001815464,2372.05459018911
0.0900593245902078,2372.06459018911
0.0584542253200912,2372.07459018911
0.0282718033088184,2372.08459018911
0.00104318346026854,2372.09459018911
-0.02142326034741,2372.10459018911
-0.0374905505245017,2372.11459018911
-0.0459611632952262,2372.12459018911
-0.0467971196725878,2372.13459018911
-0.0393672722773324,2372.14459018911
-0.0252785389500014,2372.15459018911
-0.00637424947514562,2372.16459018911
0.015119493726961,2372.17459018911
0.0357322831930241,2372.18459018911
0.0545977917585579,2372.19459018911
0.0694598524030675,2372.20459018911
0.0798470178279053,2372.21459018911
0.0858415774315561,2372.22459018911
0.0877377385881687,2372.23459018911
0.0864603680907637,2372.24459018911
0.0825401299216709,2372.25459018911
0.0769570900319533,2372.26459018911
0.0696156064744502,2372.27459018911
0.0615827834845165,2372.28459018911
0.0528062747706936,2372.29459018911
0.0426020245473553,2372.30459018911
0.0309009650700264,2372.31459018911
0.017328053860783,2372.32459018911
0.00225428987820744,2372.33459018911
-0.0128366012791328,2372.34459018911
-0.0274205276219997,2372.35459018911
-0.0411972686113994,2372.36459018911
-0.0550801646704917,2372.37459018911
-0.0694349669909391,2372.38459018911
-0.0841891999984092,2372.39459018911
-0.0991681449890792,2372.40459018911
-0.114062476516413,2372.41459018911
-0.128488986038767,2372.42459018911
-0.14259516892816,2372.43459018911
-0.155917405141508,2372.44459018911
-0.169299716251258,2372.45459018911
-0.181520351889559,2372.46459018911
-0.19294718454419,2372.47459018911
-0.202831764553475,2372.48459018911
-0.212039130320016,2372.49459018911
-0.22143879540077,2372.50459018911
-0.231109958330278,2372.51459018911
-0.241460152266285,2372.52459018911
-0.251703793736151,2372.53459018911
-0.262928874297031,2372.54459018911
-0.274748267934563,2372.55459018911
-0.287076118337379,2372.56459018911
-0.299214076233041,2372.57459018911
-0.309253958954554,2372.58459018911
-0.314225665644946,2372.59459018911
-0.309182644716545,2372.60459018911
-0.286265538690126,2372.61459018911
-0.237528980961208,2372.62459018911
-0.162227942995771,2372.63459018911
-0.0678425955840172,2372.64459018911
0.033650370086607,2372.65459018911
0.128618562272431,2372.66459018911
0.208744761160665,2372.67459018911
0.271299353909119,2372.68459018911
0.317696292955345,2372.69459018911
0.353007170879204,2372.70459018911
0.379633932828975,2372.71459018911
0.399595451673886,2372.72459018911
0.412779283614366,2372.73459018911
0.419868663320282,2372.74459018911
0.419870326810539,2372.75459018911
0.41301107219616,2372.76459018911
0.400471639610658,2372.77459018911
0.38225597356835,2372.78459018911
0.359660709231249,2372.79459018911
0.334446191835081,2372.80459018911
0.307633900956484,2372.81459018911
0.280067623718471,2372.82459018911
0.252430479765991,2372.83459018911
0.223556107152062,2372.84459018911
0.193452437257489,2372.85459018911
0.161821424672,2372.86459018911
0.128200301212052,2372.87459018911
0.0934934582569458,2372.88459018911
0.0595073705774083,2372.89459018911
0.0275392569138434,2372.90459018911
-0.000310997665621482,2372.91459018911
-0.0229696552014825,2372.92459018911
-0.0384883519607604,2372.93459018911
-0.0452298034842688,2372.94459018911
-0.0427492229039272,2372.95459018911
-0.0314211678772799,2372.96459018911
-0.0130280240937694,2372.97459018911
0.0101884939708916,2372.98459018911
0.0354283862432358,2372.99459018911
0.0598143216371857,2373.00459018911
0.0809663896527751,2373.01459018911
0.0975613587878224,2373.02459018911
0.108997728600041,2373.03459018911
0.115679647979759,2373.04459018911
0.118468553364234,2373.05459018911
0.119003642265475,2373.06459018911
0.116740393073093,2373.07459018911
0.112698039938793,2373.08459018911
0.107402387818426,2373.09459018911
0.100406041263632,2373.10459018911
0.0920776707612187,2373.11459018911
0.0824045929043784,2373.12459018911
0.0715202401423879,2373.13459018911
0.0599138560609648,2373.14459018911
0.0477788430984474,2373.15459018911
0.0352622917659049,2373.16459018911
0.0232665914707822,2373.17459018911
0.0109846858785857,2373.18459018911
-0.00169286512057849,2373.19459018911
-0.0147695048855777,2373.20459018911
-0.0281199814621041,2373.21459018911
-0.0414706868433278,2373.22459018911
-0.0546680320429282,2373.23459018911
-0.0676328805688975,2373.24459018911
-0.0803647196551593,2373.25459018911
-0.09333965314852,2373.26459018911
-0.106432910328584,2373.27459018911
-0.119029409777416,2373.28459018911
-0.131273813872077,2373.29459018911
-0.14243966261771,2373.30459018911
-0.152958359024703,2373.31459018911
-0.163845140062503,2373.32459018911
-0.175073896131621,2373.33459018911
-0.187130588450627,2373.34459018911
-0.199007238324416,2373.35459018911
-0.209086855771638,2373.36459018911
-0.215693314886708,2373.37459018911
-0.213197868635746,2373.38459018911
-0.194058438428096,2373.39459018911
-0.151363405943299,2373.40459018911
-0.0840416269271758,2373.41459018911
0.00164453261796856,2373.42459018911
0.0942769855868883,2373.43459018911
0.183269870382483,2373.44459018911
0.260631505762042,2373.45459018911
0.323618017718938,2373.46459018911
0.372815265820248,2373.47459018911
0.410629324391296,2373.48459018911
0.438076457952896,2373.49459018911
0.457677039461624,2373.50459018911
0.470208639468688,2373.51459018911
0.476423699382061,2373.52459018911
0.477276121522964,2373.53459018911
0.472373849114138,2373.54459018911
0.462958674582254,2373.55459018911
0.449123500347338,2373.56459018911
0.431775797636193,2373.57459018911
0.411882873469583,2373.58459018911
0.389833927156825,2373.59459018911
0.366049004253285,2373.60459018911
0.340934291227983,2373.61459018911
0.314360562038576,2373.62459018911
0.285680677155342,2373.63459018911
0.256176208255203,2373.64459018911
0.224120659773983,2373.65459018911
0.190889063426916,2373.66459018911
0.156903606651707,2373.67459018911
0.124657328593241,2373.68459018911
0.0964654933447073,2373.69459018911
0.0745309633887242,2373.70459018911
0.060794377233012,2373.71459018911
0.0559015505224098,2373.72459018911
0.0601793661492467,2373.73459018911
0.0718341280851967,2373.74459018911
0.0891545014285653,2373.75459018911
0.110316854524404,2373.76459018911
0.133226340249611,2373.77459018911
0.155360118551176,2373.78459018911
0.1748552894369,2373.79459018911
0.190312976473869,2373.80459018911
0.200594537890567,2373.81459018911
0.206644753805595,2373.82459018911
0.209074401220351,2373.83459018911
0.208973019421529,2373.84459018911
0.206970508832947,2373.85459018911
0.203477762247135,2373.86459018911
0.198586438251998,2373.87459018911
0.191932918771662,2373.88459018911
0.184018301296044,2373.89459018911
0.174471655265315,2373.90459018911
0.164160527941063,2373.91459018911
0.153078146938212,2373.92459018911
0.141397449102817,2373.93459018911
0.129141402521029,2373.94459018911
0.116348345486322,2373.95459018911
0.103561375850011,2373.96459018911
0.0905034749968528,2373.97459018911
0.077580023672694,2373.98459018911
0.064379309013625,2373.99459018911
0.0518893592790267,2374.00459018911
0.0393963724288585,2374.01459018911
0.0273702117351432,2374.02459018911
0.015594343124006,2374.03459018911
0.00355282011134878,2374.04459018911
-0.00808358243075466,2374.05459018911
-0.019962616972479,2374.06459018911
-0.0321136175306538,2374.07459018911
-0.0447505820854716,2374.08459018911
-0.0577904850893126,2374.09459018911
-0.0717555480789487,2374.10459018911
-0.0857037007611481,2374.11459018911
-0.0990916493581884,2374.12459018911
-0.111980147698195,2374.13459018911
-0.124057481940754,2374.14459018911
-0.134472569402078,2374.15459018911
-0.140944644132687,2374.16459018911
-0.137803729733825,2374.17459018911
-0.118396218705453,2374.18459018911
-0.0755077535144019,2374.19459018911
-0.00969328300436726,2374.20459018911
0.0723272577013834,2374.21459018911
0.160160454727513,2374.22459018911
0.245056620955697,2374.23459018911
0.319785672661331,2374.24459018911
0.382249732960505,2374.25459018911
0.431844066377096,2374.26459018911
0.469855456378653,2374.27459018911
0.498388316674502,2374.28459018911
0.518636193359841,2374.29459018911
0.532764343393968,2374.30459018911
0.540897749687425,2374.31459018911
0.544006224097601,2374.32459018911
0.542183547719109,2374.33459018911
0.535774675332612,2374.34459018911
0.524254041721172,2374.35459018911
0.509271305948493,2374.36459018911
0.491371441758911,2374.37459018911
0.47154871069528,2374.38459018911
0.450450988730922,2374.39459018911
0.428402970670204,2374.40459018911
0.405145352263137,2374.41459018911
0.380752116007442,2374.42459018911
0.354693922616966,2374.43459018911
0.327144513168901,2374.44459018911
0.297818006498104,2374.45459018911
0.26850179631158,2374.46459018911
0.239545246035051,2374.47459018911
0.212468132304985,2374.48459018911
0.189279939652982,2374.49459018911
0.171795273063142,2374.50459018911
0.16155960811359,2374.51459018911
0.158730192082257,2374.52459018911
0.16306164220635,2374.53459018911
0.173552659575988,2374.54459018911
0.188562574862295,2374.55459018911
0.205999225126386,2374.56459018911
0.223527647929594,2374.57459018911
0.239766274720771,2374.58459018911
0.253890956708674,2374.59459018911
0.265021229069881,2374.60459018911
0.272625405497015,2374.61459018911
0.277611280195134,2374.62459018911
0.279546846851565,2374.63459018911
0.278413151064813,2374.64459018911
0.275752364912519,2374.65459018911
0.271822441214164,2374.66459018911
0.267176984914024,2374.67459018911
0.261419239954564,2374.68459018911
0.254117934693787,2374.69459018911
0.245545869888496,2374.70459018911
0.235620807917356,2374.71459018911
0.224222760955179,2374.72459018911
0.212529507026151,2374.73459018911
0.200296180107216,2374.74459018911
0.187417136733532,2374.75459018911
0.173650876050084,2374.76459018911
0.159737432008325,2374.77459018911
0.146079750213455,2374.78459018911
0.133192145031753,2374.79459018911
0.120996918096816,2374.80459018911
0.109221871916245,2374.81459018911
0.0972277620975911,2374.82459018911
0.0854090861986203,2374.83459018911
0.0733328613462824,2374.84459018911
0.0615126199252243,2374.85459018911
0.0504051925825088,2374.86459018911
0.0399030922983983,2374.87459018911
0.0309010207172412,2374.88459018911
0.0232690855948334,2374.89459018911
0.0172012412158844,2374.90459018911
0.0127385406453595,2374.91459018911
0.00919168870378042,2374.92459018911
0.00615345333541404,2374.93459018911
0.00253915466539124,2374.94459018911
-0.00116908750050086,2374.95459018911
-0.00617400259896831,2374.96459018911
-0.0122237204471826,2374.97459018911
-0.0182865445296006,2374.98459018911
-0.0218323742123889,2374.99459018911
-0.0171811399283072,2375.00459018911
0.00175851809034559,2375.01459018911
0.0407103608976471,2375.02459018911
0.0983488749433516,2375.03459018911
0.169820105855011,2375.04459018911
0.246232340995377,2375.05459018911
0.320261270199832,2375.06459018911
0.386554798628973,2375.07459018911
0.443114736195926,2375.08459018911
0.489881084974155,2375.09459018911
0.527462773838061,2375.10459018911
0.557346299712045,2375.11459018911
0.580800263658316,2375.12459018911
0.597005155105912,2375.13459018911
0.606624216064152,2375.14459018911
0.609511491192499,2375.15459018911
0.605550038255016,2375.16459018911
0.595163783704599,2375.17459018911
0.579818514956497,2375.18459018911
0.561237272187331,2375.19459018911
0.541244759747582,2375.20459018911
0.520361392285368,2375.21459018911
0.49854246331921,2375.22459018911
0.475525716598836,2375.23459018911
0.45175517036728,2375.24459018911
0.426362276970269,2375.25459018911
0.400101198104066,2375.26459018911
0.372215511752481,2375.27459018911
0.342721618947451,2375.28459018911
0.312644174619883,2375.29459018911
0.282657108593186,2375.30459018911
0.255284510998101,2375.31459018911
0.233553981084398,2375.32459018911
0.219070165735852,2375.33459018911
0.212278736693458,2375.34459018911
0.213119818606793,2375.35459018911
0.220830601183812,2375.36459018911
0.234004147184998,2375.37459018911
0.250377340573125,2375.38459018911
0.267742794989812,2375.39459018911
0.284716854716038,2375.40459018911
0.299088715171912,2375.41459018911
0.310753567487596,2375.42459018911
0.319430320114354,2375.43459018911
0.32474773827208,2375.44459018911
0.326074304408283,2375.45459018911
0.324054993085928,2375.46459018911
0.318644024200681,2375.47459018911
0.311441857062779,2375.48459018911
0.303501495347211,2375.49459018911
0.295269968942735,2375.50459018911
0.286673336065275,2375.51459018911
0.27735798182224,2375.52459018911
0.267056451770119,2375.53459018911
0.25596023201557,2375.54459018911
0.243465491147288,2375.55459018911
0.230619782955112,2375.56459018911
0.216741151022357,2375.57459018911
0.201524195976487,2375.58459018911
0.185155295470798,2375.59459018911
0.167768907566166,2375.60459018911
0.151096766581128,2375.61459018911
0.135888636194085,2375.62459018911
0.120583658652971,2375.63459018911
0.105680669355918,2375.64459018911
0.0915069425445272,2375.65459018911
0.0779476491618679,2375.66459018911
0.0642762961921493,2375.67459018911
0.0505425169428471,2375.68459018911
0.0364875149299353,2375.69459018911
0.0223372064381533,2375.70459018911
0.00695807632786004,2375.71459018911
-0.00912221933388377,2375.72459018911
-0.0258870088929228,2375.73459018911
-0.0421970985723575,2375.74459018911
-0.0583605809580578,2375.75459018911
-0.0744463651401753,2375.76459018911
-0.0904005777539716,2375.77459018911
-0.106176982854285,2375.78459018911
-0.121069542489753,2375.79459018911
-0.132764316301082,2375.80459018911
-0.135875557986238,2375.81459018911
-0.12248996108671,2375.82459018911
-0.0845369598835079,2375.83459018911
-0.021054649540244,2375.84459018911
0.0619673025566165,2375.85459018911
0.153780765527696,2375.86459018911
0.243797282198645,2375.87459018911
0.323592374242458,2375.88459018911
0.39024889492794,2375.89459018911
0.44403224429261,2375.90459018911
0.486735259006434,2375.91459018911
0.519846365209908,2375.92459018911
0.544456460878492,2375.93459018911
0.561742200351466,2375.94459018911
0.571233346238078,2375.95459018911
0.573884384398614,2375.96459018911
0.569784902736282,2375.97459018911
0.560386510317495,2375.98459018911
0.545261804961749,2375.99459018911
0.525963802244778,2376.00459018911
0.504458574049934,2376.01459018911
0.483099814770745,2376.02459018911
0.462922082032329,2376.03459018911
0.442658893055179,2376.04459018911
0.4219697305178,2376.05459018911
0.399621815197894,2376.06459018911
0.37539848495032,2376.07459018911
0.349601285020168,2376.08459018911
0.322611373018686,2376.09459018911
0.294597227395287,2376.10459018911
0.266750081352015,2376.11459018911
0.239713563919706,2376.12459018911
0.214262364920353,2376.13459018911
0.192866641318559,2376.14459018911
0.176699957482981,2376.15459018911
0.16766352901477,2376.16459018911
0.165129201074323,2376.17459018911
0.168683256400155,2376.18459018911
0.177367555524427,2376.19459018911
0.189676421275061,2376.20459018911
0.202472327743203,2376.21459018911
0.214426737871965,2376.22459018911
0.223753208245769,2376.23459018911
0.230134322906561,2376.24459018911
0.233913152541274,2376.25459018911
0.234863708808833,2376.26459018911
0.233067657242774,2376.27459018911
0.228070742829223,2376.28459018911
0.221384436120885,2376.29459018911
0.212653376566674,2376.30459018911
0.20277065204899,2376.31459018911
0.191701963288159,2376.32459018911
0.179663432623007,2376.33459018911
0.166408320220597,2376.34459018911
0.151629304924698,2376.35459018911
0.136291677632048,2376.36459018911
0.120167396220243,2376.37459018911
0.104413080216168,2376.38459018911
0.0887217774130098,2376.39459018911
0.0725862214031882,2376.40459018911
0.0556599910165915,2376.41459018911
0.0385913747499098,2376.42459018911
0.0217645063456261,2376.43459018911
0.00537787433606741,2376.44459018911
-0.00991797739199892,2376.45459018911
-0.0255964835675323,2376.46459018911
-0.0417462252293326,2376.47459018911
-0.0575906093140932,2376.48459018911
-0.0734106674685112,2376.49459018911
-0.0891339558750329,2376.50459018911
-0.105089964637238,2376.51459018911
-0.120333053580513,2376.52459018911
-0.136114612261583,2376.53459018911
-0.151838593156813,2376.54459018911
-0.166683269958261,2376.55459018911
-0.181124610127418,2376.56459018911
-0.195071378228409,2376.57459018911
-0.208993372755522,2376.58459018911
-0.223488332713427,2376.59459018911
-0.23856668541905,2376.60459018911
-0.252152967043156,2376.61459018911
-0.262504210942335,2376.62459018911
-0.264651107789517,2376.63459018911
-0.2503007954883,2376.64459018911
-0.211991918603982,2376.65459018911
-0.146587923225472,2376.66459018911
-0.059620365353175,2376.67459018911
0.0379541860183536,2376.68459018911
0.132598155215023,2376.69459018911
0.216161242569428,2376.70459018911
0.284456241575754,2376.71459018911
0.33723746525296,2376.72459018911
0.377678528048408,2376.73459018911
0.407926368839392,2376.74459018911
0.429676384937688,2376.75459018911
0.443723472241827,2376.76459018911
0.451111866723535,2376.77459018911
0.451472556247554,2376.78459018911
0.445389165309782,2376.79459018911
0.434635899676949,2376.80459018911
0.419478222662299,2376.81459018911
0.40103197423209,2376.82459018911
0.379650313471214,2376.83459018911
0.356476318885027,2376.84459018911
0.332718888178186,2376.85459018911
0.308409161127035,2376.86459018911
0.283365818467476,2376.87459018911
0.257576377707353,2376.88459018911
0.230582404539095,2376.89459018911
0.201946228223099,2376.90459018911
0.171598966458039,2376.91459018911
0.13947673958206,2376.92459018911
0.107349902108093,2376.93459018911
0.0766083504763432,2376.94459018911
0.04907292857603,2376.95459018911
0.0268020266629652,2376.96459018911
0.0118763288705328,2376.97459018911
0.00541538857361052,2376.98459018911
0.00791967817077811,2376.99459018911
0.0188309775968976,2377.00459018911
0.0367167141771123,2377.01459018911
0.0582852713074282,2377.02459018911
0.0807447221896026,2377.03459018911
0.102247220108513,2377.04459018911
0.120107340983233,2377.05459018911
0.134387856639583,2377.06459018911
0.143776656326294,2377.07459018911
0.148816702107058,2377.08459018911
0.150260286935847,2377.09459018911
0.149217612619416,2377.10459018911
0.146313157814896,2377.11459018911
0.142189556051234,2377.12459018911
0.136607778079001,2377.13459018911
0.129124173550162,2377.14459018911
0.119923478398895,2377.15459018911
0.109522911660217,2377.16459018911
0.0977391503082726,2377.17459018911
0.0849413442092421,2377.18459018911
0.0716721417576005,2377.19459018911
0.0583749770422126,2377.20459018911
0.0451580163693376,2377.21459018911
0.0327776480568774,2377.22459018911
0.0205978307604712,2377.23459018911
0.00828138063299079,2377.24459018911
-0.00397234494461098,2377.25459018911
-0.0153428626697866,2377.26459018911
-0.0264867914503254,2377.27459018911
-0.0380657862311888,2377.28459018911
-0.049939140136148,2377.29459018911
-0.0620006427934655,2377.30459018911
-0.0745881398657474,2377.31459018911
-0.0872389449598095,2377.32459018911
-0.0999298865210695,2377.33459018911
-0.112886789640345,2377.34459018911
-0.126567041347832,2377.35459018911
-0.141799229134419,2377.36459018911
-0.15862927561843,2377.37459018911
-0.176083257554107,2377.38459018911
-0.193277454388306,2377.39459018911
-0.208529450115242,2377.40459018911
-0.220709227088891,2377.41459018911
-0.225895259496233,2377.42459018911
-0.217186653216808,2377.43459018911
-0.186194987506024,2377.44459018911
-0.129422305106172,2377.45459018911
-0.0503717831906752,2377.46459018911
0.0415556922148071,2377.47459018911
0.133674653707817,2377.48459018911
0.217467378538042,2377.49459018911
0.286691618962426,2377.50459018911
0.341077578842389,2377.51459018911
0.382770886256207,2377.52459018911
0.413932047812503,2377.53459018911
0.436565514850247,2377.54459018911
0.451696606622332,2377.55459018911
0.459346411366498,2377.56459018911
0.459674382902706,2377.57459018911
0.453642691266746,2377.58459018911
0.441563224887144,2377.59459018911
0.42583853357519,2377.60459018911
0.406398159647076,2377.61459018911
0.384542157946539,2377.62459018911
0.361464808800931,2377.63459018911
0.336614829699898,2377.64459018911
0.311066353246935,2377.65459018911
0.284423269607851,2377.66459018911
0.256873088913684,2377.67459018911
0.227060039005805,2377.68459018911
0.195442405194966,2377.69459018911
0.162081342153617,2377.70459018911
0.127892399207702,2377.71459018911
0.0956533093944778,2377.72459018911
0.0655711755555785,2377.73459018911
0.0403467527780428,2377.74459018911
0.021174246761341,2377.75459018911
0.0101365634957264,2377.76459018911
0.0069779144984272,2377.77459018911
0.0124683673789319,2377.78459018911
0.0255451829793227,2377.79459018911
0.0438496460273384,2377.80459018911
0.0649679018397623,2377.81459018911
0.0857884950399508,2377.82459018911
0.104207976229966,2377.83459018911
0.118782270473989,2377.84459018911
0.128657583836861,2377.85459018911
0.133622089170711,2377.86459018911
0.134242071720407,2377.87459018911
0.130944488402128,2377.88459018911
0.125158375501363,2377.89459018911
0.117009929460082,2377.90459018911
0.108454291970218,2377.91459018911
0.0990765805128433,2377.92459018911
0.0889026414528124,2377.93459018911
0.0781112354792044,2377.94459018911
0.0660401375566974,2377.95459018911
0.0524866055071746,2377.96459018911
0.0380612309179698,2377.97459018911
0.0232181113538381,2377.98459018911
0.00848932415336436,2377.99459018911
-0.00558098575668654,2378.00459018911
-0.0191239112072827,2378.01459018911
-0.0322329715145207,2378.02459018911
-0.0443581664606542,2378.03459018911
-0.0545426119946454,2378.04459018911
-0.0625555289241876,2378.05459018911
-0.0674331754046616,2378.06459018911
-0.0695149607233164,2378.07459018911
-0.0689272038762934,2378.08459018911
-0.066107962039859,2378.09459018911
-0.0622108120122928,2378.10459018911
-0.0578552763037906,2378.11459018911
-0.0537112990768554,2378.12459018911
-0.0498770536943481,2378.13459018911
-0.0476490696402354,2378.14459018911
-0.0465483992153099,2378.15459018911
-0.0468610015804012,2378.16459018911
-0.0480028729966402,2378.17459018911
-0.0479224741808713,2378.18459018911
-0.043761837748958,2378.19459018911
-0.0290798397431719,2378.20459018911
0.00209730780188393,2378.21459018911
0.0536878907580941,2378.22459018911
0.123333151053877,2378.23459018911
0.205728525785715,2378.24459018911
0.293060787473987,2378.25459018911
0.377699327173588,2378.26459018911
0.455041278857644,2378.27459018911
0.522037212457046,2378.28459018911
0.578035463286238,2378.29459018911
0.624625142204335,2378.30459018911
0.661348523882261,2378.31459018911
0.689892753959252,2378.32459018911
0.709774810565127,2378.33459018911
0.722112243727194,2378.34459018911
0.727724435826522,2378.35459018911
0.727389695579723,2378.36459018911
0.722578542754553,2378.37459018911
0.71393994965378,2378.38459018911
0.702339092218718,2378.39459018911
0.688621429979715,2378.40459018911
0.673304203882165,2378.41459018911
0.656090917887563,2378.42459018911
0.637843548093825,2378.43459018911
0.618628104611224,2378.44459018911
0.598202238846875,2378.45459018911
0.576167502647554,2378.46459018911
0.553513367180441,2378.47459018911
0.528796251737008,2378.48459018911
0.50333062817492,2378.49459018911
0.478627693002511,2378.50459018911
0.456084048687763,2378.51459018911
0.437665569344657,2378.52459018911
0.424440953122021,2378.53459018911
0.417375738066175,2378.54459018911
0.416502502537978,2378.55459018911
0.421835071169137,2378.56459018911
0.432450200148152,2378.57459018911
0.446395169177853,2378.58459018911
0.461469205055057,2378.59459018911
0.47583952954048,2378.60459018911
0.487943279197359,2378.61459018911
0.497448039022403,2378.62459018911
0.50362224413114,2378.63459018911
0.506186273450321,2378.64459018911
0.505434207661947,2378.65459018911
0.500786664252567,2378.66459018911
0.493569805779395,2378.67459018911
0.484123922940436,2378.68459018911
0.472915264249991,2378.69459018911
0.460414019955913,2378.70459018911
0.446763239940898,2378.71459018911
0.431774828675417,2378.72459018911
0.415641231761645,2378.73459018911
0.398950112021804,2378.74459018911
0.381497948650257,2378.75459018911
0.363241816655894,2378.76459018911
0.344663753274419,2378.77459018911
0.325368151550199,2378.78459018911
0.305511211961941,2378.79459018911
0.285814309960081,2378.80459018911
0.266639902052673,2378.81459018911
0.247603743665157,2378.82459018911
0.228925545713119,2378.83459018911
0.210696943044345,2378.84459018911
0.192352414981276,2378.85459018911
0.174701064094914,2378.86459018911
0.157422612756664,2378.87459018911
0.139476957299033,2378.88459018911
0.121974145670197,2378.89459018911
0.103654567665861,2378.90459018911
0.0857840206673529,2378.91459018911
0.067238728799273,2378.92459018911
0.0481574344207916,2378.93459018911
0.0297905037857769,2378.94459018911
0.0124718463750192,2378.95459018911
-0.000890041496939465,2378.96459018911
-0.00516650943428946,2378.97459018911
0.00682236504216853,2378.98459018911
0.0414996792595155,2378.99459018911
0.099033048915594,2379.00459018911
0.175397821432119,2379.01459018911
0.261253368454633,2379.02459018911
0.346524029462677,2379.03459018911
0.422982694451075,2379.04459018911
0.48618446535166,2379.05459018911
0.535277309823092,2379.06459018911
0.571979567877357,2379.07459018911
0.598442458964052,2379.08459018911
0.617049903625287,2379.09459018911
0.629223579424762,2379.10459018911
0.634532328761757,2379.11459018911
0.632707798458111,2379.12459018911
0.625132399006238,2379.13459018911
0.611606854621017,2379.14459018911
0.59364270417507,2379.15459018911
0.572363911086647,2379.16459018911
0.548761240930119,2379.17459018911
0.524222612523441,2379.18459018911
0.498919940049087,2379.19459018911
0.471979628520586,2379.20459018911
0.44358063889999,2379.21459018911
0.413094850157204,2379.22459018911
0.381186120595325,2379.23459018911
0.347064641150388,2379.24459018911
0.311213683270459,2379.25459018911
0.27494165086471,2379.26459018911
0.239151714299393,2379.27459018911
0.207284382918814,2379.28459018911
0.181576035316281,2379.29459018911
0.163882804298968,2379.30459018911
0.15451547178642,2379.31459018911
0.153523749466838,2379.32459018911
0.160553606612774,2379.33459018911
0.173435931032718,2379.34459018911
0.189601740036735,2379.35459018911
0.207498541849107,2379.36459018911
0.224456159410603,2379.37459018911
0.239294478865877,2379.38459018911
0.250325389637002,2379.39459018911
0.257651409949069,2379.40459018911
0.260708601113687,2379.41459018911
0.260507585037502,2379.42459018911
0.256902806031454,2379.43459018911
0.250057897416593,2379.44459018911
0.240927967220782,2379.45459018911
0.229529328412921,2379.46459018911
0.216370779892119,2379.47459018911
0.201809751595555,2379.48459018911
0.185623685798631,2379.49459018911
0.168526304037365,2379.50459018911
0.150702202586164,2379.51459018911
0.131901640285141,2379.52459018911
0.113091003865481,2379.53459018911
0.094473066726384,2379.54459018911
0.0764238867485174,2379.55459018911
0.0585659887735783,2379.56459018911
0.0412950564629667,2379.57459018911
0.0245486743582647,2379.58459018911
0.00877981816524227,2379.59459018911
-0.00619169044539667,2379.60459018911
-0.0213840912203883,2379.61459018911
-0.0361573303276243,2379.62459018911
-0.0512695997906687,2379.63459018911
-0.0660210131901013,2379.64459018911
-0.0806281834002892,2379.65459018911
-0.0956736333941623,2379.66459018911
-0.111577398063762,2379.67459018911
-0.129009192186817,2379.68459018911
-0.14665039451517,2379.69459018911
-0.163748163903978,2379.70459018911
-0.179798059562322,2379.71459018911
-0.194576020218996,2379.72459018911
-0.207385762015103,2379.73459018911
-0.21416006748926,2379.74459018911
-0.208668494875018,2379.75459018911
-0.182949022309894,2379.76459018911
-0.131688425209741,2379.77459018911
-0.0560652582321145,2379.78459018911
0.0350982799047369,2379.79459018911
0.13013247469869,2379.80459018911
0.219418906086988,2379.81459018911
0.295516931652973,2379.82459018911
0.355911155442316,2379.83459018911
0.401035630699105,2379.84459018911
0.432950823118816,2379.85459018911
0.453773470389262,2379.86459018911
0.466228026869052,2379.87459018911
0.472419324311458,2379.88459018911
0.471698249320014,2379.89459018911
0.464922055191832,2379.90459018911
0.452315169441531,2379.91459018911
0.434599203753149,2379.92459018911
0.41250728683951,2379.93459018911
0.387599184522944,2379.94459018911
0.360481475406276,2379.95459018911
0.331977103583592,2379.96459018911
0.302665296594939,2379.97459018911
0.272628969584002,2379.98459018911
0.241952370518912,2379.99459018911
0.209267804927556,2380.00459018911
0.174779993988953,2380.01459018911
0.1382212661441,2380.02459018911
0.100375083711427,2380.03459018911
0.0634529020704263,2380.04459018911
0.0279154379830875,2380.05459018911
-0.00278528020396595,2380.06459018911
-0.0264245440851118,2380.07459018911
-0.0416068976010206,2380.08459018911
-0.0468337175670892,2380.09459018911
-0.0420305877863687,2380.10459018911
-0.0280416440912938,2380.11459018911
-0.0072060773008538,2380.12459018911
0.0175457792607703,2380.13459018911
0.0427314311579231,2380.14459018911
0.0651206616681887,2380.15459018911
0.0827384291623308,2380.16459018911
0.0947193207509231,2380.17459018911
0.10134396945828,2380.18459018911
0.103430587533405,2380.19459018911
0.101688010012494,2380.20459018911
0.096221774850298,2380.21459018911
0.0881585966143168,2380.22459018911
0.0788510563865327,2380.23459018911
0.0692382716273276,2380.24459018911
0.0590107128379006,2380.25459018911
0.0484508202989522,2380.26459018911
0.0361584081353107,2380.27459018911
