PPG,time
0.204244160879618,1584.65771349815
0.393750185576161,1584.66771349815
0.332784693574883,1584.67771349815
0.34713433947238,1584.68771349815
0.319270013524325,1584.69771349815
0.318248098741014,1584.70771349815
0.300197092322646,1584.71771349815
0.29325212999375,1584.72771349815
0.27969955989362,1584.73771349815
0.269966599660475,1584.74771349815
0.258554250306508,1584.75771349815
0.247642007892969,1584.76771349815
0.236616161557031,1584.77771349815
0.224957258016824,1584.78771349815
0.213528701131815,1584.79771349815
0.202209372613509,1584.80771349815
0.191171393357787,1584.81771349815
0.179591178250786,1584.82771349815
0.168020474771933,1584.83771349815
0.156441688966878,1584.84771349815
0.144856707732993,1584.85771349815
0.133230746630627,1584.86771349815
0.121911107455714,1584.87771349815
0.110501522161405,1584.88771349815
0.0995014553111802,1584.89771349815
0.0887107400933408,1584.90771349815
0.0778997278718251,1584.91771349815
0.0672403059045876,1584.92771349815
0.0564110819942863,1584.93771349815
0.0460219147169602,1584.94771349815
0.0359330259459545,1584.95771349815
0.0260572666914625,1584.96771349815
0.0161974874440609,1584.97771349815
0.00657431837246071,1584.98771349815
-0.00323048451984843,1584.99771349815
-0.0123076211445609,1585.00771349815
-0.020742197069753,1585.01771349815
-0.0289986727678862,1585.02771349815
-0.0372821613191439,1585.03771349815
-0.0458485420757181,1585.04771349815
-0.0545194596331778,1585.05771349815
-0.0637437376020335,1585.06771349815
-0.0725386201742922,1585.07771349815
-0.081037769758504,1585.08771349815
-0.0897701394369718,1585.09771349815
-0.0986179319658933,1585.10771349815
-0.10782706546197,1585.11771349815
-0.117434575387942,1585.12771349815
-0.1273932685919,1585.13771349815
-0.136084936083991,1585.14771349815
-0.142503842912244,1585.15771349815
-0.143790997956899,1585.16771349815
-0.13591005503551,1585.17771349815
-0.115421704301437,1585.18771349815
-0.0785459665367625,1585.19771349815
-0.0249129860847735,1585.20771349815
0.0449786898300002,1585.21771349815
0.127514512822067,1585.22771349815
0.218629815282082,1585.23771349815
0.314092997961963,1585.24771349815
0.408114762269285,1585.25771349815
0.496085703344992,1585.26771349815
0.575065572890747,1585.27771349815
0.641615486499274,1585.28771349815
0.694934322659293,1585.29771349815
0.734990354023126,1585.30771349815
0.761878378451104,1585.31771349815
0.776518337980026,1585.32771349815
0.781664869294542,1585.33771349815
0.779047008511404,1585.34771349815
0.770595985596289,1585.35771349815
0.758862937297161,1585.36771349815
0.744235758212013,1585.37771349815
0.727556277833188,1585.38771349815
0.710285316169268,1585.39771349815
0.691951324895712,1585.40771349815
0.672796300974485,1585.41771349815
0.652047728866314,1585.42771349815
0.630534670568373,1585.43771349815
0.607975961185916,1585.44771349815
0.583020465736447,1585.45771349815
0.55887448886895,1585.46771349815
0.535469787844396,1585.47771349815
0.515116229642163,1585.48771349815
0.498693568038257,1585.49771349815
0.487150926961716,1585.50771349815
0.480635590467615,1585.51771349815
0.479019650957281,1585.52771349815
0.482170431000982,1585.53771349815
0.488851318926922,1585.54771349815
0.498325842173613,1585.55771349815
0.509534036430963,1585.56771349815
0.522085699677913,1585.57771349815
0.535009186917406,1585.58771349815
0.546543529049464,1585.59771349815
0.556259953419375,1585.60771349815
0.563212335366958,1585.61771349815
0.567643906746139,1585.62771349815
0.568814922194099,1585.63771349815
0.567065167457904,1585.64771349815
0.561794273608331,1585.65771349815
0.553565019727613,1585.66771349815
0.542519862772272,1585.67771349815
0.529731981122524,1585.68771349815
0.515433737198505,1585.69771349815
0.500812234900053,1585.70771349815
0.485373306117188,1585.71771349815
0.469037737684608,1585.72771349815
0.452258461312241,1585.73771349815
0.435749166997696,1585.74771349815
0.41884892237877,1585.75771349815
0.402372035210165,1585.76771349815
0.386200759004671,1585.77771349815
0.371080043949609,1585.78771349815
0.356148781869537,1585.79771349815
0.34119521101476,1585.80771349815
0.326795635351742,1585.81771349815
0.312625440033894,1585.82771349815
0.298763940989213,1585.83771349815
0.285210140735309,1585.84771349815
0.272206382889411,1585.85771349815
0.259794395251984,1585.86771349815
0.247667582509575,1585.87771349815
0.235471107548005,1585.88771349815
0.223020274508021,1585.89771349815
0.21093495326372,1585.90771349815
0.198554921548504,1585.91771349815
0.186151591628952,1585.92771349815
0.174395081234487,1585.93771349815
0.162517367135761,1585.94771349815
0.150880359236254,1585.95771349815
0.139330559459946,1585.96771349815
0.127843716183193,1585.97771349815
0.115813919548127,1585.98771349815
0.103907743538453,1585.99771349815
0.0917371081765854,1586.00771349815
0.0795406476793232,1586.01771349815
0.0672335644805001,1586.02771349815
0.0549429068015027,1586.03771349815
0.0428264118625021,1586.04771349815
0.0304145413863817,1586.05771349815
0.0188676406139621,1586.06771349815
0.00768188428525954,1586.07771349815
-0.00322507321140865,1586.08771349815
-0.013433689920327,1586.09771349815
-0.0242744350717465,1586.10771349815
-0.0347000284429423,1586.11771349815
-0.0450893374835296,1586.12771349815
-0.0547618946426477,1586.13771349815
-0.0638750018911632,1586.14771349815
-0.072667606296667,1586.15771349815
-0.0816220261040383,1586.16771349815
-0.0909802162290313,1586.17771349815
-0.101022381255611,1586.18771349815
-0.112126752026058,1586.19771349815
-0.123375829666599,1586.20771349815
-0.134856255326378,1586.21771349815
-0.145207006215502,1586.22771349815
-0.152576854157785,1586.23771349815
-0.154316846426641,1586.24771349815
-0.147544430741093,1586.25771349815
-0.128754217222512,1586.26771349815
-0.0957584183326664,1586.27771349815
-0.0470979865270704,1586.28771349815
0.0161340499858866,1586.29771349815
0.0911447584304513,1586.30771349815
0.174729531132595,1586.31771349815
0.262216798208219,1586.32771349815
0.349195901837884,1586.33771349815
0.431096043032308,1586.34771349815
0.504180129500815,1586.35771349815
0.566310664619314,1586.36771349815
0.615997498348143,1586.37771349815
0.652801986136189,1586.38771349815
0.677430900625575,1586.39771349815
0.690923229093709,1586.40771349815
0.695465160703457,1586.41771349815
0.691862736528065,1586.42771349815
0.681658000797388,1586.43771349815
0.666978522502358,1586.44771349815
0.648520318708439,1586.45771349815
0.627366518935662,1586.46771349815
0.602895963783988,1586.47771349815
0.575519380959584,1586.48771349815
0.545536107938818,1586.49771349815
0.514056739054574,1586.50771349815
0.481294467973958,1586.51771349815
0.448358205927887,1586.52771349815
0.416889074981589,1586.53771349815
0.387345895087971,1586.54771349815
0.361374006462623,1586.55771349815
0.340108066189218,1586.56771349815
0.324084443728902,1586.57771349815
0.314396504857115,1586.58771349815
0.310581544123861,1586.59771349815
0.313389405054721,1586.60771349815
0.322392476869555,1586.61771349815
0.335863948681545,1586.62771349815
0.352418026827653,1586.63771349815
0.369955795550835,1586.64771349815
0.386878460105174,1586.65771349815
0.40191324103474,1586.66771349815
0.413809547033766,1586.67771349815
0.42238502689377,1586.68771349815
0.427204373036319,1586.69771349815
0.428205275332614,1586.70771349815
0.426590034772867,1586.71771349815
0.42207560792679,1586.72771349815
0.414944600645095,1586.73771349815
0.40569880551912,1586.74771349815
0.394320918938313,1586.75771349815
0.380872807973426,1586.76771349815
0.366840183281242,1586.77771349815
0.351987564854038,1586.78771349815
0.337011835215955,1586.79771349815
0.321730773605107,1586.80771349815
0.306492863524205,1586.81771349815
0.291948979772401,1586.82771349815
0.277947539949382,1586.83771349815
0.264493793843853,1586.84771349815
0.251919381616615,1586.85771349815
0.239285269044704,1586.86771349815
0.22707680268216,1586.87771349815
0.215378688793527,1586.88771349815
0.204071648472129,1586.89771349815
0.19350487649631,1586.90771349815
0.183276234165529,1586.91771349815
0.174166721256626,1586.92771349815
0.16518943873003,1586.93771349815
0.156811955308178,1586.94771349815
0.148994712526861,1586.95771349815
0.141814353817591,1586.96771349815
0.134578622759082,1586.97771349815
0.127453618143034,1586.98771349815
0.120076046482653,1586.99771349815
0.112372123233391,1587.00771349815
0.104654657168506,1587.01771349815
0.0963783819626807,1587.02771349815
0.088351739610879,1587.03771349815
0.0803465600012778,1587.04771349815
0.0726613075527605,1587.05771349815
0.0645803140873139,1587.06771349815
0.0564379131032875,1587.07771349815
0.0481089442887842,1587.08771349815
0.0391908162009755,1587.09771349815
0.0304494794001627,1587.10771349815
0.02115492647101,1587.11771349815
0.0114730346249441,1587.12771349815
0.00164231189702068,1587.13771349815
-0.00884892583674273,1587.14771349815
-0.0195284108992376,1587.15771349815
-0.0310715440386292,1587.16771349815
-0.0424055840234253,1587.17771349815
-0.0533906685007835,1587.18771349815
-0.0633335075973385,1587.19771349815
-0.0699690634467423,1587.20771349815
-0.071449581372374,1587.21771349815
-0.0641608361424108,1587.22771349815
-0.0443667521561747,1587.23771349815
-0.00959194254225638,1587.24771349815
0.0413615857176113,1587.25771349815
0.107514215607851,1587.26771349815
0.186741479692688,1587.27771349815
0.274998308202258,1587.28771349815
0.367435465934505,1587.29771349815
0.459306286552879,1587.30771349815
0.54567732480836,1587.31771349815
0.62233597117839,1587.32771349815
0.686727581789994,1587.33771349815
0.737723356747272,1587.34771349815
0.77564471530467,1587.35771349815
0.801112628515152,1587.36771349815
0.815544269820314,1587.37771349815
0.820010843989671,1587.38771349815
0.816231071638795,1587.39771349815
0.806010151596833,1587.40771349815
0.79052250158573,1587.41771349815
0.771275878786951,1587.42771349815
0.74867275446987,1587.43771349815
0.722429031927244,1587.44771349815
0.69370762038878,1587.45771349815
0.662019122109223,1587.46771349815
0.628847123231502,1587.47771349815
0.594765394908981,1587.48771349815
0.560960145232379,1587.49771349815
0.528231542088038,1587.50771349815
0.498356674596093,1587.51771349815
0.471962128035686,1587.52771349815
0.450518713280295,1587.53771349815
0.435201483687023,1587.54771349815
0.42673431291633,1587.55771349815
0.425132673230352,1587.56771349815
0.430428091976895,1587.57771349815
0.441753766747683,1587.58771349815
0.457249427278564,1587.59771349815
0.475961645997007,1587.60771349815
0.495414582949789,1587.61771349815
0.514730279282923,1587.62771349815
0.531689318105724,1587.63771349815
0.546017163094463,1587.64771349815
0.55615759387938,1587.65771349815
0.562272683776463,1587.66771349815
0.564931599962093,1587.67771349815
0.563940058874612,1587.68771349815
0.559748685236382,1587.69771349815
0.553001349928865,1587.70771349815
0.543468923242893,1587.71771349815
0.531790482986776,1587.72771349815
0.518080427186872,1587.73771349815
0.503192246454663,1587.74771349815
0.487289121283823,1587.75771349815
0.470962413079469,1587.76771349815
0.454768812150571,1587.77771349815
0.438903453337902,1587.78771349815
0.423704586342614,1587.79771349815
0.40898059600157,1587.80771349815
0.394848405391565,1587.81771349815
0.380682069951203,1587.82771349815
0.367124208279686,1587.83771349815
0.354237153347887,1587.84771349815
0.341970781068048,1587.85771349815
0.329925222358052,1587.86771349815
0.31866905773481,1587.87771349815
0.307528670986697,1587.88771349815
0.296505934397424,1587.89771349815
0.285102249135261,1587.90771349815
0.273651152688248,1587.91771349815
0.262542556578882,1587.92771349815
0.25140895315241,1587.93771349815
0.241077523564447,1587.94771349815
0.231215937713398,1587.95771349815
0.221443847854817,1587.96771349815
0.211677567294591,1587.97771349815
0.201358683923291,1587.98771349815
0.19095591329855,1587.99771349815
0.180557226289179,1588.00771349815
0.169920941657827,1588.01771349815
0.159153544333985,1588.02771349815
0.147989104499842,1588.03771349815
0.136165173038057,1588.04771349815
0.124610401228141,1588.05771349815
0.113471689813936,1588.06771349815
0.102929238608352,1588.07771349815
0.0926676455320948,1588.08771349815
0.0828659516878193,1588.09771349815
0.0733625122376912,1588.10771349815
0.0637282176477601,1588.11771349815
0.0538398508232577,1588.12771349815
0.0442988627491769,1588.13771349815
0.034878608000953,1588.14771349815
0.0256825957706577,1588.15771349815
0.0161256463190884,1588.16771349815
0.00580292302592822,1588.17771349815
-0.00340120509703362,1588.18771349815
-0.0103237396587022,1588.19771349815
-0.0128160333452106,1588.20771349815
-0.00749872692781742,1588.21771349815
0.0105917389781894,1588.22771349815
0.0439584014818665,1588.23771349815
0.0947307651120285,1588.24771349815
0.163300298458657,1588.25771349815
0.247181101692405,1588.26771349815
0.342136333292463,1588.27771349815
0.443394809117767,1588.28771349815
0.545161566584329,1588.29771349815
0.642088011485705,1588.30771349815
0.729517353271625,1588.31771349815
0.804180745680279,1588.32771349815
0.864886723663533,1588.33771349815
0.910424777807736,1588.34771349815
0.941963857098596,1588.35771349815
0.960486483063588,1588.36771349815
0.967947956818383,1588.37771349815
0.966868032221605,1588.38771349815
0.958520307430625,1588.39771349815
0.94518583726357,1588.40771349815
0.92800100821846,1588.41771349815
0.908511095552274,1588.42771349815
0.887467157974772,1588.43771349815
0.865392676958592,1588.44771349815
0.842808806318767,1588.45771349815
0.819694259752854,1588.46771349815
0.795681625929984,1588.47771349815
0.769850393907492,1588.48771349815
0.742449838769488,1588.49771349815
0.713957494885462,1588.50771349815
0.685401191994224,1588.51771349815
0.658751269023704,1588.52771349815
0.634466424083281,1588.53771349815
0.614538930249673,1588.54771349815
0.599589757431229,1588.55771349815
0.588753876244206,1588.56771349815
0.582376015334336,1588.57771349815
0.579643895448916,1588.58771349815
0.580509628325147,1588.59771349815
0.583615984850584,1588.60771349815
0.588100019101413,1588.61771349815
0.592766694131626,1588.62771349815
0.596309474753729,1588.63771349815
0.598255389194409,1588.64771349815
0.597894495422963,1588.65771349815
0.594418474891234,1588.66771349815
0.588227576383031,1588.67771349815
0.579053200164112,1588.68771349815
0.567152773805194,1588.69771349815
0.552081264454705,1588.70771349815
0.534489924300132,1588.71771349815
0.514922557022181,1588.72771349815
0.493344672663903,1588.73771349815
0.470629245174043,1588.74771349815
0.447717553720571,1588.75771349815
0.424663018590968,1588.76771349815
0.402059052153489,1588.77771349815
0.379237937590404,1588.78771349815
0.356296415854224,1588.79771349815
0.332929137716831,1588.80771349815
0.309382111112948,1588.81771349815
0.285425938551701,1588.82771349815
0.26200634557028,1588.83771349815
0.239305887434304,1588.84771349815
0.216984852815926,1588.85771349815
0.195620939853547,1588.86771349815
0.174375280631088,1588.87771349815
0.153393138845398,1588.88771349815
0.131839538754651,1588.89771349815
0.110890811176524,1588.90771349815
0.089948305646513,1588.91771349815
0.0687321494523978,1588.92771349815
0.0471866910312239,1588.93771349815
0.0256074501492286,1588.94771349815
0.00506934045730076,1588.95771349815
-0.0155444491683873,1588.96771349815
-0.0359966589935013,1588.97771349815
-0.0563421228704473,1588.98771349815
-0.0768592651524114,1588.99771349815
-0.097494887101441,1589.00771349815
-0.118700580618575,1589.01771349815
-0.139986113547932,1589.02771349815
-0.161167030411954,1589.03771349815
-0.182434670376159,1589.04771349815
-0.203251001578914,1589.05771349815
-0.223248466201763,1589.06771349815
-0.242799376378566,1589.07771349815
-0.262108269661853,1589.08771349815
-0.281360797336673,1589.09771349815
-0.300585277161604,1589.10771349815
-0.319771683170438,1589.11771349815
-0.338694564140422,1589.12771349815
-0.35763131979696,1589.13771349815
-0.377447131949216,1589.14771349815
-0.39773116756505,1589.15771349815
-0.418744828323729,1589.16771349815
-0.438779365250189,1589.17771349815
-0.457943570489494,1589.18771349815
-0.476164095595612,1589.19771349815
-0.493432613621461,1589.20771349815
-0.510106268275516,1589.21771349815
-0.526223338243963,1589.22771349815
-0.541981743467808,1589.23771349815
-0.557767432324403,1589.24771349815
-0.573663146167299,1589.25771349815
-0.589246870150791,1589.26771349815
-0.604527077953708,1589.27771349815
-0.619198024156694,1589.28771349815
-0.633839309614718,1589.29771349815
-0.648388990311895,1589.30771349815
-0.662596105549359,1589.31771349815
-0.67723510881363,1589.32771349815
-0.691360457035247,1589.33771349815
-0.704537484760447,1589.34771349815
-0.713904245251545,1589.35771349815
-0.716713554577529,1589.36771349815
-0.710045236207069,1589.37771349815
-0.691105548806135,1589.38771349815
-0.65983521628935,1589.39771349815
-0.617120581738242,1589.40771349815
-0.566068442952666,1589.41771349815
-0.510432865560562,1589.42771349815
-0.454322649805215,1589.43771349815
-0.400724014887524,1589.44771349815
-0.352285468539958,1589.45771349815
-0.311361870499153,1589.46771349815
-0.277986085382568,1589.47771349815
-0.253371176779913,1589.48771349815
-0.236674102991965,1589.49771349815
-0.227102425775139,1589.50771349815
-0.224010148443361,1589.51771349815
-0.226231163012805,1589.52771349815
-0.233514602919418,1589.53771349815
-0.244091606742568,1589.54771349815
-0.256691992854202,1589.55771349815
-0.270699483142459,1589.56771349815
-0.285052408807354,1589.57771349815
-0.299951373375012,1589.58771349815
-0.31436387107595,1589.59771349815
-0.32894586715818,1589.60771349815
-0.344233099858617,1589.61771349815
-0.359751986348354,1589.62771349815
-0.376190658366731,1589.63771349815
-0.393553460473265,1589.64771349815
-0.411426404640853,1589.65771349815
-0.428302294405613,1589.66771349815
-0.444123903141932,1589.67771349815
-0.458969165664732,1589.68771349815
-0.471753917895646,1589.69771349815
-0.482378306733584,1589.70771349815
-0.490986629001288,1589.71771349815
-0.49698549496672,1589.72771349815
-0.50093803122993,1589.73771349815
-0.502500590845769,1589.74771349815
-0.502390515810589,1589.75771349815
-0.501556252752152,1589.76771349815
-0.500528748107916,1589.77771349815
-0.500919769224988,1589.78771349815
-0.502719749003944,1589.79771349815
-0.506221110100254,1589.80771349815
-0.511437768447585,1589.81771349815
-0.517735116278196,1589.82771349815
-0.525854200965068,1589.83771349815
-0.534629889183395,1589.84771349815
-0.544767863353456,1589.85771349815
-0.555866485494589,1589.86771349815
-0.567351680371881,1589.87771349815
-0.580147391965479,1589.88771349815
-0.593330348900043,1589.89771349815
-0.606758603007304,1589.90771349815
-0.620266622897142,1589.91771349815
-0.633722897254846,1589.92771349815
-0.647662492866623,1589.93771349815
-0.661523858699906,1589.94771349815
-0.675177851651673,1589.95771349815
-0.688395722481561,1589.96771349815
-0.70105201615259,1589.97771349815
-0.71306473253694,1589.98771349815
-0.72436750723194,1589.99771349815
-0.736244543809658,1590.00771349815
-0.748045506438897,1590.01771349815
-0.759769474878573,1590.02771349815
-0.772043020008741,1590.03771349815
-0.784666550207539,1590.04771349815
-0.797801013893449,1590.05771349815
-0.810585573282682,1590.06771349815
-0.823096283792943,1590.07771349815
-0.834710578352859,1590.08771349815
-0.84559577132153,1590.09771349815
-0.856163656158175,1590.10771349815
-0.866849315175653,1590.11771349815
-0.87686539303647,1590.12771349815
-0.887066119798134,1590.13771349815
-0.89802436286237,1590.14771349815
-0.908957920975247,1590.15771349815
-0.920350577688996,1590.16771349815
-0.932487991756522,1590.17771349815
-0.94422666602304,1590.18771349815
-0.956621460524651,1590.19771349815
-0.968910739875951,1590.20771349815
-0.98084121611753,1590.21771349815
-0.992360800221185,1590.22771349815
-1.0033331814185,1590.23771349815
-1.01453839993116,1590.24771349815
-1.02589526546526,1590.25771349815
-1.03712329265657,1590.26771349815
-1.04850034344912,1590.27771349815
-1.05969588919321,1590.28771349815
-1.07060504627884,1590.29771349815
-1.082078417069,1590.30771349815
-1.09348804847891,1590.31771349815
-1.10460391279839,1590.32771349815
-1.11627385501329,1590.33771349815
-1.12740342339832,1590.34771349815
-1.13740394357999,1590.35771349815
-1.14674588477825,1590.36771349815
-1.15550912387601,1590.37771349815
-1.16458027220297,1590.38771349815
-1.1736819841982,1590.39771349815
-1.18313758322817,1590.40771349815
-1.19300445142352,1590.41771349815
-1.20341036725027,1590.42771349815
-1.2134999037325,1590.43771349815
-1.22366714249725,1590.44771349815
-1.23363459569456,1590.45771349815
-1.24343580971538,1590.46771349815
-1.25290377059177,1590.47771349815
-1.26188707021137,1590.48771349815
-1.27059020976478,1590.49771349815
-1.27865582677921,1590.50771349815
-1.28541245328441,1590.51771349815
-1.29019134260595,1590.52771349815
-1.2912104111855,1590.53771349815
-1.28614871452161,1590.54771349815
-1.2734088186794,1590.55771349815
-1.25217917836071,1590.56771349815
-1.22446128645376,1590.57771349815
-1.19201442583606,1590.58771349815
-1.15779464411288,1590.59771349815
-1.1245115331917,1590.60771349815
-1.09423662642804,1590.61771349815
-1.0684353303313,1590.62771349815
-1.04820045350089,1590.63771349815
-1.03393918240101,1590.64771349815
-1.02566959378997,1590.65771349815
-1.02247678440492,1590.66771349815
-1.02299746658166,1590.67771349815
-1.02704064735161,1590.68771349815
-1.03347842810975,1590.69771349815
-1.04176476543368,1590.70771349815
-1.05140746434548,1590.71771349815
-1.06214966926832,1590.72771349815
-1.07324908439366,1590.73771349815
-1.08437992591178,1590.74771349815
-1.09442572900525,1590.75771349815
-1.10445109415781,1590.76771349815
-1.11455457634105,1590.77771349815
-1.12491392013403,1590.78771349815
-1.13589100217563,1590.79771349815
-1.1472174165585,1590.80771349815
-1.15823218078273,1590.81771349815
-1.16870323287006,1590.82771349815
-1.17756533887232,1590.83771349815
-1.18463779027211,1590.84771349815
-1.18985431935411,1590.85771349815
-1.19308272563738,1590.86771349815
-1.19464960495154,1590.87771349815
-1.19483633101034,1590.88771349815
-1.19357137638748,1590.89771349815
-1.19116017238846,1590.90771349815
-1.18804177923275,1590.91771349815
-1.18415540379656,1590.92771349815
-1.18116306965561,1590.93771349815
-1.17873673018875,1590.94771349815
-1.17774208238526,1590.95771349815
-1.17796281577491,1590.96771349815
-1.1796919947815,1590.97771349815
-1.1824489906081,1590.98771349815
-1.18633792736224,1590.99771349815
-1.19136421137335,1591.00771349815
-1.19722580887679,1591.01771349815
-1.20389621009787,1591.02771349815
-1.21134133578702,1591.03771349815
-1.21868427547569,1591.04771349815
-1.22636587707647,1591.05771349815
-1.2337367628801,1591.06771349815
-1.24092549915735,1591.07771349815
-1.24860769538786,1591.08771349815
-1.25604624741327,1591.09771349815
-1.26305869267308,1591.10771349815
-1.2707131053588,1591.11771349815
-1.27853835206093,1591.12771349815
-1.28658449054619,1591.13771349815
-1.2947532644417,1591.14771349815
-1.30268086097911,1591.15771349815
-1.31056915159429,1591.16771349815
-1.31777466765238,1591.17771349815
-1.32436795986514,1591.18771349815
-1.33069389227153,1591.19771349815
-1.33716152580173,1591.20771349815
-1.34373667223209,1591.21771349815
-1.35035262324596,1591.22771349815
-1.3568190483868,1591.23771349815
-1.36333647303644,1591.24771349815
-1.37005914096007,1591.25771349815
-1.37654569967329,1591.26771349815
-1.3833717417696,1591.27771349815
-1.39032567958109,1591.28771349815
-1.39750719076592,1591.29771349815
-1.40485474110794,1591.30771349815
-1.41147554774622,1591.31771349815
-1.41813450690394,1591.32771349815
-1.42473013842351,1591.33771349815
-1.43185669530763,1591.34771349815
-1.4394915086388,1591.35771349815
-1.44735558473824,1591.36771349815
-1.45545997192549,1591.37771349815
-1.46332265096702,1591.38771349815
-1.4715465867172,1591.39771349815
-1.47918438298583,1591.40771349815
-1.48705727356952,1591.41771349815
-1.49468824063499,1591.42771349815
-1.50142950319664,1591.43771349815
-1.50812459981076,1591.44771349815
-1.51458025353671,1591.45771349815
-1.52079822150158,1591.46771349815
-1.52817814991963,1591.47771349815
-1.53470183226729,1591.48771349815
-1.54136686136065,1591.49771349815
-1.54785430892373,1591.50771349815
-1.5545893874021,1591.51771349815
-1.56119624077702,1591.52771349815
-1.56783064434487,1591.53771349815
-1.57414169775026,1591.54771349815
-1.5799423978949,1591.55771349815
-1.58508477057071,1591.56771349815
-1.58994337892695,1591.57771349815
-1.59504113906878,1591.58771349815
-1.6001889162908,1591.59771349815
-1.60543711362381,1591.60771349815
-1.61157744322951,1591.61771349815
-1.61785212569292,1591.62771349815
-1.62438046584959,1591.63771349815
-1.63068389056902,1591.64771349815
-1.63617312302378,1591.65771349815
-1.63896735768245,1591.66771349815
-1.63779764225062,1591.67771349815
-1.63059024785877,1591.68771349815
-1.61622628464182,1591.69771349815
-1.59423170073776,1591.70771349815
-1.56646554007311,1591.71771349815
-1.5351457943056,1591.72771349815
-1.50335381548719,1591.73771349815
-1.47314363237839,1591.74771349815
-1.44669629502841,1591.75771349815
-1.42482484730125,1591.76771349815
-1.40817795355392,1591.77771349815
-1.39684368665183,1591.78771349815
-1.3896282755708,1591.79771349815
-1.38549210210237,1591.80771349815
-1.38463780414,1591.81771349815
-1.38609230241868,1591.82771349815
-1.3900086598656,1591.83771349815
-1.39527877503391,1591.84771349815
-1.40144867160896,1591.85771349815
-1.40798047636258,1591.86771349815
-1.41417343017888,1591.87771349815
-1.42008802933596,1591.88771349815
-1.42525266263516,1591.89771349815
-1.42951523126042,1591.90771349815
-1.43306872594116,1591.91771349815
-1.43680245042025,1591.92771349815
-1.44018888629426,1591.93771349815
-1.44435381093371,1591.94771349815
-1.44838194881606,1591.95771349815
-1.45285184143849,1591.96771349815
-1.45688111644898,1591.97771349815
-1.45995987529226,1591.98771349815
-1.46286849051248,1591.99771349815
-1.46457244310474,1592.00771349815
-1.4654235116416,1592.01771349815
-1.46458398849661,1592.02771349815
-1.46203785629658,1592.03771349815
-1.45826982102897,1592.04771349815
-1.45367054547896,1592.05771349815
-1.44870476003822,1592.06771349815
-1.44308697696135,1592.07771349815
-1.43803393256085,1592.08771349815
-1.43345291611184,1592.09771349815
-1.42982011734626,1592.10771349815
-1.42780133607833,1592.11771349815
-1.42673277823969,1592.12771349815
-1.42702836857673,1592.13771349815
-1.42798240032632,1592.14771349815
-1.42975837622175,1592.15771349815
-1.43218185865258,1592.16771349815
-1.43558492632509,1592.17771349815
-1.43879186648513,1592.18771349815
-1.44223990724915,1592.19771349815
-1.44557595869761,1592.20771349815
-1.44892893102175,1592.21771349815
-1.45289384854237,1592.22771349815
-1.45702547044491,1592.23771349815
-1.46119458336223,1592.24771349815
-1.46464661810907,1592.25771349815
-1.46858385694235,1592.26771349815
-1.47225174701426,1592.27771349815
-1.47565495022537,1592.28771349815
-1.47907024535305,1592.29771349815
-1.48277699505123,1592.30771349815
-1.48670880483608,1592.31771349815
-1.49015235834396,1592.32771349815
-1.49331426686749,1592.33771349815
-1.49628339836024,1592.34771349815
-1.49893660323059,1592.35771349815
-1.50145640978355,1592.36771349815
-1.50407360526394,1592.37771349815
-1.50623877491727,1592.38771349815
-1.50808751769855,1592.39771349815
-1.51061512048915,1592.40771349815
-1.51314928171241,1592.41771349815
-1.51659471141176,1592.42771349815
-1.52100295545075,1592.43771349815
-1.52532496555054,1592.44771349815
-1.52970848436763,1592.45771349815
-1.53409261299271,1592.46771349815
-1.53794574828758,1592.47771349815
-1.54158475199817,1592.48771349815
-1.54483786373454,1592.49771349815
-1.5480402147342,1592.50771349815
-1.55137344909885,1592.51771349815
-1.55465515810111,1592.52771349815
-1.55824392296782,1592.53771349815
-1.56206440164289,1592.54771349815
-1.56610080008242,1592.55771349815
-1.5705538114501,1592.56771349815
-1.57500239246402,1592.57771349815
-1.57927370989251,1592.58771349815
-1.58353311205346,1592.59771349815
-1.58710183546754,1592.60771349815
-1.59033281896368,1592.61771349815
-1.59317897874048,1592.62771349815
-1.59604322360496,1592.63771349815
-1.5989369080755,1592.64771349815
-1.60173150998839,1592.65771349815
-1.60441348988888,1592.66771349815
-1.6074698222047,1592.67771349815
-1.61051143278665,1592.68771349815
-1.61371676494179,1592.69771349815
-1.61681248479408,1592.70771349815
-1.61991902735735,1592.71771349815
-1.62292714547422,1592.72771349815
-1.62562120432288,1592.73771349815
-1.62806177789754,1592.74771349815
-1.63012605386859,1592.75771349815
-1.63260013907563,1592.76771349815
-1.6353639675272,1592.77771349815
-1.63788192952719,1592.78771349815
-1.64080190981002,1592.79771349815
-1.64354633515632,1592.80771349815
-1.6457864964101,1592.81771349815
-1.64755175366873,1592.82771349815
-1.64730273272667,1592.83771349815
-1.64409426116037,1592.84771349815
-1.63548134094108,1592.85771349815
-1.62124099346403,1592.86771349815
-1.60026674973864,1592.87771349815
-1.57401918670384,1592.88771349815
-1.54388571219223,1592.89771349815
-1.51287355401646,1592.90771349815
-1.48213881280098,1592.91771349815
-1.45441195661823,1592.92771349815
-1.43055036867821,1592.93771349815
-1.41132726950318,1592.94771349815
-1.39695244804606,1592.95771349815
-1.3874155513452,1592.96771349815
-1.38260313799629,1592.97771349815
-1.38092201667518,1592.98771349815
-1.38166587709362,1592.99771349815
-1.3840274388338,1593.00771349815
-1.38749120772711,1593.01771349815
-1.39111469229138,1593.02771349815
-1.39447876562303,1593.03771349815
-1.39783912902678,1593.04771349815
-1.40062358211102,1593.05771349815
-1.40300439398367,1593.06771349815
-1.40520743656556,1593.07771349815
-1.40786340092823,1593.08771349815
-1.41059967696823,1593.09771349815
-1.41415198494444,1593.10771349815
-1.4181446590459,1593.11771349815
-1.42167638676478,1593.12771349815
-1.42412064669911,1593.13771349815
-1.42571561021095,1593.14771349815
-1.42570090212033,1593.15771349815
-1.424515740145,1593.16771349815
-1.4212480822015,1593.17771349815
-1.41585236938756,1593.18771349815
-1.40819634442523,1593.19771349815
-1.3985277423992,1593.20771349815
-1.38765315988833,1593.21771349815
-1.37626771639298,1593.22771349815
-1.3651865449833,1593.23771349815
-1.35476415407536,1593.24771349815
-1.34570330420088,1593.25771349815
-1.33825387153174,1593.26771349815
-1.33178365152456,1593.27771349815
-1.32613783422652,1593.28771349815
-1.32153314997744,1593.29771349815
-1.31807405132807,1593.30771349815
-1.31574878821336,1593.31771349815
-1.31463467504768,1593.32771349815
-1.31453371506585,1593.33771349815
-1.3151884918249,1593.34771349815
-1.3161807952674,1593.35771349815
-1.31658318864828,1593.36771349815
-1.31665668648658,1593.37771349815
-1.3160922895425,1593.38771349815
-1.3149981793347,1593.39771349815
-1.31382875248225,1593.40771349815
-1.31266354271538,1593.41771349815
-1.31189524786343,1593.42771349815
-1.31127814213891,1593.43771349815
-1.31069459075592,1593.44771349815
-1.30993801247247,1593.45771349815
-1.30960926035722,1593.46771349815
-1.30926077600792,1593.47771349815
-1.30923298245275,1593.48771349815
-1.3089647428595,1593.49771349815
-1.30837211082159,1593.50771349815
-1.30826459263029,1593.51771349815
-1.30779488316034,1593.52771349815
-1.30718238652131,1593.53771349815
-1.30680518172039,1593.54771349815
-1.30624130825838,1593.55771349815
-1.30580765288497,1593.56771349815
-1.30515654367691,1593.57771349815
-1.30392637190266,1593.58771349815
-1.30341620430636,1593.59771349815
-1.30278106456722,1593.60771349815
-1.30237010861768,1593.61771349815
-1.30212242141741,1593.62771349815
-1.3017155914029,1593.63771349815
-1.30151873969933,1593.64771349815
-1.30211394330596,1593.65771349815
-1.30308584507002,1593.66771349815
-1.30465314053983,1593.67771349815
-1.30584148876391,1593.68771349815
-1.30630375207347,1593.69771349815
-1.30617322653713,1593.70771349815
-1.30563561023486,1593.71771349815
-1.30507641705303,1593.72771349815
-1.30382666198555,1593.73771349815
-1.30304840749796,1593.74771349815
-1.3025899582494,1593.75771349815
-1.30254100152594,1593.76771349815
-1.30291220415371,1593.77771349815
-1.30327951043108,1593.78771349815
-1.30376256027762,1593.79771349815
-1.30367820501794,1593.80771349815
-1.30304723852714,1593.81771349815
-1.30278153730747,1593.82771349815
-1.30255660698154,1593.83771349815
-1.30309759034708,1593.84771349815
-1.30392674455487,1593.85771349815
-1.30487132991055,1593.86771349815
-1.304466167609,1593.87771349815
-1.30215635529789,1593.88771349815
-1.29607778443201,1593.89771349815
-1.2850845175013,1593.90771349815
-1.26805733270625,1593.91771349815
-1.24458165668146,1593.92771349815
-1.21533117291642,1593.93771349815
-1.18153308449946,1593.94771349815
-1.14515229985956,1593.95771349815
-1.10913339994684,1593.96771349815
-1.07503534217055,1593.97771349815
-1.04432353213913,1593.98771349815
-1.01769572866828,1593.99771349815
-0.995551964231438,1594.00771349815
-0.97760805372896,1594.01771349815
-0.963495421289128,1594.02771349815
-0.953199330579967,1594.03771349815
-0.945463135365262,1594.04771349815
-0.940002913936738,1594.05771349815
-0.935902553139217,1594.06771349815
-0.932985168471426,1594.07771349815
-0.930547500254933,1594.08771349815
-0.928592093423045,1594.09771349815
-0.926716035116564,1594.10771349815
-0.924259364018551,1594.11771349815
-0.921214448568628,1594.12771349815
-0.91745797034629,1594.13771349815
-0.914171929132946,1594.14771349815
-0.911100131758015,1594.15771349815
-0.908660217896445,1594.16771349815
-0.906481464349613,1594.17771349815
-0.904264911748192,1594.18771349815
-0.901757288025857,1594.19771349815
-0.898949499977804,1594.20771349815
-0.894502524996973,1594.21771349815
-0.889457947245937,1594.22771349815
-0.882936708881333,1594.23771349815
-0.875083171579319,1594.24771349815
-0.866044299656289,1594.25771349815
-0.855297196643601,1594.26771349815
-0.843578513093236,1594.27771349815
-0.831051554311843,1594.28771349815
-0.817938232062543,1594.29771349815
-0.805052041051803,1594.30771349815
-0.79283835121908,1594.31771349815
-0.781918670021131,1594.32771349815
-0.772511294732854,1594.33771349815
-0.764229758431629,1594.34771349815
-0.757675623231471,1594.35771349815
-0.752080721852055,1594.36771349815
-0.746941598381143,1594.37771349815
-0.742665585675998,1594.38771349815
-0.739087533310185,1594.39771349815
-0.736743247135473,1594.40771349815
-0.734599033074697,1594.41771349815
-0.732502603209522,1594.42771349815
-0.730936952493402,1594.43771349815
-0.728736761683266,1594.44771349815
-0.726482186522006,1594.45771349815
-0.724651594492425,1594.46771349815
-0.722515266669567,1594.47771349815
-0.72085689588881,1594.48771349815
-0.719392489284467,1594.49771349815
-0.718731986866059,1594.50771349815
-0.718022058264678,1594.51771349815
-0.717454299262384,1594.52771349815
-0.717740489980966,1594.53771349815
-0.717211322702739,1594.54771349815
-0.717708618330972,1594.55771349815
-0.71783759096067,1594.56771349815
-0.717800518194121,1594.57771349815
-0.718093488312367,1594.58771349815
-0.717835158859707,1594.59771349815
-0.717645743541137,1594.60771349815
-0.716885635286831,1594.61771349815
-0.71614388722924,1594.62771349815
-0.715251782816957,1594.63771349815
-0.714626099577074,1594.64771349815
-0.714146530079805,1594.65771349815
-0.713899568725905,1594.66771349815
-0.713429742966591,1594.67771349815
-0.712788782290745,1594.68771349815
-0.712067743128491,1594.69771349815
-0.71123241202533,1594.70771349815
-0.711048701658368,1594.71771349815
-0.710841932143175,1594.72771349815
-0.71137687834478,1594.73771349815
-0.712078445935484,1594.74771349815
-0.713377259046886,1594.75771349815
-0.714281605542445,1594.76771349815
-0.715841854522973,1594.77771349815
-0.716815376854753,1594.78771349815
-0.717985150556316,1594.79771349815
-0.719690770051784,1594.80771349815
-0.721649683623951,1594.81771349815
-0.723791270537335,1594.82771349815
-0.725432632046984,1594.83771349815
-0.727703539665352,1594.84771349815
-0.729338220407594,1594.85771349815
-0.731167545213642,1594.86771349815
-0.732486753812518,1594.87771349815
-0.73427253674474,1594.88771349815
-0.735857898301705,1594.89771349815
-0.737576308570492,1594.90771349815
-0.73925632333879,1594.91771349815
-0.740892186395008,1594.92771349815
-0.742904217308876,1594.93771349815
-0.744903001182549,1594.94771349815
-0.746753575843641,1594.95771349815
-0.748244904394734,1594.96771349815
-0.749685777532299,1594.97771349815
-0.751787218023249,1594.98771349815
-0.753507771975012,1594.99771349815
-0.754364422911237,1595.00771349815
-0.753311938133212,1595.01771349815
-0.748024535704676,1595.02771349815
-0.736609969899749,1595.03771349815
-0.718085963073764,1595.04771349815
-0.692090165132578,1595.05771349815
-0.660489990757109,1595.06771349815
-0.624479226593722,1595.07771349815
-0.586896412712545,1595.08771349815
-0.549575806470255,1595.09771349815
-0.515155928920711,1595.10771349815
-0.484877007183979,1595.11771349815
-0.459074965265681,1595.12771349815
-0.438516906245699,1595.13771349815
-0.421624703260154,1595.14771349815
-0.408255359426551,1595.15771349815
-0.398511539746626,1595.16771349815
-0.392097367792579,1595.17771349815
-0.388610706963681,1595.18771349815
-0.387525154795481,1595.19771349815
-0.388207227665609,1595.20771349815
-0.389919785375274,1595.21771349815
-0.392742914590306,1595.22771349815
-0.396380081161182,1595.23771349815
-0.400312592206232,1595.24771349815
-0.404454844287429,1595.25771349815
-0.409126596072525,1595.26771349815
-0.413836601314761,1595.27771349815
-0.418712497977833,1595.28771349815
-0.424354158474725,1595.29771349815
-0.430830398745914,1595.30771349815
-0.437244231905149,1595.31771349815
-0.442790194288264,1595.32771349815
-0.447198497138103,1595.33771349815
-0.449389026597286,1595.34771349815
-0.449426305490851,1595.35771349815
-0.447927514910092,1595.36771349815
-0.445042979468417,1595.37771349815
-0.441481539696235,1595.38771349815
-0.436695745849458,1595.39771349815
-0.43129337677593,1595.40771349815
-0.425104113825999,1595.41771349815
-0.419002630800017,1595.42771349815
-0.412856420325324,1595.43771349815
-0.407064133334583,1595.44771349815
-0.402493625325034,1595.45771349815
-0.398848309497055,1595.46771349815
-0.396543489398533,1595.47771349815
-0.395909187907373,1595.48771349815
-0.396559802098578,1595.49771349815
-0.3981883079557,1595.50771349815
-0.400937973613457,1595.51771349815
-0.404236541900413,1595.52771349815
-0.408485906985569,1595.53771349815
-0.413317682895938,1595.54771349815
-0.418345451059151,1595.55771349815
-0.423223676164207,1595.56771349815
-0.427468347901853,1595.57771349815
-0.431272554830325,1595.58771349815
-0.434858819544553,1595.59771349815
-0.437237157804813,1595.60771349815
-0.440067862001387,1595.61771349815
-0.441850819772195,1595.62771349815
-0.443394893282214,1595.63771349815
-0.444789668681728,1595.64771349815
-0.445517067110711,1595.65771349815
-0.446104304209848,1595.66771349815
-0.446607519580488,1595.67771349815
-0.446562892297332,1595.68771349815
-0.44665858128455,1595.69771349815
-0.446880913884776,1595.70771349815
-0.447897832146752,1595.71771349815
-0.448509908306723,1595.72771349815
-0.450107902552686,1595.73771349815
-0.451258017634177,1595.74771349815
-0.452254544486267,1595.75771349815
-0.4532818877684,1595.76771349815
-0.454588616409717,1595.77771349815
-0.456098389569309,1595.78771349815
-0.457017350592387,1595.79771349815
-0.458077574211589,1595.80771349815
-0.458824171779998,1595.81771349815
-0.460270635475485,1595.82771349815
-0.461943520861921,1595.83771349815
-0.463722160123628,1595.84771349815
-0.465300341279026,1595.85771349815
-0.467232984487813,1595.86771349815
-0.468946300799884,1595.87771349815
-0.470975314908976,1595.88771349815
-0.473578495490503,1595.89771349815
-0.475594197047472,1595.90771349815
-0.477385748476505,1595.91771349815
-0.47962159871104,1595.92771349815
-0.481233005791888,1595.93771349815
-0.482949351691727,1595.94771349815
-0.485231512005519,1595.95771349815
-0.487572533564492,1595.96771349815
-0.490150790832069,1595.97771349815
-0.492522022903631,1595.98771349815
-0.494644295418492,1595.99771349815
-0.496265871741599,1596.00771349815
-0.498722428360896,1596.01771349815
-0.500900969841335,1596.02771349815
-0.50302944314707,1596.03771349815
-0.505408101453331,1596.04771349815
-0.507937493524065,1596.05771349815
-0.509161593299096,1596.06771349815
-0.508525130324286,1596.07771349815
-0.504337396930771,1596.08771349815
-0.495518126164198,1596.09771349815
-0.480193784274232,1596.10771349815
-0.458297714486725,1596.11771349815
-0.430428147450824,1596.12771349815
-0.397679901471418,1596.13771349815
-0.361952037688079,1596.14771349815
-0.326038040559912,1596.15771349815
-0.29106245860605,1596.16771349815
-0.258073312946978,1596.17771349815
-0.22851353895414,1596.18771349815
-0.203384946258013,1596.19771349815
-0.18278942365835,1596.20771349815
-0.166672187641494,1596.21771349815
-0.154961216824645,1596.22771349815
-0.146603454332715,1596.23771349815
-0.141219999827662,1596.24771349815
-0.137805345433796,1596.25771349815
-0.135688654610913,1596.26771349815
-0.135455325562155,1596.27771349815
-0.135864218730702,1596.28771349815
-0.137033235723918,1596.29771349815
-0.139110998969125,1596.30771349815
-0.141196254147602,1596.31771349815
-0.144708672470298,1596.32771349815
-0.148818540855915,1596.33771349815
-0.15423532284188,1596.34771349815
-0.159903752606608,1596.35771349815
-0.165826068445097,1596.36771349815
-0.171242946207735,1596.37771349815
-0.174922582577929,1596.38771349815
-0.177031473062229,1596.39771349815
-0.176765403254145,1596.40771349815
-0.173263279792837,1596.41771349815
-0.16760060290033,1596.42771349815
-0.15979352341853,1596.43771349815
-0.150201635439331,1596.44771349815
-0.139125255981406,1596.45771349815
-0.127316217620216,1596.46771349815
-0.115707938408659,1596.47771349815
-0.104661669171756,1596.48771349815
-0.0948062497392113,1596.49771349815
-0.0859916862578303,1596.50771349815
-0.0788280706953632,1596.51771349815
-0.0736259682953194,1596.52771349815
-0.0692608214037869,1596.53771349815
-0.0666824917229863,1596.54771349815
-0.0650788289792954,1596.55771349815
-0.064183739626356,1596.56771349815
-0.0639921181572638,1596.57771349815
-0.0640619900667984,1596.58771349815
-0.0648405946337115,1596.59771349815
-0.0660548608632189,1596.60771349815
-0.0681408649064378,1596.61771349815
-0.0706270591824482,1596.62771349815
-0.0733602312509788,1596.63771349815
-0.0762938846824662,1596.64771349815
-0.0792541169508641,1596.65771349815
-0.0820356271069108,1596.66771349815
-0.0844358625064561,1596.67771349815
-0.0865654068103041,1596.68771349815
-0.0886455233357538,1596.69771349815
-0.0905917597186872,1596.70771349815
-0.0923359131960128,1596.71771349815
-0.0945916781939126,1596.72771349815
-0.0968010886588949,1596.73771349815
-0.0996781634436753,1596.74771349815
-0.102561112510738,1596.75771349815
-0.105512422970902,1596.76771349815
-0.108598519936719,1596.77771349815
-0.111033870610085,1596.78771349815
-0.113467473613152,1596.79771349815
-0.115632415618057,1596.80771349815
-0.117555721729697,1596.81771349815
-0.120198802163815,1596.82771349815
-0.122972244467424,1596.83771349815
-0.126401912315817,1596.84771349815
-0.130272917950979,1596.85771349815
-0.133911559627142,1596.86771349815
-0.137728730852754,1596.87771349815
-0.142428584634074,1596.88771349815
-0.147382145357095,1596.89771349815
-0.153124316977795,1596.90771349815
-0.159339116282162,1596.91771349815
-0.166459155959103,1596.92771349815
-0.174197650136041,1596.93771349815
-0.182337674118662,1596.94771349815
-0.190403802106471,1596.95771349815
-0.198408329735352,1596.96771349815
-0.205521515795262,1596.97771349815
-0.212468230568352,1596.98771349815
-0.218743219981539,1596.99771349815
-0.224590554577237,1597.00771349815
-0.229765873223372,1597.01771349815
-0.23498897906484,1597.02771349815
-0.240465644882352,1597.03771349815
-0.245453513645432,1597.04771349815
-0.25052039777247,1597.05771349815
-0.254933435596121,1597.06771349815
-0.258124316291406,1597.07771349815
-0.258227211342654,1597.08771349815
-0.25473876747148,1597.09771349815
-0.24510791860802,1597.10771349815
-0.227533675662094,1597.11771349815
-0.202574407973383,1597.12771349815
-0.169660510758815,1597.13771349815
-0.130913455661597,1597.14771349815
-0.0875663739449565,1597.15771349815
-0.041707248603949,1597.16771349815
0.00452187053199415,1597.17771349815
0.0497326556366392,1597.18771349815
0.0917375582060355,1597.19771349815
0.129642774068834,1597.20771349815
0.16261295116366,1597.21771349815
0.190494944741273,1597.22771349815
0.212991553409877,1597.23771349815
0.229562334150055,1597.24771349815
0.241537444148192,1597.25771349815
0.249143449150218,1597.26771349815
0.253172083176711,1597.27771349815
0.255273581372052,1597.28771349815
0.255529095602709,1597.29771349815
0.255411190625971,1597.30771349815
0.255504277793426,1597.31771349815
0.255363727763954,1597.32771349815
0.254923740337365,1597.33771349815
0.25450384047148,1597.34771349815
0.252941325165931,1597.35771349815
0.250312055740689,1597.36771349815
0.246310483678434,1597.37771349815
0.242190380556401,1597.38771349815
0.238080837226497,1597.39771349815
0.235038225550081,1597.40771349815
0.23358865421432,1597.41771349815
0.234935475146008,1597.42771349815
0.239010293273174,1597.43771349815
0.245903104608078,1597.44771349815
0.255296806569725,1597.45771349815
0.267641011451259,1597.46771349815
0.281459918821641,1597.47771349815
0.296101869870534,1597.48771349815
0.310396809064751,1597.49771349815
0.324032395071248,1597.50771349815
0.336287301645546,1597.51771349815
0.347898014066603,1597.52771349815
0.3582058789121,1597.53771349815
0.367155502496783,1597.54771349815
0.374816944236923,1597.55771349815
0.380840428214107,1597.56771349815
0.386013118473354,1597.57771349815
0.390344378593303,1597.58771349815
0.394599481252366,1597.59771349815
0.398829093929982,1597.60771349815
0.404396442034735,1597.61771349815
0.410242906924881,1597.62771349815
0.416873108856499,1597.63771349815
0.423305354200292,1597.64771349815
0.429573102187176,1597.65771349815
0.435737686761194,1597.66771349815
0.441522302686445,1597.67771349815
0.447500408699466,1597.68771349815
0.452685736301906,1597.69771349815
0.457093803486808,1597.70771349815
0.461567864477516,1597.71771349815
0.465709923078138,1597.72771349815
0.469521383593774,1597.73771349815
0.472093024147353,1597.74771349815
0.473423067743823,1597.75771349815
0.472727369400636,1597.76771349815
0.470785024939143,1597.77771349815
0.46731125241572,1597.78771349815
0.46277983605248,1597.79771349815
0.45730120213266,1597.80771349815
0.45126379751829,1597.81771349815
0.443797781766495,1597.82771349815
0.435574149462781,1597.83771349815
0.427107939429869,1597.84771349815
0.418560431156383,1597.85771349815
0.409253990831407,1597.86771349815
0.399601881578652,1597.87771349815
0.38918706324319,1597.88771349815
0.378410868928909,1597.89771349815
0.367715627417735,1597.90771349815
0.356726392369409,1597.91771349815
0.346221644374222,1597.92771349815
0.336077298026253,1597.93771349815
0.325965861964872,1597.94771349815
0.315679816309052,1597.95771349815
0.305599208427315,1597.96771349815
0.295880669111763,1597.97771349815
0.286261125947531,1597.98771349815
0.277010026501372,1597.99771349815
0.267833240537392,1598.00771349815
0.258943763973157,1598.01771349815
0.250611629598147,1598.02771349815
0.243154600963953,1598.03771349815
0.235788637696675,1598.04771349815
0.228736260455916,1598.05771349815
0.222071356476651,1598.06771349815
0.215084409349851,1598.07771349815
0.20794491873677,1598.08771349815
0.200472441985076,1598.09771349815
0.193011917508954,1598.10771349815
0.186283098723607,1598.11771349815
0.180106354254849,1598.12771349815
0.175137811119431,1598.13771349815
0.172129300489949,1598.14771349815
0.172213934333566,1598.15771349815
0.177636271894999,1598.16771349815
0.189498486165028,1598.17771349815
0.209735389220707,1598.18771349815
0.238289319720503,1598.19771349815
0.274613272586298,1598.20771349815
0.316274423429369,1598.21771349815
0.362320296655878,1598.22771349815
0.410341394046856,1598.23771349815
0.457813161956934,1598.24771349815
0.502905498205245,1598.25771349815
0.543047768811991,1598.26771349815
0.577318703516831,1598.27771349815
0.606102851565286,1598.28771349815
0.629281516482012,1598.29771349815
0.64715537637815,1598.30771349815
0.660582713838322,1598.31771349815
0.668962183403363,1598.32771349815
0.67346890655063,1598.33771349815
0.675462851142296,1598.34771349815
0.675271329368758,1598.35771349815
0.673342043369836,1598.36771349815
0.67010665823158,1598.37771349815
0.665376719361609,1598.38771349815
0.659447829310455,1598.39771349815
0.652306338783337,1598.40771349815
0.643933188581698,1598.41771349815
0.635243614190434,1598.42771349815
0.626188789171873,1598.43771349815
0.617793067046905,1598.44771349815
0.610778881129011,1598.45771349815
0.605825812249745,1598.46771349815
0.602130215149521,1598.47771349815
0.600604328358901,1598.48771349815
0.601424121507879,1598.49771349815
0.604832018093717,1598.50771349815
0.610327770355212,1598.51771349815
0.618181474529693,1598.52771349815
0.628473853157736,1598.53771349815
0.639902815334672,1598.54771349815
0.651674709340576,1598.55771349815
0.663135160643508,1598.56771349815
0.673394285875078,1598.57771349815
0.681880832540576,1598.58771349815
0.688338239310112,1598.59771349815
0.692886824250984,1598.60771349815
0.695488717806042,1598.61771349815
0.696488760936742,1598.62771349815
0.696150975214822,1598.63771349815
0.694386705824285,1598.64771349815
0.690963092098811,1598.65771349815
0.687236526307914,1598.66771349815
0.682691359192082,1598.67771349815
0.6772226213933,1598.68771349815
0.671422338650602,1598.69771349815
0.665340796751464,1598.70771349815
0.658942592218725,1598.71771349815
0.652582091071533,1598.72771349815
0.646073588664019,1598.73771349815
0.638888943476579,1598.74771349815
0.631624419204298,1598.75771349815
0.62389363690901,1598.76771349815
0.616716971525204,1598.77771349815
0.61051662931963,1598.78771349815
0.604700695240374,1598.79771349815
0.59896626529333,1598.80771349815
0.592865316452575,1598.81771349815
0.586852869731081,1598.82771349815
0.580684959990813,1598.83771349815
0.574622992593789,1598.84771349815
0.568965877122712,1598.85771349815
0.563066087607759,1598.86771349815
0.557040233114886,1598.87771349815
0.550809663848225,1598.88771349815
0.544231958341856,1598.89771349815
0.537646023502081,1598.90771349815
0.530472824919463,1598.91771349815
0.523432737835708,1598.92771349815
0.516216015152407,1598.93771349815
0.509149589794583,1598.94771349815
0.50174247478416,1598.95771349815
0.494422087780703,1598.96771349815
0.486349516753147,1598.97771349815
0.477807234404198,1598.98771349815
0.469482666583162,1598.99771349815
0.46062365456453,1599.00771349815
0.452955452056277,1599.01771349815
0.445700521443814,1599.02771349815
0.438907332992591,1599.03771349815
0.432069028218588,1599.04771349815
0.424911010365343,1599.05771349815
0.417113670491445,1599.06771349815
0.409193258119492,1599.07771349815
0.40169796240065,1599.08771349815
0.394386192076407,1599.09771349815
0.386723617574939,1599.10771349815
0.379685951902213,1599.11771349815
0.373081344003584,1599.12771349815
0.367020995489899,1599.13771349815
0.362094267627494,1599.14771349815
0.360252612378006,1599.15771349815
0.363399033090908,1599.16771349815
0.373230763538729,1599.17771349815
0.39165809829054,1599.18771349815
0.418993745864924,1599.19771349815
0.455703952200033,1599.20771349815
0.500112372233801,1599.21771349815
0.549951642722374,1599.22771349815
0.60320276804731,1599.23771349815
0.657427209974081,1599.24771349815
0.709148312908344,1599.25771349815
0.757284816580279,1599.26771349815
0.799799259935508,1599.27771349815
0.836259153317431,1599.28771349815
0.865937417805965,1599.29771349815
0.888671497969592,1599.30771349815
0.905112683046698,1599.31771349815
0.91617300895451,1599.32771349815
0.922941733960493,1599.33771349815
0.926193091371236,1599.34771349815
0.927056175670044,1599.35771349815
0.926429018626198,1599.36771349815
0.924533165424877,1599.37771349815
0.921808188543392,1599.38771349815
0.918124257884206,1599.39771349815
0.912873369372653,1599.40771349815
0.906737602889893,1599.41771349815
0.899041372672674,1599.42771349815
0.889660582917429,1599.43771349815
0.879624071223484,1599.44771349815
0.869491829202032,1599.45771349815
0.859851215029195,1599.46771349815
0.851685709592353,1599.47771349815
0.845686578979926,1599.48771349815
0.842402488596808,1599.49771349815
0.841902279405435,1599.50771349815
0.843497456913173,1599.51771349815
0.847525172415928,1599.52771349815
0.852383485272201,1599.53771349815
0.858552596904963,1599.54771349815
0.864898507310427,1599.55771349815
0.871037029817077,1599.56771349815
0.876574818862337,1599.57771349815
0.881229212509039,1599.58771349815
0.885323717812868,1599.59771349815
0.888599353165631,1599.60771349815
0.890185718525054,1599.61771349815
0.889441353923893,1599.62771349815
0.887226187523654,1599.63771349815
0.883865980714537,1599.64771349815
0.879400528409483,1599.65771349815
0.873822007973053,1599.66771349815
0.867268220002011,1599.67771349815
0.85954907781745,1599.68771349815
0.851561943997967,1599.69771349815
0.842988306670864,1599.70771349815
0.834171689720501,1599.71771349815
0.824981531169344,1599.72771349815
0.815234014967471,1599.73771349815
0.805463134365259,1599.74771349815
0.795389470183405,1599.75771349815
0.785607169494576,1599.76771349815
0.775470466498837,1599.77771349815
0.765930279080743,1599.78771349815
0.756979655087852,1599.79771349815
0.747988458636919,1599.80771349815
0.738992678203437,1599.81771349815
0.730361589660628,1599.82771349815
0.721138055428911,1599.83771349815
0.712143934197405,1599.84771349815
0.703673196837997,1599.85771349815
0.694383517511416,1599.86771349815
0.685496543871667,1599.87771349815
0.675837595764699,1599.88771349815
0.66611323291249,1599.89771349815
0.656004092516061,1599.90771349815
0.645606460449569,1599.91771349815
0.635014800697179,1599.92771349815
0.624233233695781,1599.93771349815
0.613268475330326,1599.94771349815
0.602255047217616,1599.95771349815
0.59093274928201,1599.96771349815
0.579578145668808,1599.97771349815
0.568264833681184,1599.98771349815
0.557533000349544,1599.99771349815
0.547341772559132,1600.00771349815
0.537061916949725,1600.01771349815
0.527048335005935,1600.02771349815
0.517200508222515,1600.03771349815
0.507686589013558,1600.04771349815
0.498476838222068,1600.05771349815
0.489708601241465,1600.06771349815
0.481026165219853,1600.07771349815
0.472665994421537,1600.08771349815
0.4638326152313,1600.09771349815
0.455019856805269,1600.10771349815
0.445510109181203,1600.11771349815
0.436536825421572,1600.12771349815
0.427364095026618,1600.13771349815
0.418715975932105,1600.14771349815
0.409950846866777,1600.15771349815
0.401012814356218,1600.16771349815
0.39181438261883,1600.17771349815
0.382416527593686,1600.18771349815
0.373089864931039,1600.19771349815
0.364220602558388,1600.20771349815
0.356096793853911,1600.21771349815
0.349343027325762,1600.22771349815
0.346187384162327,1600.23771349815
0.348838677882305,1600.24771349815
0.359777560124026,1600.25771349815
0.380334949055271,1600.26771349815
0.411044655771979,1600.27771349815
0.451118765124078,1600.28771349815
0.49900082818315,1600.29771349815
0.552036594994985,1600.30771349815
0.60834054057738,1600.31771349815
0.664375515470867,1600.32771349815
0.717893875458922,1600.33771349815
0.766576999796031,1600.34771349815
0.808554393947095,1600.35771349815
0.843274911747082,1600.36771349815
0.870406768377842,1600.37771349815
0.8906765516492,1600.38771349815
0.904285942499616,1600.39771349815
0.912353250082944,1600.40771349815
0.915524752159,1600.41771349815
0.915190644661229,1600.42771349815
0.911433670642113,1600.43771349815
0.906308230195858,1600.44771349815
0.899726650040699,1600.45771349815
0.892146498100248,1600.46771349815
0.883789552769861,1600.47771349815
0.874048759013517,1600.48771349815
0.863659720637158,1600.49771349815
0.851416802699875,1600.50771349815
0.838035707300217,1600.51771349815
0.823631801523552,1600.52771349815
0.808965164582025,1600.53771349815
0.794513016303489,1600.54771349815
0.781411114036328,1600.55771349815
0.769988337993489,1600.56771349815
0.761653065381325,1600.57771349815
0.756082448414657,1600.58771349815
0.753862318720432,1600.59771349815
0.754573622468146,1600.60771349815
0.757893857052798,1600.61771349815
0.762949986617226,1600.62771349815
0.768906573193337,1600.63771349815
0.775241602243,1600.64771349815
0.781086002187754,1600.65771349815
0.78562979245064,1600.66771349815
0.788432251569335,1600.67771349815
0.789712303904636,1600.68771349815
0.789377795634192,1600.69771349815
0.787538694352315,1600.70771349815
0.783667603186839,1600.71771349815
0.778275870416158,1600.72771349815
0.77115317634289,1600.73771349815
0.762664963058085,1600.74771349815
0.753415738263926,1600.75771349815
0.743826594276692,1600.76771349815
0.733130026135942,1600.77771349815
0.721773286690795,1600.78771349815
0.709767786952874,1600.79771349815
0.696609211768176,1600.80771349815
0.683589614964927,1600.81771349815
0.671039917483739,1600.82771349815
0.658657821940641,1600.83771349815
0.646166527092275,1600.84771349815
0.63462362826489,1600.85771349815
0.623258590312196,1600.86771349815
0.61235432219751,1600.87771349815
0.601621433550048,1600.88771349815
0.591153667884121,1600.89771349815
0.580769933926451,1600.90771349815
0.570508350624935,1600.91771349815
0.560104423526134,1600.92771349815
0.549947580211605,1600.93771349815
0.539429548038965,1600.94771349815
0.528929934303257,1600.95771349815
0.518454668681608,1600.96771349815
0.507358741483546,1600.97771349815
0.496287236799857,1600.98771349815
0.484994518406238,1600.99771349815
0.474001924968132,1601.00771349815
0.463585435521337,1601.01771349815
0.453272563691192,1601.02771349815
0.443277205051981,1601.03771349815
0.43310172457485,1601.04771349815
0.423260697860932,1601.05771349815
0.413783112023394,1601.06771349815
0.404299273331244,1601.07771349815
0.395396339925112,1601.08771349815
0.386649051397454,1601.09771349815
0.377495161398469,1601.10771349815
0.367947634805492,1601.11771349815
0.358026046720339,1601.12771349815
0.347994471467378,1601.13771349815
0.337685333812323,1601.14771349815
0.327429915076154,1601.15771349815
0.316643204819356,1601.16771349815
0.306419670556716,1601.17771349815
0.296560366950162,1601.18771349815
0.2873518587985,1601.19771349815
0.278856361620172,1601.20771349815
0.271243361160872,1601.21771349815
0.266479770341885,1601.22771349815
0.265534510878799,1601.23771349815
0.270691536885057,1601.24771349815
0.284184371097339,1601.25771349815
0.306475116133765,1601.26771349815
0.337551113862938,1601.27771349815
0.376453079822959,1601.28771349815
0.421893223764594,1601.29771349815
0.470969520066201,1601.30771349815
0.52123992901018,1601.31771349815
0.570424034530545,1601.32771349815
0.616842683321371,1601.33771349815
0.658392067554983,1601.34771349815
0.693790641267545,1601.35771349815
0.722941510109926,1601.36771349815
0.744497365358583,1601.37771349815
0.759257750387358,1601.38771349815
0.767574198656477,1601.39771349815
0.770195479823833,1601.40771349815
0.76851171565584,1601.41771349815
0.763604366540437,1601.42771349815
0.755950844043415,1601.43771349815
0.74661268498585,1601.44771349815
0.735313698825418,1601.45771349815
0.722534596403276,1601.46771349815
0.708161679153005,1601.47771349815
0.692108080622127,1601.48771349815
0.674852971292105,1601.49771349815
0.657016263104797,1601.50771349815
0.639320668749618,1601.51771349815
0.623266420350434,1601.52771349815
0.609417978140371,1601.53771349815
0.598428518782297,1601.54771349815
0.590456278618096,1601.55771349815
0.586091566790986,1601.56771349815
0.584814472785312,1601.57771349815
0.586810130103866,1601.58771349815
0.591253709727502,1601.59771349815
0.598489363266315,1601.60771349815
0.60707363107471,1601.61771349815
0.616820158800859,1601.62771349815
0.627175244691016,1601.63771349815
0.636618127801457,1601.64771349815
0.644518176509783,1601.65771349815
0.649702523691906,1601.66771349815
0.652630774666902,1601.67771349815
0.652879911411465,1601.68771349815
0.650992041994189,1601.69771349815
0.647917178836584,1601.70771349815
0.643308587201098,1601.71771349815
0.637818284926594,1601.72771349815
0.630493168236715,1601.73771349815
0.621821845085606,1601.74771349815
0.612560086960507,1601.75771349815
0.602373495279746,1601.76771349815
0.591845661519239,1601.77771349815
0.580595812798425,1601.78771349815
0.569072200533882,1601.79771349815
0.557322121468983,1601.80771349815
0.546030988878174,1601.81771349815
0.534957538255369,1601.82771349815
0.523901609734726,1601.83771349815
0.513767012471249,1601.84771349815
0.503399965145492,1601.85771349815
0.49350523326449,1601.86771349815
0.483500271081182,1601.87771349815
0.473533891087555,1601.88771349815
0.4637179891019,1601.89771349815
0.453970105546053,1601.90771349815
0.444792092874295,1601.91771349815
0.435593837361091,1601.92771349815
0.42621588637426,1601.93771349815
0.416971306200801,1601.94771349815
0.407936488681434,1601.95771349815
0.398644632014868,1601.96771349815
0.389048665875131,1601.97771349815
0.379600368471609,1601.98771349815
0.369908928327526,1601.99771349815
0.360555400484242,1602.00771349815
0.350719594473758,1602.01771349815
0.341292812674182,1602.02771349815
0.331309192521153,1602.03771349815
0.322261614292863,1602.04771349815
0.31322727005466,1602.05771349815
0.303378121230121,1602.06771349815
0.294122479564207,1602.07771349815
0.284561134146329,1602.08771349815
0.275100736620455,1602.09771349815
0.265460244255197,1602.10771349815
0.256481372805501,1602.11771349815
0.248928826642658,1602.12771349815
0.24375269793786,1602.13771349815
0.242245001328295,1602.14771349815
0.247039926554465,1602.15771349815
0.259456226974432,1602.16771349815
0.28136251483586,1602.17771349815
0.314243697812524,1602.18771349815
0.357142220227075,1602.19771349815
0.408480459479908,1602.20771349815
0.466114601515185,1602.21771349815
0.526431200551956,1602.22771349815
0.586892766197871,1602.23771349815
0.644058289948522,1602.24771349815
0.696459067360829,1602.25771349815
0.741881211517629,1602.26771349815
0.780022709872206,1602.27771349815
0.810861124968414,1602.28771349815
0.834005041196318,1602.29771349815
0.850104342304115,1602.30771349815
0.859702687565586,1602.31771349815
0.863959666143717,1602.32771349815
0.864003259400935,1602.33771349815
0.861048762079888,1602.34771349815
0.855620375755644,1602.35771349815
0.849618684859372,1602.36771349815
0.84196310117026,1602.37771349815
0.833133689246163,1602.38771349815
0.822576157297225,1602.39771349815
0.809905013288332,1602.40771349815
0.796181771235428,1602.41771349815
0.78113344185714,1602.42771349815
0.765152090960752,1602.43771349815
0.750242241645332,1602.44771349815
0.737105605608201,1602.45771349815
0.726035215171551,1602.46771349815
0.718038673963632,1602.47771349815
0.712693646594152,1602.48771349815
0.710398636484019,1602.49771349815
0.710724166759331,1602.50771349815
0.713473118001869,1602.51771349815
0.718520019630833,1602.52771349815
0.725625804644053,1602.53771349815
0.733825069232366,1602.54771349815
0.741928683649149,1602.55771349815
0.749165347237794,1602.56771349815
0.75493524939261,1602.57771349815
0.758409788289814,1602.58771349815
0.758897272547295,1602.59771349815
0.757387860455659,1602.60771349815
0.753561439019899,1602.61771349815
0.748709979275549,1602.62771349815
0.742701844184879,1602.63771349815
0.735515262845254,1602.64771349815
0.727067946269794,1602.65771349815
0.717410818156479,1602.66771349815
0.707471424852437,1602.67771349815
0.696184691330636,1602.68771349815
0.684626056547856,1602.69771349815
0.672547364907052,1602.70771349815
0.66002736628705,1602.71771349815
0.647817765357655,1602.72771349815
0.635333201271328,1602.73771349815
0.62311526627957,1602.74771349815
0.611601526373025,1602.75771349815
0.60081399268349,1602.76771349815
0.59007051199906,1602.77771349815
0.579378974890852,1602.78771349815
0.568776849069565,1602.79771349815
0.558712771495191,1602.80771349815
0.548909600154496,1602.81771349815
0.539050666822158,1602.82771349815
0.528951771950902,1602.83771349815
0.518938727344464,1602.84771349815
0.508539154560381,1602.85771349815
0.498246717892579,1602.86771349815
0.488799907514245,1602.87771349815
0.478964657101901,1602.88771349815
0.469025341532671,1602.89771349815
0.458869015833484,1602.90771349815
0.448190324285692,1602.91771349815
0.437327205994441,1602.92771349815
0.426058136238249,1602.93771349815
0.413832900119106,1602.94771349815
0.401388214326043,1602.95771349815
0.388873412249457,1602.96771349815
0.376735578811982,1602.97771349815
0.364697201882684,1602.98771349815
0.354325854770297,1602.99771349815
0.345878858295653,1603.00771349815
0.339814785736891,1603.01771349815
0.339183305876475,1603.02771349815
0.346309469688032,1603.03771349815
0.362382440241272,1603.04771349815
0.389087212617936,1603.05771349815
0.425652651582192,1603.06771349815
0.471703979910712,1603.07771349815
0.525086372519425,1603.08771349815
0.582717384166525,1603.09771349815
0.6422509778484,1603.10771349815
0.700459912999308,1603.11771349815
0.754285199247547,1603.12771349815
0.802542237380394,1603.13771349815
0.84257551843981,1603.14771349815
0.874373186377769,1603.15771349815
0.897522256380226,1603.16771349815
0.91244772971833,1603.17771349815
0.920697150985421,1603.18771349815
0.924026664132894,1603.19771349815
0.923463584478035,1603.20771349815
0.919876451598476,1603.21771349815
0.914257269574112,1603.22771349815
0.906711804617645,1603.23771349815
0.89728116064499,1603.24771349815
0.886942914156572,1603.25771349815
0.874963913631864,1603.26771349815
0.861271370343873,1603.27771349815
0.845251588933921,1603.28771349815
0.827070369669977,1603.29771349815
0.807693707035187,1603.30771349815
0.787984678533938,1603.31771349815
0.769287537438085,1603.32771349815
0.753028180970712,1603.33771349815
0.739763738443135,1603.34771349815
0.729935760160243,1603.35771349815
0.724309935433993,1603.36771349815
0.721688215343571,1603.37771349815
0.721215986311521,1603.38771349815
0.722404593776317,1603.39771349815
0.72453823495456,1603.40771349815
0.727024245681272,1603.41771349815
0.729893994041898,1603.42771349815
0.732384947629581,1603.43771349815
0.733702287112391,1603.44771349815
0.733408644114413,1603.45771349815
0.731575128937427,1603.46771349815
0.727702578945921,1603.47771349815
0.721752276782751,1603.48771349815
0.714307504768089,1603.49771349815
0.70527017913539,1603.50771349815
0.695092948928564,1603.51771349815
0.684019809145745,1603.52771349815
0.672490778320475,1603.53771349815
0.660242493276485,1603.54771349815
0.646887294976725,1603.55771349815
0.633037233590074,1603.56771349815
0.618276029816651,1603.57771349815
0.603336579035439,1603.58771349815
0.587630901300149,1603.59771349815
0.571771511919331,1603.60771349815
0.55615369951302,1603.61771349815
0.540738278128559,1603.62771349815
0.525602570500022,1603.63771349815
0.510967936635888,1603.64771349815
0.496520306561317,1603.65771349815
0.483025445381537,1603.66771349815
0.469251116053728,1603.67771349815
0.455721022225323,1603.68771349815
0.442624404198319,1603.69771349815
0.429389337705427,1603.70771349815
0.416208985040868,1603.71771349815
0.403366806707165,1603.72771349815
0.390250343196316,1603.73771349815
0.377240378504512,1603.74771349815
0.364425702642858,1603.75771349815
0.351592319860167,1603.76771349815
0.338627101090114,1603.77771349815
0.325713744145671,1603.78771349815
0.312857388886402,1603.79771349815
0.300228022117565,1603.80771349815
0.287409178428005,1603.81771349815
0.274191266695432,1603.82771349815
0.260732782941924,1603.83771349815
0.247255997273261,1603.84771349815
0.23321863132042,1603.85771349815
0.219519401459644,1603.86771349815
0.206072458892324,1603.87771349815
0.193592103247858,1603.88771349815
0.183581757726235,1603.89771349815
0.177757039316787,1603.90771349815
0.178820104190232,1603.91771349815
0.188917151844208,1603.92771349815
0.209215919366241,1603.93771349815
0.240289736141805,1603.94771349815
0.280578220393538,1603.95771349815
0.327320331876876,1603.96771349815
0.377800657126861,1603.97771349815
0.428337207520759,1603.98771349815
0.476279554071204,1603.99771349815
0.519604709742465,1604.00771349815
0.556326585468714,1604.01771349815
0.586424327404917,1604.02771349815
0.609092166886025,1604.03771349815
0.624585995018737,1604.04771349815
0.633415657993094,1604.05771349815
0.636983226737875,1604.06771349815
0.635632937725849,1604.07771349815
0.631192058894687,1604.08771349815
0.624443000613394,1604.09771349815
0.615749028879975,1604.10771349815
0.606514650200222,1604.11771349815
0.596384732921654,1604.12771349815
0.584770213055469,1604.13771349815
0.572070924252202,1604.14771349815
0.557955325230685,1604.15771349815
0.542179942370486,1604.16771349815
0.525614541611555,1604.17771349815
0.508307216551091,1604.18771349815
0.491253890906196,1604.19771349815
0.474678551150629,1604.20771349815
0.459113678603051,1604.21771349815
0.445537855743959,1604.22771349815
0.435098353802226,1604.23771349815
0.427473795115636,1604.24771349815
0.422394368597631,1604.25771349815
0.41997231786715,1604.26771349815
0.419228467643167,1604.27771349815
0.420027803010423,1604.28771349815
0.421581498016846,1604.29771349815
0.423652628554472,1604.30771349815
0.425496503302224,1604.31771349815
0.426367713004869,1604.32771349815
0.42629440127134,1604.33771349815
0.424286073171472,1604.34771349815
0.421103247129767,1604.35771349815
0.415804185242874,1604.36771349815
0.408733913041552,1604.37771349815
0.400309139740026,1604.38771349815
0.3904072842918,1604.39771349815
0.379752238293221,1604.40771349815
0.368596386014283,1604.41771349815
0.357131443890801,1604.42771349815
0.344962766049913,1604.43771349815
0.332361626069789,1604.44771349815
0.319655661601108,1604.45771349815
0.307098367228569,1604.46771349815
0.294383220559702,1604.47771349815
0.282001287304779,1604.48771349815
0.269701441717425,1604.49771349815
0.258257524163498,1604.50771349815
0.247415848498087,1604.51771349815
0.236738642961563,1604.52771349815
0.226484171440725,1604.53771349815
0.216510599340704,1604.54771349815
0.205614182446061,1604.55771349815
0.194851665651493,1604.56771349815
0.1843570774268,1604.57771349815
0.174063866625506,1604.58771349815
0.163949584215195,1604.59771349815
0.153421480938458,1604.60771349815
0.143323736737707,1604.61771349815
0.132925251690264,1604.62771349815
0.122378053874571,1604.63771349815
0.111039481183532,1604.64771349815
0.0995732270524524,1604.65771349815
0.0874853208399589,1604.66771349815
0.0754403488155323,1604.67771349815
0.0634575527073838,1604.68771349815
0.0517223503881062,1604.69771349815
0.040073845166445,1604.70771349815
0.0289026758324833,1604.71771349815
0.0173854386645512,1604.72771349815
0.005462271705753,1604.73771349815
-0.00611954387386957,1604.74771349815
-0.0178412418058146,1604.75771349815
-0.0290049672358023,1604.76771349815
-0.040105899212774,1604.77771349815
-0.0503796859817741,1604.78771349815
-0.0597998037187166,1604.79771349815
-0.0686659512826473,1604.80771349815
-0.0772068775367201,1604.81771349815
-0.0856662415201599,1604.82771349815
-0.0935834544778415,1604.83771349815
-0.102244893473034,1604.84771349815
-0.110990955689741,1604.85771349815
-0.120321359144861,1604.86771349815
-0.130235971292632,1604.87771349815
-0.140206036315053,1604.88771349815
-0.150259829003609,1604.89771349815
-0.158855805211725,1604.90771349815
-0.16568085271123,1604.91771349815
-0.168637438173373,1604.92771349815
-0.165055768038808,1604.93771349815
-0.153853954108881,1604.94771349815
-0.132632761044693,1604.95771349815
-0.101898112289369,1604.96771349815
-0.0617375616898745,1604.97771349815
-0.0152355065297624,1604.98771349815
0.0353436222916107,1604.99771349815
0.0863811700082022,1605.00771349815
0.13525333026886,1605.01771349815
0.179795385860451,1605.02771349815
0.217887745762023,1605.03771349815
0.248788384688192,1605.04771349815
0.27188626827238,1605.05771349815
0.288184346436976,1605.06771349815
0.298699447903611,1605.07771349815
0.303882538518119,1605.08771349815
0.304553545419876,1605.09771349815
0.301349924642375,1605.10771349815
0.295824759297027,1605.11771349815
0.289546001322422,1605.12771349815
0.282972897153083,1605.13771349815
0.276307343791747,1605.14771349815
0.269247231211603,1605.15771349815
0.261944226854186,1605.16771349815
0.253329820152938,1605.17771349815
0.243001468762211,1605.18771349815
0.230804743452695,1605.19771349815
0.217778651670874,1605.20771349815
0.204840182791033,1605.21771349815
0.192319739328509,1605.22771349815
0.181367818103672,1605.23771349815
0.172596083164872,1605.24771349815
0.166562531905965,1605.25771349815
0.163853645079547,1605.26771349815
0.16410173350954,1605.27771349815
0.167063120793017,1605.28771349815
0.17158587043866,1605.29771349815
0.177432475679177,1605.30771349815
0.183517549772584,1605.31771349815
0.189555062666697,1605.32771349815
0.193816788404058,1605.33771349815
0.196746995264266,1605.34771349815
0.198497859266259,1605.35771349815
0.198432987562884,1605.36771349815
0.197204201387085,1605.37771349815
0.194024357736281,1605.38771349815
0.189488268854514,1605.39771349815
0.183505497211778,1605.40771349815
0.176247474552314,1605.41771349815
0.168076335921142,1605.42771349815
0.159019043714156,1605.43771349815
0.149333775463655,1605.44771349815
0.139221851508045,1605.45771349815
0.129149726929461,1605.46771349815
0.119186628741276,1605.47771349815
0.109799075051774,1605.48771349815
0.0999743095911751,1605.49771349815
0.0903714610174142,1605.50771349815
0.0806340749749869,1605.51771349815
0.0706731489553779,1605.52771349815
0.0609573632956526,1605.53771349815
0.0512646919145574,1605.54771349815
0.0419390289934746,1605.55771349815
0.0325671747884266,1605.56771349815
0.0231521011906037,1605.57771349815
0.0137622394373644,1605.58771349815
0.00446261940928861,1605.59771349815
-0.00432078283893668,1605.60771349815
-0.0129919678025735,1605.61771349815
-0.0218655786622066,1605.62771349815
-0.0308962073491921,1605.63771349815
-0.0395843593195282,1605.64771349815
-0.0492831834003868,1605.65771349815
-0.0589210734944961,1605.66771349815
-0.0684677990991282,1605.67771349815
-0.0775860101231603,1605.68771349815
-0.0864929754956353,1605.69771349815
-0.0956243730117031,1605.70771349815
-0.104771665890692,1605.71771349815
-0.11411966609425,1605.72771349815
-0.122864507034248,1605.73771349815
-0.131340874925662,1605.74771349815
-0.139667614474571,1605.75771349815
-0.147064754092989,1605.76771349815
-0.154797377837156,1605.77771349815
-0.16226215618595,1605.78771349815
-0.169979549819528,1605.79771349815
-0.177929584621187,1605.80771349815
-0.18594832333512,1605.81771349815
-0.19452087120073,1605.82771349815
-0.202772427312212,1605.83771349815
-0.211029929104325,1605.84771349815
-0.219440392159336,1605.85771349815
-0.227692531623159,1605.86771349815
-0.235775105527522,1605.87771349815
-0.243674035945709,1605.88771349815
-0.251230382427797,1605.89771349815
-0.259132124648004,1605.90771349815
-0.26653805858286,1605.91771349815
-0.273096686990511,1605.92771349815
-0.27807278375688,1605.93771349815
-0.279988235372519,1605.94771349815
-0.27661062405214,1605.95771349815
-0.265727360012465,1605.96771349815
-0.246506263868138,1605.97771349815
-0.217808650275728,1605.98771349815
-0.180770619994709,1605.99771349815
-0.137124657013124,1606.00771349815
-0.089669697007887,1606.01771349815
-0.0407309308005049,1606.02771349815
0.00631522667451671,1606.03771349815
0.0493595536790285,1606.04771349815
0.0869202537536704,1606.05771349815
0.117238515458958,1606.06771349815
0.141174052012048,1606.07771349815
0.158562390163512,1606.08771349815
0.169689155382311,1606.09771349815
0.175788535241859,1606.10771349815
0.177623366256874,1606.11771349815
0.175847579070487,1606.12771349815
0.172038878994273,1606.13771349815
0.167331753724817,1606.14771349815
0.16096462055111,1606.15771349815
0.154185898553602,1606.16771349815
0.146781379716309,1606.17771349815
0.138705216815044,1606.18771349815
0.129415522038012,1606.19771349815
0.119393516040074,1606.20771349815
0.108020082077148,1606.21771349815
0.0960403393137089,1606.22771349815
0.0841873789771942,1606.23771349815
0.072953578412195,1606.24771349815
0.0634478520662144,1606.25771349815
0.0561830433954597,1606.26771349815
0.0513934112966161,1606.27771349815
0.0495425840917955,1606.28771349815
0.0508895058396665,1606.29771349815
0.0547383214378164,1606.30771349815
0.0604351099264703,1606.31771349815
0.0668249723839955,1606.32771349815
0.0730808325716727,1606.33771349815
0.079232681893938,1606.34771349815
0.084195927308838,1606.35771349815
0.088652497299752,1606.36771349815
0.0919716866201452,1606.37771349815
0.0941533617179805,1606.38771349815
0.095309371579399,1606.39771349815
0.0946287674121576,1606.40771349815
0.0922902196461072,1606.41771349815
0.0879327476092694,1606.42771349815
0.0816420423350067,1606.43771349815
0.073691185015746,1606.44771349815
0.0657010251922737,1606.45771349815
0.056974506170848,1606.46771349815
0.048288166992546,1606.47771349815
0.0396163352690189,1606.48771349815
0.0307213004894133,1606.49771349815
0.0218876678117112,1606.50771349815
0.0129344084536631,1606.51771349815
0.00387543799931265,1606.52771349815
-0.00502565464669339,1606.53771349815
-0.0135118630458633,1606.54771349815
-0.0219707162495868,1606.55771349815
-0.0299909187832587,1606.56771349815
-0.0376298429318759,1606.57771349815
-0.0450511558981323,1606.58771349815
-0.0523104398164912,1606.59771349815
-0.0598812868092573,1606.60771349815
-0.0673349604818144,1606.61771349815
-0.0752094166587309,1606.62771349815
-0.0831846091454264,1606.63771349815
-0.0904163803848713,1606.64771349815
-0.097458137804391,1606.65771349815
-0.10408471085311,1606.66771349815
-0.11074689681763,1606.67771349815
-0.117635037151208,1606.68771349815
-0.125189495226997,1606.69771349815
-0.133539339853088,1606.70771349815
-0.141669024987272,1606.71771349815
-0.150096154281559,1606.72771349815
-0.158359025944056,1606.73771349815
-0.166388561012346,1606.74771349815
-0.174033682270527,1606.75771349815
-0.181744173668366,1606.76771349815
-0.18911121061447,1606.77771349815
-0.196377649524734,1606.78771349815
-0.203521720700565,1606.79771349815
-0.210786309278133,1606.80771349815
-0.217850287394363,1606.81771349815
-0.22573559231929,1606.82771349815
-0.232712369363791,1606.83771349815
-0.239797975879437,1606.84771349815
-0.246764094616895,1606.85771349815
-0.254045478872578,1606.86771349815
-0.261302896949684,1606.87771349815
-0.267986543626266,1606.88771349815
-0.275327556871013,1606.89771349815
-0.282452326244502,1606.90771349815
-0.290033786438711,1606.91771349815
-0.297676166944268,1606.92771349815
-0.305415738134913,1606.93771349815
-0.312705540600189,1606.94771349815
-0.318682837827793,1606.95771349815
-0.323339866796048,1606.96771349815
-0.324813166473067,1606.97771349815
-0.321116448278478,1606.98771349815
-0.310228937805979,1606.99771349815
-0.290105826026894,1607.00771349815
-0.260388407217017,1607.01771349815
-0.222986806348547,1607.02771349815
-0.179648861995879,1607.03771349815
-0.133157078856288,1607.04771349815
-0.0855595281148107,1607.05771349815
-0.0396686672576235,1607.06771349815
0.00255817041282967,1607.07771349815
0.0402626243140434,1607.08771349815
0.0716969004113158,1607.09771349815
0.0968913369006808,1607.10771349815
0.115615692362077,1607.11771349815
0.128395774351049,1607.12771349815
0.135898528650199,1607.13771349815
0.138944741436549,1607.14771349815
0.137579330440604,1607.15771349815
0.13319581132138,1607.16771349815
0.126727343311294,1607.17771349815
0.118755795608354,1607.18771349815
0.109488672959418,1607.19771349815
0.09968079356541,1607.20771349815
0.0884318977555497,1607.21771349815
0.0760206606124599,1607.22771349815
0.0626916717891904,1607.23771349815
0.0485376200384336,1607.24771349815
0.0351282295451436,1607.25771349815
0.023089723232104,1607.26771349815
0.0136424415045039,1607.27771349815
0.0068871665704971,1607.28771349815
0.00401936478075546,1607.29771349815
0.00410757447393248,1607.30771349815
0.00717983185179851,1607.31771349815
0.0131726967031684,1607.32771349815
0.0211433275424143,1607.33771349815
0.0306581256985727,1607.34771349815
0.0416411937292847,1607.35771349815
0.053606011116869,1607.36771349815
0.0657799033550669,1607.37771349815
0.0771950422228873,1607.38771349815
0.0867499276030663,1607.39771349815
0.0940264785174059,1607.40771349815
0.0989448974868872,1607.41771349815
0.10205038091044,1607.42771349815
0.10321021191225,1607.43771349815
0.102221625907908,1607.44771349815
0.0995565675446854,1607.45771349815
0.0957205480446361,1607.46771349815
0.0903383541626495,1607.47771349815
0.0838760458833809,1607.48771349815
0.0771299025473652,1607.49771349815
0.0692543532172247,1607.50771349815
0.0616712146381153,1607.51771349815
0.0544817465972086,1607.52771349815
0.047652344213623,1607.53771349815
0.04138678169983,1607.54771349815
0.0351180912493015,1607.55771349815
0.0288465118738887,1607.56771349815
0.0227465625293647,1607.57771349815
0.0161514335225859,1607.58771349815
0.00939074140483057,1607.59771349815
0.00336382918939146,1607.60771349815
-0.00250468868056083,1607.61771349815
-0.0079654099691763,1607.62771349815
-0.0134044958960577,1607.63771349815
-0.0186660443993681,1607.64771349815
-0.0241786808299602,1607.65771349815
-0.0297531846442091,1607.66771349815
-0.0354896430621009,1607.67771349815
-0.0414821220458707,1607.68771349815
-0.0471870299196508,1607.69771349815
-0.0532379170523912,1607.70771349815
-0.0589701734459304,1607.71771349815
-0.0654748284829131,1607.72771349815
-0.0727811081434761,1607.73771349815
-0.0796118572812154,1607.74771349815
-0.0863814248295402,1607.75771349815
-0.0930343977803411,1607.76771349815
-0.0998349210632646,1607.77771349815
-0.105844909500177,1607.78771349815
-0.112241925808367,1607.79771349815
-0.11836217772884,1607.80771349815
-0.12442805708444,1607.81771349815
-0.130765838296208,1607.82771349815
-0.136871376688196,1607.83771349815
-0.143418089872789,1607.84771349815
-0.149529323194404,1607.85771349815
-0.155070335063326,1607.86771349815
-0.16030460493053,1607.87771349815
-0.165714718660567,1607.88771349815
-0.171163619676205,1607.89771349815
-0.177284877030789,1607.90771349815
-0.183466517159202,1607.91771349815
-0.190338652787183,1607.92771349815
-0.195995077827722,1607.93771349815
-0.199605758040858,1607.94771349815
-0.199721471647308,1607.95771349815
-0.193140901673767,1607.96771349815
-0.178334258044836,1607.97771349815
-0.153708401649893,1607.98771349815
-0.1190659700575,1607.99771349815
-0.0746289096838095,1608.00771349815
-0.0226240035034458,1608.01771349815
0.0339382080169075,1608.02771349815
0.0923184091754103,1608.03771349815
0.149283519323242,1608.04771349815
0.20326799878896,1608.05771349815
0.251512264682708,1608.06771349815
0.292930552974649,1608.07771349815
0.327586605957174,1608.08771349815
0.354585201280195,1608.09771349815
0.37527405738179,1608.10771349815
0.390160255517779,1608.11771349815
0.399891332925488,1608.12771349815
0.404851130441309,1608.13771349815
0.407198352012764,1608.14771349815
0.406991896638418,1608.15771349815
0.405187489181813,1608.16771349815
0.402035829169769,1608.17771349815
0.398109398853631,1608.18771349815
0.392353036248922,1608.19771349815
0.385226335800033,1608.20771349815
0.3772200479224,1608.21771349815
0.367510339591046,1608.22771349815
0.356866686792283,1608.23771349815
0.345671134184043,1608.24771349815
0.335338932289515,1608.25771349815
0.326853078175475,1608.26771349815
0.320456570112475,1608.27771349815
0.316980107583631,1608.28771349815
0.316088946743105,1608.29771349815
0.318177583717045,1608.30771349815
0.322685547616327,1608.31771349815
0.330081314940119,1608.32771349815
0.339522230962285,1608.33771349815
0.349710392259219,1608.34771349815
0.360833801893065,1608.35771349815
0.370577011089094,1608.36771349815
0.379422367224218,1608.37771349815
0.386256838205848,1608.38771349815
0.391200289240326,1608.39771349815
0.394725029562396,1608.40771349815
0.396031970137913,1608.41771349815
0.396333451462151,1608.42771349815
0.394939302892179,1608.43771349815
0.391938895838914,1608.44771349815
0.387176043254914,1608.45771349815
0.381055604070569,1608.46771349815
0.373343783063093,1608.47771349815
0.364815569340073,1608.48771349815
0.355824980628335,1608.49771349815
0.346646640559859,1608.50771349815
0.337793482389417,1608.51771349815
0.329167514402319,1608.52771349815
0.320866952537385,1608.53771349815
0.312437113521042,1608.54771349815
0.303718556387294,1608.55771349815
0.294974120818998,1608.56771349815
0.28598860373632,1608.57771349815
0.276618273129902,1608.58771349815
0.26765386048685,1608.59771349815
0.259041586954196,1608.60771349815
0.250881115256963,1608.61771349815
0.242830472842863,1608.62771349815
0.234510225477414,1608.63771349815
0.225678890796182,1608.64771349815
0.216430541262879,1608.65771349815
0.207123734752175,1608.66771349815
0.198584121658837,1608.67771349815
0.190529754257481,1608.68771349815
0.182766583071157,1608.69771349815
0.174890561345541,1608.70771349815
0.166934784381725,1608.71771349815
0.158711861697632,1608.72771349815
0.150054227057111,1608.73771349815
0.141288337163233,1608.74771349815
0.132090006047092,1608.75771349815
0.122451952582771,1608.76771349815
0.113078441287274,1608.77771349815
0.104039011631346,1608.78771349815
0.0953386145249175,1608.79771349815
0.087151761265481,1608.80771349815
0.0795800206240792,1608.81771349815
0.0722101902161889,1608.82771349815
0.065022521708465,1608.83771349815
0.0580301379062904,1608.84771349815
0.0509251675948378,1608.85771349815
0.0432310873021466,1608.86771349815
0.0349897589288262,1608.87771349815
0.0266586816515775,1608.88771349815
0.0183318959689975,1608.89771349815
0.00999337103770826,1608.90771349815
0.00166287486136033,1608.91771349815
-0.00629569726702518,1608.92771349815
-0.0142251040205698,1608.93771349815
-0.0219332966426156,1608.94771349815
-0.0301102632733922,1608.95771349815
-0.0382994619242393,1608.96771349815
-0.0463980256010546,1608.97771349815
-0.054500906655868,1608.98771349815
-0.0618790726534111,1608.99771349815
-0.0673220568111717,1609.00771349815
-0.0696871649457387,1609.01771349815
-0.065865017443456,1609.02771349815
-0.0534390425777054,1609.03771349815
-0.030027579932309,1609.04771349815
0.00560316372303865,1609.05771349815
0.0517861283608439,1609.06771349815
0.106871669578999,1609.07771349815
0.168597124393876,1609.08771349815
0.233205815652573,1609.09771349815
0.298470521083324,1609.10771349815
0.361553457351033,1609.11771349815
0.41948747903461,1609.12771349815
0.471172702308313,1609.13771349815
0.514696184937472,1609.14771349815
0.549383040568382,1609.15771349815
0.575240903864415,1609.16771349815
0.592882244856732,1609.17771349815
0.603430264911216,1609.18771349815
0.608097323780027,1609.19771349815
0.608765505587489,1609.20771349815
0.605615558652494,1609.21771349815
0.600327205923322,1609.22771349815
0.593632137929943,1609.23771349815
0.584988453819741,1609.24771349815
0.575167882243978,1609.25771349815
0.564024144974819,1609.26771349815
0.551885609267684,1609.27771349815
0.537931293056454,1609.28771349815
0.522834904741642,1609.29771349815
0.50728425303285,1609.30771349815
0.492315095958833,1609.31771349815
0.478537471783124,1609.32771349815
0.466869420013645,1609.33771349815
0.457647918914387,1609.34771349815
0.45196237308762,1609.35771349815
0.449105182473107,1609.36771349815
0.449623098752766,1609.37771349815
0.45318369847254,1609.38771349815
0.459258966311065,1609.39771349815
0.467655164651124,1609.40771349815
0.477534074259032,1609.41771349815
0.487851503568765,1609.42771349815
0.497556089123177,1609.43771349815
0.506200497956178,1609.44771349815
0.512891744844055,1609.45771349815
0.517342691385016,1609.46771349815
0.519583998478279,1609.47771349815
0.519762877337708,1609.48771349815
0.517221219329352,1609.49771349815
0.512948410599728,1609.50771349815
0.506340053085161,1609.51771349815
0.498358581869106,1609.52771349815
0.488385951212101,1609.53771349815
0.477134510853817,1609.54771349815
0.46514689326046,1609.55771349815
0.452546601251597,1609.56771349815
0.440779521208614,1609.57771349815
0.428620977848337,1609.58771349815
0.416381547992248,1609.59771349815
0.404683390429296,1609.60771349815
0.392499135096757,1609.61771349815
0.380745122821952,1609.62771349815
0.369340147463183,1609.63771349815
0.35787932497187,1609.64771349815
0.346054206350859,1609.65771349815
0.334757455587128,1609.66771349815
0.323794830001735,1609.67771349815
0.31363646150605,1609.68771349815
0.303741958279905,1609.69771349815
0.293939497033441,1609.70771349815
0.284571140525551,1609.71771349815
0.275686787771316,1609.72771349815
0.266846589323488,1609.73771349815
0.257833888547878,1609.74771349815
0.248803994162511,1609.75771349815
0.239708515788871,1609.76771349815
0.230841811273215,1609.77771349815
0.222463671810665,1609.78771349815
0.213780540618081,1609.79771349815
0.205115605610277,1609.80771349815
0.196304248649042,1609.81771349815
0.186903775498528,1609.82771349815
0.177642927695017,1609.83771349815
0.168378948334323,1609.84771349815
0.158550085083381,1609.85771349815
0.148342524820462,1609.86771349815
0.138852710180857,1609.87771349815
0.128894114231684,1609.88771349815
0.119313152045992,1609.89771349815
0.110109352692603,1609.90771349815
0.100989019386785,1609.91771349815
0.0923983542420109,1609.92771349815
0.0844458097645274,1609.93771349815
0.077453775446494,1609.94771349815
0.0703902359641471,1609.95771349815
0.0638417562811404,1609.96771349815
0.0569335531024915,1609.97771349815
0.0498883832281658,1609.98771349815
0.0427375970944252,1609.99771349815
0.0350401771430991,1610.00771349815
0.0275123400243162,1610.01771349815
0.0199835868650919,1610.02771349815
0.0127835469481024,1610.03771349815
0.00539548030090729,1610.04771349815
-0.0012613187723365,1610.05771349815
-0.00710141135591678,1610.06771349815
-0.0117125244526819,1610.07771349815
-0.0135375152026408,1610.08771349815
-0.0116195888935117,1610.09771349815
-0.00285625276422699,1610.10771349815
0.0146791293176974,1610.11771349815
0.043787933152053,1610.12771349815
0.0839689105072586,1610.13771349815
0.134016353606949,1610.14771349815
0.192157662754416,1610.15771349815
0.256046305656674,1610.16771349815
0.32244180950377,1610.17771349815
0.388188721096665,1610.18771349815
0.450457923087626,1610.19771349815
0.506209848204416,1610.20771349815
0.553554458944151,1610.21771349815
0.591460577462544,1610.22771349815
0.620331654146067,1610.23771349815
0.639982220981719,1610.24771349815
0.651593066211676,1610.25771349815
0.656598547460124,1610.26771349815
0.656108555185818,1610.27771349815
0.651204161128959,1610.28771349815
0.642697668202123,1610.29771349815
0.631386303001061,1610.30771349815
0.617852074577433,1610.31771349815
0.602712319092963,1610.32771349815
0.585568934603705,1610.33771349815
0.566830221799003,1610.34771349815
0.5466603301566,1610.35771349815
0.525178916976583,1610.36771349815
0.503729960503252,1610.37771349815
0.483386979053211,1610.38771349815
0.46502125030223,1610.39771349815
0.450298958781539,1610.40771349815
0.439466929549688,1610.41771349815
0.433480558432439,1610.42771349815
0.432394045340614,1610.43771349815
0.435369883359861,1610.44771349815
0.441988956652539,1610.45771349815
0.451806639373369,1610.46771349815
0.463832813226878,1610.47771349815
0.477036261778152,1610.48771349815
0.490348656913547,1610.49771349815
0.5025329777764,1610.50771349815
0.513535358621091,1610.51771349815
0.522407409804901,1610.52771349815
0.528709507060699,1610.53771349815
0.532219845664131,1610.54771349815
0.532887205984862,1610.55771349815
0.53026535736275,1610.56771349815
0.525299848589047,1610.57771349815
0.518919289390598,1610.58771349815
0.51073462320789,1610.59771349815
0.501345446641233,1610.60771349815
0.491044805343889,1610.61771349815
0.479841254364025,1610.62771349815
0.466926794960331,1610.63771349815
0.453527316983432,1610.64771349815
0.440032884568367,1610.65771349815
0.426605537426878,1610.66771349815
0.413700367745856,1610.67771349815
0.401861053925792,1610.68771349815
0.390578691034777,1610.69771349815
0.379349814172562,1610.70771349815
0.368756382646574,1610.71771349815
0.357880397164653,1610.72771349815
0.346727464046623,1610.73771349815
0.336476572236899,1610.74771349815
0.326359415637533,1610.75771349815
0.316584984110525,1610.76771349815
0.307041729071172,1610.77771349815
0.297062690312833,1610.78771349815
0.286956017575484,1610.79771349815
0.277042166006447,1610.80771349815
0.267476039649623,1610.81771349815
0.258180449851969,1610.82771349815
0.248983021688208,1610.83771349815
0.239579017401114,1610.84771349815
0.230479607781894,1610.85771349815
0.221473787127381,1610.86771349815
0.212066833132521,1610.87771349815
0.202510930625249,1610.88771349815
0.192727100054415,1610.89771349815
0.182711539589476,1610.90771349815
0.172949487696557,1610.91771349815
0.16311858090752,1610.92771349815
0.153758788991925,1610.93771349815
0.144601812106002,1610.94771349815
0.135736976045668,1610.95771349815
0.127169204774993,1610.96771349815
0.118514696187846,1610.97771349815
0.110759270604004,1610.98771349815
0.10259778708712,1610.99771349815
0.0945291709692443,1611.00771349815
0.0865308798357373,1611.01771349815
0.078685199185569,1611.02771349815
0.0703840201886945,1611.03771349815
0.0619038001753208,1611.04771349815
0.0537291709431339,1611.05771349815
0.046157015944275,1611.06771349815
0.0403369408472983,1611.07771349815
0.0369829066305527,1611.08771349815
0.0380233726870734,1611.09771349815
0.0459937462331433,1611.10771349815
0.0632944750025013,1611.11771349815
0.0925666865981129,1611.12771349815
0.134882556335923,1611.13771349815
0.190450776367493,1611.14771349815
0.256208719053797,1611.15771349815
0.329836208102727,1611.16771349815
0.407306058809502,1611.17771349815
0.485008793177406,1611.18771349815
0.55899955743596,1611.19771349815
0.626405940633476,1611.20771349815
0.684655404873773,1611.21771349815
0.732195058854678,1611.22771349815
0.769250405231247,1611.23771349815
0.795946078019413,1611.24771349815
0.813698258918027,1611.25771349815
0.823267846470196,1611.26771349815
0.825808321045001,1611.27771349815
0.823081172682695,1611.28771349815
0.816093286406022,1611.29771349815
0.806207669271983,1611.30771349815
0.794388678692546,1611.31771349815
0.781250025336367,1611.32771349815
0.767017938535791,1611.33771349815
0.751463628376464,1611.34771349815
0.734076884102703,1611.35771349815
0.714883437936919,1611.36771349815
0.69435304364314,1611.37771349815
0.673913417985888,1611.38771349815
0.653993897737639,1611.39771349815
0.636015658422562,1611.40771349815
0.620879692604999,1611.41771349815
0.609368833772978,1611.42771349815
0.602685769724993,1611.43771349815
0.60065602461976,1611.44771349815
0.602333671905575,1611.45771349815
0.607945136421384,1611.46771349815
0.616359953765994,1611.47771349815
0.627003680638761,1611.48771349815
0.639158517894297,1611.49771349815
0.652165472479045,1611.50771349815
0.664938418341992,1611.51771349815
0.67598968839108,1611.52771349815
0.684443813608946,1611.53771349815
0.690110222523012,1611.54771349815
0.692544447534669,1611.55771349815
0.692351197317302,1611.56771349815
0.689519164771019,1611.57771349815
0.684491759185597,1611.58771349815
0.677338100657083,1611.59771349815
0.66853089948606,1611.60771349815
0.658169003321059,1611.61771349815
0.646357778962508,1611.62771349815
0.63403378223446,1611.63771349815
0.621411331839288,1611.64771349815
0.608207718881194,1611.65771349815
0.59520919504592,1611.66771349815
0.582673571322314,1611.67771349815
0.570963449096439,1611.68771349815
0.559972587748086,1611.69771349815
0.549242011971764,1611.70771349815
0.538588102933966,1611.71771349815
0.527985271609258,1611.72771349815
0.517681552353746,1611.73771349815
0.50726412430857,1611.74771349815
0.496932937677928,1611.75771349815
0.486402887658365,1611.76771349815
0.47604153336765,1611.77771349815
0.465979204877881,1611.78771349815
0.455553848889161,1611.79771349815
0.445365944066802,1611.80771349815
0.435474053574867,1611.81771349815
0.425711662360839,1611.82771349815
0.41571168674346,1611.83771349815
0.40573736573092,1611.84771349815
0.395358119335469,1611.85771349815
0.384486215839946,1611.86771349815
0.373199075730572,1611.87771349815
0.362213626942825,1611.88771349815
0.351145562843853,1611.89771349815
0.34016542424772,1611.90771349815
0.32962878316194,1611.91771349815
0.318744924200075,1611.92771349815
0.308323185435021,1611.93771349815
0.298408731775559,1611.94771349815
0.288497699061485,1611.95771349815
0.278719995632483,1611.96771349815
0.268747805409179,1611.97771349815
0.259065363590066,1611.98771349815
0.249223143061501,1611.99771349815
0.239879016549595,1612.00771349815
0.230746257794258,1612.01771349815
0.221323595928665,1612.02771349815
0.211674482539786,1612.03771349815
0.201757199788447,1612.04771349815
0.191831021642658,1612.05771349815
0.182505222837671,1612.06771349815
0.173170519218792,1612.07771349815
0.16391934058799,1612.08771349815
0.155480143580613,1612.09771349815
0.148507301085799,1612.10771349815
0.146262784608966,1612.11771349815
0.150919691652858,1612.12771349815
0.166192682088789,1612.13771349815
0.194048284082762,1612.14771349815
0.236809735541049,1612.15771349815
0.293028360224583,1612.16771349815
0.361453099248701,1612.17771349815
0.43948030014189,1612.18771349815
0.522967539384027,1612.19771349815
0.607709121044668,1612.20771349815
0.689989719355527,1612.21771349815
0.76549936042897,1612.22771349815
0.830931105550171,1612.23771349815
0.885095992214566,1612.24771349815
0.926311199584688,1612.25771349815
0.955721265714516,1612.26771349815
0.973712694072752,1612.27771349815
0.98210664586787,1612.28771349815
0.98270643114999,1612.29771349815
0.977567509802177,1612.30771349815
0.968203608688744,1612.31771349815
0.955931311898515,1612.32771349815
0.941792697547099,1612.33771349815
0.926846521202097,1612.34771349815
0.910752875432836,1612.35771349815
0.893948336563589,1612.36771349815
0.876053920224377,1612.37771349815
0.856639749626904,1612.38771349815
0.835463492185078,1612.39771349815
0.813443806039189,1612.40771349815
0.791845383649843,1612.41771349815
0.770934509172876,1612.42771349815
0.752877541839462,1612.43771349815
0.738425819961626,1612.44771349815
0.72811662741243,1612.45771349815
0.723141096025384,1612.46771349815
0.722377772358665,1612.47771349815
0.725497288205437,1612.48771349815
0.731654867169238,1612.49771349815
0.739893982923572,1612.50771349815
0.750121124688764,1612.51771349815
0.759934119687495,1612.52771349815
0.769609854000909,1612.53771349815
0.778588952494525,1612.54771349815
0.785029894541393,1612.55771349815
0.788559533113045,1612.56771349815
0.78927479901918,1612.57771349815
0.78656892152384,1612.58771349815
0.781604834818528,1612.59771349815
0.77428107785002,1612.60771349815
0.765491519433945,1612.61771349815
0.754447829942464,1612.62771349815
0.741604074912292,1612.63771349815
0.72776208364055,1612.64771349815
0.712816064499979,1612.65771349815
0.696769595939331,1612.66771349815
0.680471207616757,1612.67771349815
0.663927548012939,1612.68771349815
0.647684345965746,1612.69771349815
0.63179717789483,1612.70771349815
0.616462269808439,1612.71771349815
0.601477547510634,1612.72771349815
0.58696996784291,1612.73771349815
0.572860465018231,1612.74771349815
0.558813760390188,1612.75771349815
0.544928707989628,1612.76771349815
0.53110334532243,1612.77771349815
0.517924397301829,1612.78771349815
0.505484389437774,1612.79771349815
0.49352712382739,1612.80771349815
0.482035041837586,1612.81771349815
0.470461818698368,1612.82771349815
0.459076925712346,1612.83771349815
0.448125601452145,1612.84771349815
0.436681139617869,1612.85771349815
0.42497784790357,1612.86771349815
0.413024611660324,1612.87771349815
0.400773786628981,1612.88771349815
0.388762594442552,1612.89771349815
0.377051664568033,1612.90771349815
0.365266447364891,1612.91771349815
0.35369943576589,1612.92771349815
0.342405294039704,1612.93771349815
0.330378606792761,1612.94771349815
0.318426791143023,1612.95771349815
0.306541620440996,1612.96771349815
0.294772212383466,1612.97771349815
0.28310973799846,1612.98771349815
0.271488851396942,1612.99771349815
0.260110464586149,1613.00771349815
0.248655526004392,1613.01771349815
0.237534677706608,1613.02771349815
0.226596837474559,1613.03771349815
0.216078474588548,1613.04771349815
0.205404469517954,1613.05771349815
0.194866306359369,1613.06771349815
0.183659967601078,1613.07771349815
0.171895583359611,1613.08771349815
0.159649547412741,1613.09771349815
0.147426446254662,1613.10771349815
0.13510959795778,1613.11771349815
0.12482724527383,1613.12771349815
0.117816596422377,1613.13771349815
0.116153187765806,1613.14771349815
0.123280766466081,1613.15771349815
0.141705141400912,1613.16771349815
0.174213561444746,1613.17771349815
0.220957639317778,1613.18771349815
0.281453639642514,1613.19771349815
0.353029470973229,1613.20771349815
0.432188555167947,1613.21771349815
0.513977452960476,1613.22771349815
0.594711858464485,1613.23771349815
0.670451273802211,1613.24771349815
0.737184879258078,1613.25771349815
0.793049376132443,1613.26771349815
0.836121084592804,1613.27771349815
0.866199102107221,1613.28771349815
0.885125588272169,1613.29771349815
0.893386926571363,1613.30771349815
0.893084276712195,1613.31771349815
0.885670205186263,1613.32771349815
0.873012273775017,1613.33771349815
0.857486678493998,1613.34771349815
0.839618837873795,1613.35771349815
0.820164051764804,1613.36771349815
0.800492780073803,1613.37771349815
0.779805611382557,1613.38771349815
0.757793664254914,1613.39771349815
0.734551827123398,1613.40771349815
0.710149177389942,1613.41771349815
0.684871051118753,1613.42771349815
0.659663984232413,1613.43771349815
0.63570489868125,1613.44771349815
0.614176954443445,1613.45771349815
0.596150943354329,1613.46771349815
0.582364914754795,1613.47771349815
0.573366286652654,1613.48771349815
0.569216742063662,1613.49771349815
0.570042797042939,1613.50771349815
0.575221719042784,1613.51771349815
0.583815768507268,1613.52771349815
0.595256236256451,1613.53771349815
0.607842172689443,1613.54771349815
0.620832444866554,1613.55771349815
0.632753665866458,1613.56771349815
0.642554770780885,1613.57771349815
0.649280789204697,1613.58771349815
0.652050753805951,1613.59771349815
0.65108372716607,1613.60771349815
0.646543788221439,1613.61771349815
0.638762114847784,1613.62771349815
0.628952787320643,1613.63771349815
0.616898653057509,1613.64771349815
0.603741601817962,1613.65771349815
0.589985503473615,1613.66771349815
0.575309080318232,1613.67771349815
0.560342916711787,1613.68771349815
0.545330603426052,1613.69771349815
0.530672661470475,1613.70771349815
0.516709814285537,1613.71771349815
0.503129286922258,1613.72771349815
0.490236875336707,1613.73771349815
0.477874738552117,1613.74771349815
0.465547013408728,1613.75771349815
0.453796627347186,1613.76771349815
0.442485189119833,1613.77771349815
0.431711556323389,1613.78771349815
0.421299952579187,1613.79771349815
0.411658781821552,1613.80771349815
0.40217773226902,1613.81771349815
0.3924079676096,1613.82771349815
0.382389821025863,1613.83771349815
0.372281638657968,1613.84771349815
0.362145573072475,1613.85771349815
0.352022327351637,1613.86771349815
0.341635698883368,1613.87771349815
0.331308447191021,1613.88771349815
0.321666555928793,1613.89771349815
0.312020177148295,1613.90771349815
0.302550477417047,1613.91771349815
0.29275209238625,1613.92771349815
0.282629795908992,1613.93771349815
0.272025117706559,1613.94771349815
0.26132647420114,1613.95771349815
0.250197134872425,1613.96771349815
0.239041700132105,1613.97771349815
0.227828403921342,1613.98771349815
0.216922397748227,1613.99771349815
0.206444918787837,1614.00771349815
0.195734668794952,1614.01771349815
0.185079726927656,1614.02771349815
0.174400448443959,1614.03771349815
0.163439069442562,1614.04771349815
0.152615319577752,1614.05771349815
0.141386130849178,1614.06771349815
0.129696222370507,1614.07771349815
0.117722192494994,1614.08771349815
0.106398587552717,1614.09771349815
0.0966104472050187,1614.10771349815
0.089631218967182,1614.11771349815
0.0878665560836378,1614.12771349815
0.0935415774369732,1614.13771349815
0.110572874087345,1614.14771349815
0.140723911348257,1614.15771349815
0.184815054055117,1614.16771349815
0.241342272103971,1614.17771349815
0.307754087814983,1614.18771349815
0.381101386523107,1614.19771349815
0.457121066706923,1614.20771349815
0.532481091468912,1614.21771349815
0.603676317128969,1614.22771349815
0.667091902440825,1614.23771349815
0.719853045846963,1614.24771349815
0.7607598989901,1614.25771349815
0.789059836328167,1614.26771349815
0.805664229072005,1614.27771349815
0.812243384334293,1614.28771349815
0.810439828545857,1614.29771349815
0.8022499079853,1614.30771349815
0.78972461065118,1614.31771349815
0.773769151443635,1614.32771349815
0.754624598371994,1614.33771349815
0.732918318905103,1614.34771349815
0.70915440441236,1614.35771349815
0.68329186104117,1614.36771349815
0.655925602107507,1614.37771349815
0.627066236214698,1614.38771349815
0.598262455622542,1614.39771349815
0.569947694669634,1614.40771349815
0.543685613001961,1614.41771349815
0.520146423303627,1614.42771349815
0.501154979744204,1614.43771349815
0.486221886581537,1614.44771349815
0.477344055590408,1614.45771349815
0.473124631034672,1614.46771349815
0.473409444149302,1614.47771349815
0.478405054186807,1614.48771349815
0.486737190384154,1614.49771349815
0.497925672471906,1614.50771349815
0.510412850754733,1614.51771349815
0.522868773876054,1614.52771349815
0.534309055673014,1614.53771349815
0.544028841450122,1614.54771349815
0.551579224759279,1614.55771349815
0.556117180438956,1614.56771349815
0.557147818301678,1614.57771349815
0.554960802361624,1614.58771349815
0.549742773548943,1614.59771349815
0.541308915995671,1614.60771349815
0.530370429433765,1614.61771349815
0.517796628352693,1614.62771349815
0.503418714672256,1614.63771349815
0.488544004634894,1614.64771349815
0.473490819534149,1614.65771349815
0.457597649100852,1614.66771349815
0.44255344776348,1614.67771349815
0.426206468744114,1614.68771349815
0.410303870363124,1614.69771349815
0.394846458614702,1614.70771349815
0.379437653353146,1614.71771349815
0.365281428238607,1614.72771349815
0.351890626476274,1614.73771349815
0.338928551554277,1614.74771349815
0.326151485603008,1614.75771349815
0.313521134930178,1614.76771349815
0.301365973977447,1614.77771349815
0.289779513946444,1614.78771349815
0.278825472448926,1614.79771349815
0.268023123240551,1614.80771349815
0.257378734498602,1614.81771349815
0.246732690066031,1614.82771349815
0.235636199852544,1614.83771349815
0.22415685503429,1614.84771349815
0.212290446049581,1614.85771349815
0.200470960130145,1614.86771349815
0.188934388702428,1614.87771349815
0.178034860843618,1614.88771349815
0.167369479389015,1614.89771349815
0.157203081099261,1614.90771349815
0.147191883869519,1614.91771349815
0.13713075299928,1614.92771349815
0.127048915740895,1614.93771349815
0.116973731620253,1614.94771349815
0.106998094177066,1614.95771349815
0.0970283970185409,1614.96771349815
0.086907260888502,1614.97771349815
0.076993509850372,1614.98771349815
0.0667674812171218,1614.99771349815
0.0568703904043351,1615.00771349815
0.0470928228753425,1615.01771349815
0.0373732047161852,1615.02771349815
0.0281476244968972,1615.03771349815
0.0190288530334419,1615.04771349815
0.0101490128275005,1615.05771349815
0.00265216203127628,1615.06771349815
-0.00382484571434016,1615.07771349815
-0.00586779019394039,1615.08771349815
-0.00132068758464146,1615.09771349815
0.0127158001353435,1615.10771349815
0.0399499599515554,1615.11771349815
0.0817900766694435,1615.12771349815
0.137836014150453,1615.13771349815
0.20671010633311,1615.14771349815
0.284734566542581,1615.15771349815
0.368738922990765,1615.16771349815
0.454447577737048,1615.17771349815
0.537647229642209,1615.18771349815
0.614583203255961,1615.19771349815
0.682679722912513,1615.20771349815
0.73997889928704,1615.21771349815
0.785074698079277,1615.22771349815
0.818165997585434,1615.23771349815
0.839820836858508,1615.24771349815
0.851116095903793,1615.25771349815
0.854428315062613,1615.26771349815
0.851281361634954,1615.27771349815
0.844556118910624,1615.28771349815
0.834754500860873,1615.29771349815
0.823513266133109,1615.30771349815
0.810764913205794,1615.31771349815
0.796719438892075,1615.32771349815
0.780732928390066,1615.33771349815
0.763689591481539,1615.34771349815
0.744449795166219,1615.35771349815
0.724723762667036,1615.36771349815
0.704232356996101,1615.37771349815
0.684599934056315,1615.38771349815
0.666075915874655,1615.39771349815
0.649773347585322,1615.40771349815
0.636744946018533,1615.41771349815
0.627402647467948,1615.42771349815
0.621767936295086,1615.43771349815
0.619971585554861,1615.44771349815
0.621821484270541,1615.45771349815
0.627730391688309,1615.46771349815
0.63635537048813,1615.47771349815
0.646376525982488,1615.48771349815
0.656450088453239,1615.49771349815
0.665189814947819,1615.50771349815
0.671631525150011,1615.51771349815
0.675153407979743,1615.52771349815
0.67619631630298,1615.53771349815
0.674541803633269,1615.54771349815
0.670321852597964,1615.55771349815
0.66389108343643,1615.56771349815
0.654626720080971,1615.57771349815
0.643870029007678,1615.58771349815
0.630345746827043,1615.59771349815
0.615107566554967,1615.60771349815
0.598518538717904,1615.61771349815
0.581011433253021,1615.62771349815
0.563136540387633,1615.63771349815
0.544917328834869,1615.64771349815
0.526781816476701,1615.65771349815
0.508731117555368,1615.66771349815
0.490910417210641,1615.67771349815
0.473604234343524,1615.68771349815
0.456801993190654,1615.69771349815
0.441130048079385,1615.70771349815
0.426492509942314,1615.71771349815
0.412428558775347,1615.72771349815
0.398699816721184,1615.73771349815
0.384817359934923,1615.74771349815
0.371150482666447,1615.75771349815
0.357529365263026,1615.76771349815
0.345048096881895,1615.77771349815
0.333548824590408,1615.78771349815
0.322144363703574,1615.79771349815
0.310656557398682,1615.80771349815
0.298505516013182,1615.81771349815
0.28599068665813,1615.82771349815
0.273220789334897,1615.83771349815
0.26065314969623,1615.84771349815
0.248386903259183,1615.85771349815
0.236521352690571,1615.86771349815
0.224575013017197,1615.87771349815
0.213543356791584,1615.88771349815
0.202267624781211,1615.89771349815
0.191047462280692,1615.90771349815
0.179655239108894,1615.91771349815
0.168065001861736,1615.92771349815
0.156443307365419,1615.93771349815
0.144744857444396,1615.94771349815
0.133165568939539,1615.95771349815
0.121812132969271,1615.96771349815
0.110710649435177,1615.97771349815
0.0992200427532969,1615.98771349815
0.0879880226433043,1615.99771349815
0.0776437123871593,1616.00771349815
0.0677057928192275,1616.01771349815
0.0580152511812181,1616.02771349815
0.0480513641799264,1616.03771349815
0.0374307624618763,1616.04771349815
0.0258056550549891,1616.05771349815
0.0136964269718175,1616.06771349815
0.00122160957521243,1616.07771349815
-0.0105042512526028,1616.08771349815
-0.0214467724122806,1616.09771349815
-0.0296823418950999,1616.10771349815
-0.0331004032454226,1616.11771349815
-0.028692425447702,1616.12771349815
-0.0136456335625318,1616.13771349815
0.0142558455760069,1616.14771349815
0.0565578499525873,1616.15771349815
0.111685683127898,1616.16771349815
0.17773066541377,1616.17771349815
0.252065026815595,1616.18771349815
0.330054210237614,1616.19771349815
0.407595815475203,1616.20771349815
0.479930876236413,1616.21771349815
0.544837447734721,1616.22771349815
0.599373182915307,1616.23771349815
0.643054086519164,1616.24771349815
0.674883891611811,1616.25771349815
0.695597626889368,1616.26771349815
0.706715743343499,1616.27771349815
0.709076625639115,1616.28771349815
0.704977639014112,1616.29771349815
0.695986123186006,1616.30771349815
0.683116547555921,1616.31771349815
0.668308320017238,1616.32771349815
0.651742703908012,1616.33771349815
0.634220555423124,1616.34771349815
0.615076142173667,1616.35771349815
0.594046672234973,1616.36771349815
0.5718461554683,1616.37771349815
0.547711033247669,1616.38771349815
0.523029282226904,1616.39771349815
0.499035210834153,1616.40771349815
0.475508214410447,1616.41771349815
0.45393125061014,1616.42771349815
0.435080755262944,1616.43771349815
0.419737974832,1616.44771349815
0.408635786467586,1616.45771349815
0.402478023197155,1616.46771349815
0.402224190695764,1616.47771349815
0.405405549864362,1616.48771349815
0.411835805411412,1616.49771349815
0.420486500593125,1616.50771349815
0.430094750990509,1616.51771349815
0.43985340506043,1616.52771349815
0.448630736868238,1616.53771349815
0.455253387011638,1616.54771349815
0.459300625535627,1616.55771349815
0.460291918132813,1616.56771349815
0.458176815969228,1616.57771349815
0.453525143817799,1616.58771349815
0.446376110738949,1616.59771349815
0.437475800546861,1616.60771349815
0.426749765768223,1616.61771349815
0.414762004035393,1616.62771349815
0.401361781869417,1616.63771349815
0.3867385394116,1616.64771349815
0.37147925037161,1616.65771349815
0.355689285155536,1616.66771349815
0.340084182859255,1616.67771349815
0.324915436067464,1616.68771349815
0.309645478720646,1616.69771349815
0.294902104318544,1616.70771349815
0.280167684496359,1616.71771349815
0.26633128766796,1616.72771349815
0.253656443661641,1616.73771349815
0.241297094260736,1616.74771349815
0.229350727375781,1616.75771349815
0.217430661650578,1616.76771349815
0.204952917823119,1616.77771349815
0.193182185136098,1616.78771349815
0.181157528429627,1616.79771349815
0.169027972342117,1616.80771349815
0.157274363196632,1616.81771349815
0.145727105037167,1616.82771349815
0.134550282813349,1616.83771349815
0.123311305631947,1616.84771349815
0.112305901091616,1616.85771349815
0.101229840378621,1616.86771349815
0.0893406967576019,1616.87771349815
0.0778418921502816,1616.88771349815
0.0667211812056313,1616.89771349815
0.0555657723703082,1616.90771349815
0.0450245488215441,1616.91771349815
0.034194088022101,1616.92771349815
0.0226704796043664,1616.93771349815
0.0111074077379267,1616.94771349815
-0.000590247755172753,1616.95771349815
-0.0126441535795111,1616.96771349815
-0.0241245159328447,1616.97771349815
-0.0351279782867567,1616.98771349815
-0.0458606962652913,1616.99771349815
-0.0558852189196328,1617.00771349815
-0.0656290799536471,1617.01771349815
-0.0746038941531125,1617.02771349815
-0.0835704734330408,1617.03771349815
-0.0923487073665755,1617.04771349815
-0.100864525440377,1617.05771349815
-0.110604941364062,1617.06771349815
-0.120790408613091,1617.07771349815
-0.131204339015903,1617.08771349815
-0.141910045291136,1617.09771349815
-0.152517815946361,1617.10771349815
-0.162091375041471,1617.11771349815
-0.170026835614948,1617.12771349815
-0.174201353746225,1617.13771349815
-0.172630341279904,1617.14771349815
-0.163232528473194,1617.15771349815
-0.14304678793418,1617.16771349815
-0.110046352054229,1617.17771349815
-0.0638324523621257,1617.18771349815
-0.00512206290354819,1617.19771349815
0.0633223412118405,1617.20771349815
0.137955310590145,1617.21771349815
0.214632949425544,1617.22771349815
0.28884848628315,1617.23771349815
0.35733371353418,1617.24771349815
0.417021254212986,1617.25771349815
0.466988342965046,1617.26771349815
0.505984366601286,1617.27771349815
0.533950807781195,1617.28771349815
0.552236295093178,1617.29771349815
0.561560669199241,1617.30771349815
0.563208998237216,1617.31771349815
0.558696980423135,1617.32771349815
0.549174371286871,1617.33771349815
0.536018100360787,1617.34771349815
0.519772800730864,1617.35771349815
0.501088946311807,1617.36771349815
0.479509704074762,1617.37771349815
0.456123270000626,1617.38771349815
0.430759381618185,1617.39771349815
0.404595358486865,1617.40771349815
0.37809871768306,1617.41771349815
0.352446456188545,1617.42771349815
0.328722198269203,1617.43771349815
0.307965321286889,1617.44771349815
0.291516613730711,1617.45771349815
0.27925545417948,1617.46771349815
0.273010917159477,1617.47771349815
0.272004883641596,1617.48771349815
0.277137812973882,1617.49771349815
0.286220404790735,1617.50771349815
0.299098474174146,1617.51771349815
0.314082805018244,1617.52771349815
0.329972802160025,1617.53771349815
0.345307410935596,1617.54771349815
0.359093856828476,1617.55771349815
0.370295549749204,1617.56771349815
0.378264872221289,1617.57771349815
0.382806178532566,1617.58771349815
0.384086063351992,1617.59771349815
0.382230912339306,1617.60771349815
0.377869476703825,1617.61771349815
0.371303589200463,1617.62771349815
0.362639592081778,1617.63771349815
0.352628510465476,1617.64771349815
0.340982095287574,1617.65771349815
0.328298586125843,1617.66771349815
0.314355987083753,1617.67771349815
0.300381454487773,1617.68771349815
0.28570576647575,1617.69771349815
0.270759465470685,1617.70771349815
0.256328541222278,1617.71771349815
0.242153413290283,1617.72771349815
0.228208495764918,1617.73771349815
0.215307261802791,1617.74771349815
0.202656915663596,1617.75771349815
0.190441961944425,1617.76771349815
0.178441278992085,1617.77771349815
0.167007796455103,1617.78771349815
0.155817859349689,1617.79771349815
0.145111042769917,1617.80771349815
0.134744398586882,1617.81771349815
0.124825919325393,1617.82771349815
0.115399662299908,1617.83771349815
0.106132511741026,1617.84771349815
0.0970760785242723,1617.85771349815
0.0881133256492144,1617.86771349815
0.0784238833853639,1617.87771349815
0.0686944109762488,1617.88771349815
0.0586979036472685,1617.89771349815
0.0489001914739755,1617.90771349815
0.0389363064726249,1617.91771349815
0.0291316755764058,1617.92771349815
0.0200829158390767,1617.93771349815
0.0106990862929262,1617.94771349815
0.00168949618715845,1617.95771349815
-0.0076941059099494,1617.96771349815
-0.0169722096022568,1617.97771349815
-0.026249748355563,1617.98771349815
-0.0356431626673648,1617.99771349815
-0.0447653385464568,1618.00771349815
-0.0537952349541979,1618.01771349815
-0.0630096660233354,1618.02771349815
-0.0717865067623465,1618.03771349815
-0.0806139385460815,1618.04771349815
-0.0891672717103375,1618.05771349815
-0.0973296060354992,1618.06771349815
-0.105817428928908,1618.07771349815
-0.114047645880036,1618.08771349815
-0.122221879135621,1618.09771349815
-0.130153849264395,1618.10771349815
-0.13780697014066,1618.11771349815
-0.144964928688276,1618.12771349815
-0.150109229712178,1618.13771349815
-0.15077429801577,1618.14771349815
-0.144296623123754,1618.15771349815
-0.12663885119183,1618.16771349815
-0.0962016402881511,1618.17771349815
-0.0506795621239323,1618.18771349815
0.00927242512234791,1618.19771349815
0.0811512535458393,1618.20771349815
0.161603490217682,1618.21771349815
0.246333281927646,1618.22771349815
0.330826490931024,1618.23771349815
0.41119719225681,1618.24771349815
0.484300938296506,1618.25771349815
0.547701002014161,1618.26771349815
0.599244853660164,1618.27771349815
0.63938498808231,1618.28771349815
0.667698597770548,1618.29771349815
0.685639555130407,1618.30771349815
0.694461019156913,1618.31771349815
0.696160612001619,1618.32771349815
0.692745671449032,1618.33771349815
0.685114575263881,1618.34771349815
0.675272580706651,1618.35771349815
0.664229208323535,1618.36771349815
0.652255893352902,1618.37771349815
0.639122269461699,1618.38771349815
0.623929221266227,1618.39771349815
0.606775619027998,1618.40771349815
0.587950573491928,1618.41771349815
0.568370561806044,1618.42771349815
0.548354501453615,1618.43771349815
0.528604295525138,1618.44771349815
0.510445987880944,1618.45771349815
0.494124229095961,1618.46771349815
0.48155702569671,1618.47771349815
0.473290206026723,1618.48771349815
0.469694044193734,1618.49771349815
0.470636678251109,1618.50771349815
0.475231140977226,1618.51771349815
0.483374832119988,1618.52771349815
0.493618373584451,1618.53771349815
0.505017930698357,1618.54771349815
0.516398380593778,1618.55771349815
0.526615881541843,1618.56771349815
0.534435041571165,1618.57771349815
0.540686909885594,1618.58771349815
0.54347145901557,1618.59771349815
0.544065037925259,1618.60771349815
0.541595494896192,1618.61771349815
0.536490227286734,1618.62771349815
0.529076054984969,1618.63771349815
0.519453861868852,1618.64771349815
0.50865920042494,1618.65771349815
0.496744373070814,1618.66771349815
0.483813979463794,1618.67771349815
0.470422449195436,1618.68771349815
