PPG,time
-0.322685247190878,1265.45244553464
-0.642897130553196,1265.46244553464
-0.569877253020599,1265.47244553464
-0.608479093674256,1265.48244553464
-0.574892088346458,1265.49244553464
-0.578883299314939,1265.50244553464
-0.553208415231472,1265.51244553464
-0.542859692007889,1265.52244553464
-0.523315613432971,1265.53244553464
-0.511268205528266,1265.54244553464
-0.499376795323603,1265.55244553464
-0.492949172344484,1265.56244553464
-0.490599621150442,1265.57244553464
-0.492127488934987,1265.58244553464
-0.49707127630365,1265.59244553464
-0.504818419224098,1265.60244553464
-0.515015502103776,1265.61244553464
-0.526545223096033,1265.62244553464
-0.540083889588173,1265.63244553464
-0.553714894308005,1265.64244553464
-0.567358373748085,1265.65244553464
-0.581121085337761,1265.66244553464
-0.594317834074012,1265.67244553464
-0.607827008127018,1265.68244553464
-0.621275903831654,1265.69244553464
-0.635003821243521,1265.70244553464
-0.648384270268697,1265.71244553464
-0.661687147079957,1265.72244553464
-0.674788815670726,1265.73244553464
-0.687064697764841,1265.74244553464
-0.69873800778759,1265.75244553464
-0.709202703850053,1265.76244553464
-0.71905083596429,1265.77244553464
-0.728239582214173,1265.78244553464
-0.737100117866461,1265.79244553464
-0.745595369805586,1265.80244553464
-0.753843112116479,1265.81244553464
-0.761498889748026,1265.82244553464
-0.769257455283655,1265.83244553464
-0.776411088867582,1265.84244553464
-0.782895914740433,1265.85244553464
-0.789517413485328,1265.86244553464
-0.795444406361698,1265.87244553464
-0.801710791089131,1265.88244553464
-0.808079983190879,1265.89244553464
-0.814518643882888,1265.90244553464
-0.821314805940241,1265.91244553464
-0.827813847778768,1265.92244553464
-0.834784933128557,1265.93244553464
-0.84167027604342,1265.94244553464
-0.84859410044417,1265.95244553464
-0.855812086716006,1265.96244553464
-0.86313667105553,1265.97244553464
-0.870119807598449,1265.98244553464
-0.876983437817692,1265.99244553464
-0.883920777010597,1266.00244553464
-0.890793126285664,1266.01244553464
-0.898303024502797,1266.02244553464
-0.905510829056683,1266.03244553464
-0.913222569562188,1266.04244553464
-0.920663684182232,1266.05244553464
-0.927563716680967,1266.06244553464
-0.934817918076392,1266.07244553464
-0.942177560058589,1266.08244553464
-0.949924450749653,1266.09244553464
-0.957657690663029,1266.10244553464
-0.965158710483329,1266.11244553464
-0.972987270411804,1266.12244553464
-0.980857331790864,1266.13244553464
-0.988944366380943,1266.14244553464
-0.997467827930322,1266.15244553464
-1.00540012047564,1266.16244553464
-1.01306999324248,1266.17244553464
-1.02067664451066,1266.18244553464
-1.0281059261288,1266.19244553464
-1.03468488860262,1266.20244553464
-1.04060372914486,1266.21244553464
-1.04578426317476,1266.22244553464
-1.05044619701698,1266.23244553464
-1.05504262693601,1266.24244553464
-1.05991260408405,1266.25244553464
-1.06524644297936,1266.26244553464
-1.0706721364475,1266.27244553464
-1.07669837160638,1266.28244553464
-1.08335904734627,1266.29244553464
-1.08962632099685,1266.30244553464
-1.09448414714281,1266.31244553464
-1.09389096191466,1266.32244553464
-1.08195352742571,1266.33244553464
-1.05148187919595,1266.34244553464
-0.997350681328853,1266.35244553464
-0.921732336812561,1266.36244553464
-0.830920133237546,1266.37244553464
-0.737097504200086,1266.38244553464
-0.649366440401619,1266.39244553464
-0.575708388735103,1266.40244553464
-0.518805649566835,1266.41244553464
-0.479533848408295,1266.42244553464
-0.455899953178935,1266.43244553464
-0.44575570846763,1266.44244553464
-0.44661839860911,1266.45244553464
-0.455398951334451,1266.46244553464
-0.469871400013057,1266.47244553464
-0.488593570548628,1266.48244553464
-0.509823322193511,1266.49244553464
-0.531833548520545,1266.50244553464
-0.553490019964837,1266.51244553464
-0.573875707808756,1266.52244553464
-0.592242358785173,1266.53244553464
-0.607516577724294,1266.54244553464
-0.619784138746805,1266.55244553464
-0.629319825636321,1266.56244553464
-0.635437674458255,1266.57244553464
-0.63891789027225,1266.58244553464
-0.640758522173203,1266.59244553464
-0.64191800260703,1266.60244553464
-0.643137910338959,1266.61244553464
-0.645461955510195,1266.62244553464
-0.649244320134928,1266.63244553464
-0.654665837914716,1266.64244553464
-0.661159212542093,1266.65244553464
-0.667903209418565,1266.66244553464
-0.67401849131139,1266.67244553464
-0.679289628997151,1266.68244553464
-0.682728164019969,1266.69244553464
-0.683654698446402,1266.70244553464
-0.68233891343936,1266.71244553464
-0.678546142873236,1266.72244553464
-0.672722037978986,1266.73244553464
-0.664730733403301,1266.74244553464
-0.65557607220915,1266.75244553464
-0.646024809749804,1266.76244553464
-0.636721261546178,1266.77244553464
-0.629209621466887,1266.78244553464
-0.623837740218952,1266.79244553464
-0.62111611237009,1266.80244553464
-0.620951533988478,1266.81244553464
-0.62359080888599,1266.82244553464
-0.627704521385425,1266.83244553464
-0.632550874714649,1266.84244553464
-0.63826519105228,1266.85244553464
-0.645208236525475,1266.86244553464
-0.653114284658341,1266.87244553464
-0.662154150579721,1266.88244553464
-0.671560953320192,1266.89244553464
-0.681028848219516,1266.90244553464
-0.690188270441494,1266.91244553464
-0.699554642175894,1266.92244553464
-0.708249407338595,1266.93244553464
-0.717130723527762,1266.94244553464
-0.726366744079619,1266.95244553464
-0.735040073220231,1266.96244553464
-0.743685685174194,1266.97244553464
-0.751942023126585,1266.98244553464
-0.759751118286349,1266.99244553464
-0.766969276248208,1267.00244553464
-0.774101731284129,1267.01244553464
-0.780741851075997,1267.02244553464
-0.786676268233575,1267.03244553464
-0.792062193886009,1267.04244553464
-0.796939849630983,1267.05244553464
-0.800984726103603,1267.06244553464
-0.804583922434768,1267.07244553464
-0.807734981658481,1267.08244553464
-0.811240979186921,1267.09244553464
-0.814957636441927,1267.10244553464
-0.818903897659721,1267.11244553464
-0.823435660327977,1267.12244553464
-0.828156836753949,1267.13244553464
-0.833041783751755,1267.14244553464
-0.838023376748097,1267.15244553464
-0.843632073167896,1267.16244553464
-0.848782500974046,1267.17244553464
-0.854112608735344,1267.18244553464
-0.859334681220299,1267.19244553464
-0.864613520861776,1267.20244553464
-0.86970353986267,1267.21244553464
-0.875454587516098,1267.22244553464
-0.881329932387309,1267.23244553464
-0.8873165176295,1267.24244553464
-0.893155335599993,1267.25244553464
-0.899101191282248,1267.26244553464
-0.905137314153073,1267.27244553464
-0.911470079149228,1267.28244553464
-0.918068745861953,1267.29244553464
-0.924334867261499,1267.30244553464
-0.930655608443661,1267.31244553464
-0.936533441441041,1267.32244553464
-0.942266804841101,1267.33244553464
-0.947811114399832,1267.34244553464
-0.953282550921351,1267.35244553464
-0.958458247202436,1267.36244553464
-0.963051735812348,1267.37244553464
-0.966857730264836,1267.38244553464
-0.970392269460292,1267.39244553464
-0.974120026232357,1267.40244553464
-0.977953650447761,1267.41244553464
-0.981723889292679,1267.42244553464
-0.985214024327606,1267.43244553464
-0.98822001911211,1267.44244553464
-0.991381240113338,1267.45244553464
-0.995017332528517,1267.46244553464
-0.999090926177888,1267.47244553464
-1.00328479215972,1267.48244553464
-1.00543734377151,1267.49244553464
-1.00133364738347,1267.50244553464
-0.984223791982015,1267.51244553464
-0.948185913090241,1267.52244553464
-0.891159581288457,1267.53244553464
-0.816701191190498,1267.54244553464
-0.732820426174633,1267.55244553464
-0.649684700109745,1267.56244553464
-0.575546748739326,1267.57244553464
-0.515164696804627,1267.58244553464
-0.47062652437116,1267.59244553464
-0.442050721270753,1267.60244553464
-0.426948253278249,1267.61244553464
-0.422817497853723,1267.62244553464
-0.427722675867122,1267.63244553464
-0.438765550405603,1267.64244553464
-0.454013054803422,1267.65244553464
-0.471724678808675,1267.66244553464
-0.490083376925868,1267.67244553464
-0.507988918338498,1267.68244553464
-0.524938924952541,1267.69244553464
-0.540295164549007,1267.70244553464
-0.553091551087436,1267.71244553464
-0.562970407732584,1267.72244553464
-0.570153157143939,1267.73244553464
-0.574352786931076,1267.74244553464
-0.577193006120752,1267.75244553464
-0.578309816544355,1267.76244553464
-0.578240905498239,1267.77244553464
-0.577689783650821,1267.78244553464
-0.577028517479497,1267.79244553464
-0.577768162897069,1267.80244553464
-0.580566325071078,1267.81244553464
-0.585802862930049,1267.82244553464
-0.592415140290959,1267.83244553464
-0.599798323782628,1267.84244553464
-0.605784883534686,1267.85244553464
-0.609682815280914,1267.86244553464
-0.611361496454937,1267.87244553464
-0.609963412764591,1267.88244553464
-0.606842451156665,1267.89244553464
-0.601564792046688,1267.90244553464
-0.595062510022208,1267.91244553464
-0.586947359409612,1267.92244553464
-0.57800086321365,1267.93244553464
-0.569071724928177,1267.94244553464
-0.560833693410734,1267.95244553464
-0.554041317932382,1267.96244553464
-0.549451311652934,1267.97244553464
-0.546685328768239,1267.98244553464
-0.546851662897845,1267.99244553464
-0.54888703286202,1268.00244553464
-0.552376071667774,1268.01244553464
-0.557266878825804,1268.02244553464
-0.563193552372579,1268.03244553464
-0.569864776563113,1268.04244553464
-0.57712405201301,1268.05244553464
-0.584298430388243,1268.06244553464
-0.591893118118165,1268.07244553464
-0.599244671754783,1268.08244553464
-0.606910850890598,1268.09244553464
-0.614109738170665,1268.10244553464
-0.621158638490252,1268.11244553464
-0.627689450386337,1268.12244553464
-0.634254754382311,1268.13244553464
-0.640225375930362,1268.14244553464
-0.645824505359968,1268.15244553464
-0.651399367388707,1268.16244553464
-0.656128195874921,1268.17244553464
-0.660315844268341,1268.18244553464
-0.663759673947479,1268.19244553464
-0.666990409766019,1268.20244553464
-0.670618846993563,1268.21244553464
-0.674711125155556,1268.22244553464
-0.679708841565215,1268.23244553464
-0.684354670350087,1268.24244553464
-0.688801547851845,1268.25244553464
-0.692708996549834,1268.26244553464
-0.696488381839105,1268.27244553464
-0.699890520682732,1268.28244553464
-0.703574312889565,1268.29244553464
-0.706823976709063,1268.30244553464
-0.70987390285818,1268.31244553464
-0.713469374552254,1268.32244553464
-0.717048246956061,1268.33244553464
-0.7211691067202,1268.34244553464
-0.725118106848145,1268.35244553464
-0.729257411044467,1268.36244553464
-0.733503214955404,1268.37244553464
-0.738159053080831,1268.38244553464
-0.743315365428346,1268.39244553464
-0.748339156040178,1268.40244553464
-0.753345959030947,1268.41244553464
-0.758396218218425,1268.42244553464
-0.763295558318577,1268.43244553464
-0.768042757992213,1268.44244553464
-0.773377807223479,1268.45244553464
-0.778633010333941,1268.46244553464
-0.783747860833011,1268.47244553464
-0.788331514053198,1268.48244553464
-0.792447872502734,1268.49244553464
-0.796884617861303,1268.50244553464
-0.801712546890825,1268.51244553464
-0.806765588143987,1268.52244553464
-0.811831212851549,1268.53244553464
-0.816997682583188,1268.54244553464
-0.821837569202528,1268.55244553464
-0.826789139787301,1268.56244553464
-0.831342459742502,1268.57244553464
-0.834896711439776,1268.58244553464
-0.83793214053748,1268.59244553464
-0.840769724843303,1268.60244553464
-0.843493468040443,1268.61244553464
-0.845861073343824,1268.62244553464
-0.848081464923331,1268.63244553464
-0.850287389873193,1268.64244553464
-0.852665364934555,1268.65244553464
-0.855432459755619,1268.66244553464
-0.859850593271233,1268.67244553464
-0.864377230445752,1268.68244553464
-0.867158475135784,1268.69244553464
-0.865066926574996,1268.70244553464
-0.852544579672967,1268.71244553464
-0.823367172126215,1268.72244553464
-0.774568309163482,1268.73244553464
-0.70726480645922,1268.74244553464
-0.627786132183042,1268.75244553464
-0.545792761928933,1268.76244553464
-0.469436866852329,1268.77244553464
-0.405421370642786,1268.78244553464
-0.35685442239445,1268.79244553464
-0.32407390855908,1268.80244553464
-0.305288514641678,1268.81244553464
-0.297767613136052,1268.82244553464
-0.29914734253965,1268.83244553464
-0.30692490428795,1268.84244553464
-0.319333448797616,1268.85244553464
-0.334564881907378,1268.86244553464
-0.351621774778025,1268.87244553464
-0.369479293519133,1268.88244553464
-0.386891059688023,1268.89244553464
-0.402277498762194,1268.90244553464
-0.415618762311269,1268.91244553464
-0.426421262536906,1268.92244553464
-0.434879759941483,1268.93244553464
-0.441101003900642,1268.94244553464
-0.445033751202466,1268.95244553464
-0.447083505059218,1268.96244553464
-0.447222154226731,1268.97244553464
-0.446086952193652,1268.98244553464
-0.444474231056276,1268.99244553464
-0.444112373814442,1269.00244553464
-0.445444044297873,1269.01244553464
-0.449825405224218,1269.02244553464
-0.455759224471065,1269.03244553464
-0.462421460031828,1269.04244553464
-0.468442599406726,1269.05244553464
-0.472643697140239,1269.06244553464
-0.47392851670603,1269.07244553464
-0.472559415650737,1269.08244553464
-0.468496140441447,1269.09244553464
-0.462241343432457,1269.10244553464
-0.454374707986869,1269.11244553464
-0.445481515853229,1269.12244553464
-0.436639104262451,1269.13244553464
-0.42782283243148,1269.14244553464
-0.419872163929813,1269.15244553464
-0.413155523268859,1269.16244553464
-0.407752529346081,1269.17244553464
-0.404567968951489,1269.18244553464
-0.403577949110536,1269.19244553464
-0.404045136733619,1269.20244553464
-0.406547170549819,1269.21244553464
-0.410282374213232,1269.22244553464
-0.415445569107439,1269.23244553464
-0.42101736820257,1269.24244553464
-0.427016342653059,1269.25244553464
-0.433750481292343,1269.26244553464
-0.440147521321082,1269.27244553464
-0.446639901625513,1269.28244553464
-0.452666867732884,1269.29244553464
-0.458804215857119,1269.30244553464
-0.464971884370738,1269.31244553464
-0.470684587478144,1269.32244553464
-0.476718304787964,1269.33244553464
-0.482457533506119,1269.34244553464
-0.487969077289251,1269.35244553464
-0.493153413144192,1269.36244553464
-0.498030293526172,1269.37244553464
-0.502780403456269,1269.38244553464
-0.507099603458024,1269.39244553464
-0.511581872713633,1269.40244553464
-0.515228633484897,1269.41244553464
-0.519213163415403,1269.42244553464
-0.523194668933895,1269.43244553464
-0.52689195340575,1269.44244553464
-0.530720986266128,1269.45244553464
-0.533789277090725,1269.46244553464
-0.537026623293055,1269.47244553464
-0.540111268778433,1269.48244553464
-0.543797590886875,1269.49244553464
-0.547852975476603,1269.50244553464
-0.551701579255721,1269.51244553464
-0.555385360662016,1269.52244553464
-0.559072136960416,1269.53244553464
-0.56298967650801,1269.54244553464
-0.567293652729311,1269.55244553464
-0.571004951353144,1269.56244553464
-0.57525500299224,1269.57244553464
-0.579470735856965,1269.58244553464
-0.583895253714852,1269.59244553464
-0.588118149652162,1269.60244553464
-0.591511684694634,1269.61244553464
-0.59526560147604,1269.62244553464
-0.59861940268111,1269.63244553464
-0.603187123162206,1269.64244553464
-0.607729500873888,1269.65244553464
-0.612594407761862,1269.66244553464
-0.61707147053501,1269.67244553464
-0.621672891804554,1269.68244553464
-0.626112761392857,1269.69244553464
-0.630385274940485,1269.70244553464
-0.634204159127786,1269.71244553464
-0.637776634722199,1269.72244553464
-0.641599901307738,1269.73244553464
-0.645507099814614,1269.74244553464
-0.650290345339939,1269.75244553464
-0.654762758166188,1269.76244553464
-0.658903804494529,1269.77244553464
-0.663001449810213,1269.78244553464
-0.66675244966021,1269.79244553464
-0.670292446782713,1269.80244553464
-0.673930437944055,1269.81244553464
-0.677799377669129,1269.82244553464
-0.681876596113419,1269.83244553464
-0.68575755671988,1269.84244553464
-0.689223532771697,1269.85244553464
-0.692106912974254,1269.86244553464
-0.694720031387385,1269.87244553464
-0.697166203553998,1269.88244553464
-0.700010152568509,1269.89244553464
-0.703606540319924,1269.90244553464
-0.707166578805024,1269.91244553464
-0.711292890333889,1269.92244553464
-0.715985453643562,1269.93244553464
-0.721222005829516,1269.94244553464
-0.726391354148097,1269.95244553464
-0.729644118487514,1269.96244553464
-0.728383766187985,1269.97244553464
-0.716844984790157,1269.98244553464
-0.68900347080998,1269.99244553464
-0.640898497487801,1270.00244553464
-0.573345242735622,1270.01244553464
-0.49168557149991,1270.02244553464
-0.405821125779966,1270.03244553464
-0.323809653114765,1270.04244553464
-0.252886520308823,1270.05244553464
-0.195999494474252,1270.06244553464
-0.154937958757552,1270.07244553464
-0.128654406845776,1270.08244553464
-0.114975438110303,1270.09244553464
-0.111682279661899,1270.10244553464
-0.115822613759552,1270.11244553464
-0.126320772790947,1270.12244553464
-0.140873359245814,1270.13244553464
-0.159066153793517,1270.14244553464
-0.178753036371295,1270.15244553464
-0.199141120541431,1270.16244553464
-0.218399240061868,1270.17244553464
-0.23568186601632,1270.18244553464
-0.250481192707986,1270.19244553464
-0.262431361110428,1270.20244553464
-0.271674512434825,1270.21244553464
-0.278648407240265,1270.22244553464
-0.283577177883493,1270.23244553464
-0.286954756218307,1270.24244553464
-0.289348853643317,1270.25244553464
-0.292160724100163,1270.26244553464
-0.295938633954655,1270.27244553464
-0.301096651335097,1270.28244553464
-0.306913468207582,1270.29244553464
-0.313337914683574,1270.30244553464
-0.319543114461301,1270.31244553464
-0.324413115380973,1270.32244553464
-0.326940714162147,1270.33244553464
-0.326185617526934,1270.34244553464
-0.321655115017647,1270.35244553464
-0.313195875183872,1270.36244553464
-0.301366407085888,1270.37244553464
-0.287059888656487,1270.38244553464
-0.271940744790909,1270.39244553464
-0.256559925528653,1270.40244553464
-0.242657841829183,1270.41244553464
-0.230922564876398,1270.42244553464
-0.222081090911151,1270.43244553464
-0.21530671309794,1270.44244553464
-0.212164421210204,1270.45244553464
-0.211769627723713,1270.46244553464
-0.213773296492547,1270.47244553464
-0.21799507321449,1270.48244553464
-0.223692625409017,1270.49244553464
-0.229663132386072,1270.50244553464
-0.236933129800488,1270.51244553464
-0.244354256301475,1270.52244553464
-0.252241851630055,1270.53244553464
-0.260265889761537,1270.54244553464
-0.268351648881822,1270.55244553464
-0.276253784342178,1270.56244553464
-0.283709884013055,1270.57244553464
-0.290978782656357,1270.58244553464
-0.298328378693329,1270.59244553464
-0.305206297114469,1270.60244553464
-0.311951738658307,1270.61244553464
-0.317783499046615,1270.62244553464
-0.323501609757404,1270.63244553464
-0.328976351426698,1270.64244553464
-0.334150513122997,1270.65244553464
-0.339045127296377,1270.66244553464
-0.34353544945672,1270.67244553464
-0.34769016781914,1270.68244553464
-0.351569802902435,1270.69244553464
-0.355339816941713,1270.70244553464
-0.359146757416146,1270.71244553464
-0.362995282601408,1270.72244553464
-0.366587604150206,1270.73244553464
-0.369932363242251,1270.74244553464
-0.373207694437977,1270.75244553464
-0.376712657582157,1270.76244553464
-0.380386772365373,1270.77244553464
-0.383885827500053,1270.78244553464
-0.387010901072457,1270.79244553464
-0.390308105641532,1270.80244553464
-0.393868213786685,1270.81244553464
-0.397690405711196,1270.82244553464
-0.401814137802153,1270.83244553464
-0.406540932852882,1270.84244553464
-0.411305311345411,1270.85244553464
-0.416079948086213,1270.86244553464
-0.4207750853855,1270.87244553464
-0.42561420537142,1270.88244553464
-0.43037811766787,1270.89244553464
-0.435730272380864,1270.90244553464
-0.441378418320812,1270.91244553464
-0.446765196905651,1270.92244553464
-0.452018977604687,1270.93244553464
-0.457253494514142,1270.94244553464
-0.4618398324535,1270.95244553464
-0.465666184031424,1270.96244553464
-0.469182332292249,1270.97244553464
-0.471846880239957,1270.98244553464
-0.474751047475129,1270.99244553464
-0.477428342120494,1271.00244553464
-0.480619382007291,1271.01244553464
-0.48439667026871,1271.02244553464
-0.488131974900199,1271.03244553464
-0.492565578819633,1271.04244553464
-0.497054104036543,1271.05244553464
-0.501386690406812,1271.06244553464
-0.504488771885942,1271.07244553464
-0.504175782441866,1271.08244553464
-0.497279195155454,1271.09244553464
-0.477096070381222,1271.10244553464
-0.438525242766787,1271.11244553464
-0.379336278766252,1271.12244553464
-0.303125017384368,1271.13244553464
-0.217331993807411,1271.14244553464
-0.130001558187667,1271.15244553464
-0.0494461698807872,1271.16244553464
0.0201181691898732,1271.17244553464
0.0754530009561746,1271.18244553464
0.116669279942867,1271.19244553464
0.144789393133803,1271.20244553464
0.160791954712439,1271.21244553464
0.166601854070733,1271.22244553464
0.163661611743462,1271.23244553464
0.154513687993263,1271.24244553464
0.140868462205988,1271.25244553464
0.124871230289737,1271.26244553464
0.107606571114206,1271.27244553464
0.0908735110051878,1271.28244553464
0.0757795567371882,1271.29244553464
0.062999555747404,1271.30244553464
0.0518481669590147,1271.31244553464
0.0433840154411895,1271.32244553464
0.0376182539472061,1271.33244553464
0.0337845596482269,1271.34244553464
0.0315019647318518,1271.35244553464
0.0300664286783283,1271.36244553464
0.0286089116132195,1271.37244553464
0.0263946522921241,1271.38244553464
0.0235988481577283,1271.39244553464
0.0191247590311963,1271.40244553464
0.0130050234096079,1271.41244553464
0.00598056305475961,1271.42244553464
-0.00117685619666124,1271.43244553464
-0.00762237423908097,1271.44244553464
-0.0120694565432824,1271.45244553464
-0.0138987188744174,1271.46244553464
-0.0125225320119428,1271.47244553464
-0.00760673051420583,1271.48244553464
-0.000282223400324152,1271.49244553464
0.00969357252328652,1271.50244553464
0.0203955850035628,1271.51244553464
0.0316906741416935,1271.52244553464
0.0424964407761423,1271.53244553464
0.0513240047429089,1271.54244553464
0.0578923590169212,1271.55244553464
0.062015356881822,1271.56244553464
0.0634100210459992,1271.57244553464
0.0626042983490754,1271.58244553464
0.0603852579450776,1271.59244553464
0.0566521381158018,1271.60244553464
0.0514436065521929,1271.61244553464
0.0449354473250426,1271.62244553464
0.0375591946023111,1271.63244553464
0.0294677333506234,1271.64244553464
0.021459399709612,1271.65244553464
0.0129985071783097,1271.66244553464
0.00483002305845854,1271.67244553464
-0.00303689895782055,1271.68244553464
-0.0108577260039553,1271.69244553464
-0.0190124601524232,1271.70244553464
-0.0271954808295848,1271.71244553464
-0.0351709864947473,1271.72244553464
-0.0432611872189283,1271.73244553464
-0.0510799705635658,1271.74244553464
-0.0585593525488405,1271.75244553464
-0.06581351348709,1271.76244553464
-0.0722964194420151,1271.77244553464
-0.0791150030449035,1271.78244553464
-0.0851187059065243,1271.79244553464
-0.0907336009465902,1271.80244553464
-0.0964090737412178,1271.81244553464
-0.102262367998846,1271.82244553464
-0.107689647562637,1271.83244553464
-0.113269078806003,1271.84244553464
-0.118720564857559,1271.85244553464
-0.123761339909995,1271.86244553464
-0.128477860352289,1271.87244553464
-0.133392259856043,1271.88244553464
-0.13844813175038,1271.89244553464
-0.143424629321611,1271.90244553464
-0.148972941161383,1271.91244553464
-0.154486298106132,1271.92244553464
-0.159816936367427,1271.93244553464
-0.16504573171305,1271.94244553464
-0.170225826746345,1271.95244553464
-0.175450777862328,1271.96244553464
-0.181233018525645,1271.97244553464
-0.187290283590588,1271.98244553464
-0.193875211536925,1271.99244553464
-0.200835959783086,1272.00244553464
-0.20727156900785,1272.01244553464
-0.21372757356241,1272.02244553464
-0.220215612794017,1272.03244553464
-0.227092131693378,1272.04244553464
-0.233703460484641,1272.05244553464
-0.240045365470471,1272.06244553464
-0.245642886238721,1272.07244553464
-0.251146430003188,1272.08244553464
-0.256123916544159,1272.09244553464
-0.261382054300657,1272.10244553464
-0.266747611116992,1272.11244553464
-0.271995030867468,1272.12244553464
-0.277291833012972,1272.13244553464
-0.281535554523618,1272.14244553464
-0.285606886485106,1272.15244553464
-0.288779509466313,1272.16244553464
-0.292419640304822,1272.17244553464
-0.29594590461341,1272.18244553464
-0.299489938961323,1272.19244553464
-0.302803020788868,1272.20244553464
-0.306499647860034,1272.21244553464
-0.310635197104983,1272.22244553464
-0.314938846286499,1272.23244553464
-0.319397312512942,1272.24244553464
-0.324095089766714,1272.25244553464
-0.328090458322994,1272.26244553464
-0.328733294511596,1272.27244553464
-0.321274296664889,1272.28244553464
-0.298021728624949,1272.29244553464
-0.252237469565616,1272.30244553464
-0.181368387065552,1272.31244553464
-0.0903065570370226,1272.32244553464
0.0120826098541587,1272.33244553464
0.115043909784991,1272.34244553464
0.210293788950604,1272.35244553464
0.29139581083851,1272.36244553464
0.356171207830704,1272.37244553464
0.404593412152962,1272.38244553464
0.438348271865875,1272.39244553464
0.45888124995819,1272.40244553464
0.468513760169185,1272.41244553464
0.46826833924482,1272.42244553464
0.460271420774956,1272.43244553464
0.44630175181129,1272.44244553464
0.427933219497157,1272.45244553464
0.407475248939501,1272.46244553464
0.385979188528061,1272.47244553464
0.365165562084612,1272.48244553464
0.346583743933316,1272.49244553464
0.330565742349152,1272.50244553464
0.317769997357541,1272.51244553464
0.308066253619806,1272.52244553464
0.300784445964904,1272.53244553464
0.295677158969075,1272.54244553464
0.292089110239681,1272.55244553464
0.2890200137167,1272.56244553464
0.285869524634462,1272.57244553464
0.281220405194435,1272.58244553464
0.274823212316079,1272.59244553464
0.266830265186012,1272.60244553464
0.258081426570368,1272.61244553464
0.248896134016369,1272.62244553464
0.241055448699118,1272.63244553464
0.235743544742485,1272.64244553464
0.233249719193104,1272.65244553464
0.234992398173578,1272.66244553464
0.240610552914208,1272.67244553464
0.249787997414184,1272.68244553464
0.261147124745794,1272.69244553464
0.273327824300775,1272.70244553464
0.285268249967106,1272.71244553464
0.296033083672204,1272.72244553464
0.304909472893856,1272.73244553464
0.311489261269265,1272.74244553464
0.315708178281067,1272.75244553464
0.316706232283212,1272.76244553464
0.314994753426565,1272.77244553464
0.31074048352525,1272.78244553464
0.304136358240596,1272.79244553464
0.295723382237074,1272.80244553464
0.286187004008109,1272.81244553464
0.275915133403732,1272.82244553464
0.265097630263935,1272.83244553464
0.254599152810882,1272.84244553464
0.243461380789003,1272.85244553464
0.232012646973621,1272.86244553464
0.219993595693681,1272.87244553464
0.208111079724226,1272.88244553464
0.196182827959106,1272.89244553464
0.184371909137994,1272.90244553464
0.173055854544959,1272.91244553464
0.161721549704976,1272.92244553464
0.151367519883583,1272.93244553464
0.141193154514215,1272.94244553464
0.131553889429339,1272.95244553464
0.121583045008665,1272.96244553464
0.112334459956204,1272.97244553464
0.103808142548052,1272.98244553464
0.0951353757239966,1272.99244553464
0.0876311157263525,1273.00244553464
0.0799225056018944,1273.01244553464
0.0728181401494292,1273.02244553464
0.0658898003318172,1273.03244553464
0.0593184116043071,1273.04244553464
0.0527509750403228,1273.05244553464
0.0460995822060902,1273.06244553464
0.0393553521434545,1273.07244553464
0.0323638865765706,1273.08244553464
0.0249438268104372,1273.09244553464
0.0174291173295528,1273.10244553464
0.00937984727489356,1273.11244553464
0.0015112035053362,1273.12244553464
-0.00675747129960309,1273.13244553464
-0.015721412351225,1273.14244553464
-0.0243016152367603,1273.15244553464
-0.0325346743482269,1273.16244553464
-0.0397800691127245,1273.17244553464
-0.0464611412957418,1273.18244553464
-0.0528537413396225,1273.19244553464
-0.0594038935749,1273.20244553464
-0.066651143441942,1273.21244553464
-0.0743138133460118,1273.22244553464
-0.0825772073336834,1273.23244553464
-0.0899085735895919,1273.24244553464
-0.0971794391231921,1273.25244553464
-0.104204533458606,1273.26244553464
-0.111223746391034,1273.27244553464
-0.118061392962475,1273.28244553464
-0.125386929395714,1273.29244553464
-0.133089936703158,1273.30244553464
-0.14055382598217,1273.31244553464
-0.147504045292429,1273.32244553464
-0.15395039516551,1273.33244553464
-0.159217784289007,1273.34244553464
-0.163338970983465,1273.35244553464
-0.167747186485318,1273.36244553464
-0.172245146570712,1273.37244553464
-0.177844303651322,1273.38244553464
-0.184153561807577,1273.39244553464
-0.191257010468648,1273.40244553464
-0.198680824968668,1273.41244553464
-0.205985868069366,1273.42244553464
-0.212059454716963,1273.43244553464
-0.214147363901711,1273.44244553464
-0.207431765230354,1273.45244553464
-0.184453125983434,1273.46244553464
-0.138672169847962,1273.47244553464
-0.0677071153363861,1273.48244553464
0.02305805995497,1273.49244553464
0.125156895435259,1273.50244553464
0.229572297751551,1273.51244553464
0.327661099661209,1273.52244553464
0.414754262801444,1273.53244553464
0.487959735996156,1273.54244553464
0.545932087663907,1273.55244553464
0.589756125420797,1273.56244553464
0.619176633230444,1273.57244553464
0.636058607516279,1273.58244553464
0.642195357437129,1273.59244553464
0.638950482098299,1273.60244553464
0.627922753987905,1273.61244553464
0.611321187893216,1273.62244553464
0.590690952764419,1273.63244553464
0.568213665553632,1273.64244553464
0.545048921244084,1273.65244553464
0.521406346499382,1273.66244553464
0.499098852125735,1273.67244553464
0.478067684554557,1273.68244553464
0.459250622190657,1273.69244553464
0.443611959336918,1273.70244553464
0.429612962961108,1273.71244553464
0.417418514522521,1273.72244553464
0.405987837066058,1273.73244553464
0.394158128814858,1273.74244553464
0.381020021830009,1273.75244553464
0.366933791756999,1273.76244553464
0.352668581169394,1273.77244553464
0.339081131016164,1273.78244553464
0.328366616867075,1273.79244553464
0.321867745634081,1273.80244553464
0.32008090594387,1273.81244553464
0.324165770213987,1273.82244553464
0.333234485072763,1273.83244553464
0.347099442203496,1273.84244553464
0.364107661232888,1273.85244553464
0.382454104770872,1273.86244553464
0.401068896982852,1273.87244553464
0.418228257286467,1273.88244553464
0.43281400255723,1273.89244553464
0.443994546476087,1273.90244553464
0.450916152493399,1273.91244553464
0.45314760575458,1273.92244553464
0.451531519447646,1273.93244553464
0.445908352324792,1273.94244553464
0.437471420172954,1273.95244553464
0.42725724301701,1273.96244553464
0.416115086992919,1273.97244553464
0.404314312911535,1273.98244553464
0.391729015072713,1273.99244553464
0.378796148008285,1274.00244553464
0.365638282242353,1274.01244553464
0.352030484411584,1274.02244553464
0.338060899903539,1274.03244553464
0.324112971454591,1274.04244553464
0.310459415399421,1274.05244553464
0.297082227705006,1274.06244553464
0.284925498531848,1274.07244553464
0.273386374771735,1274.08244553464
0.262143799309151,1274.09244553464
0.250817001099101,1274.10244553464
0.239215163391891,1274.11244553464
0.22763468719467,1274.12244553464
0.216117473173994,1274.13244553464
0.205072623772784,1274.14244553464
0.194363045856534,1274.15244553464
0.18417943374417,1274.16244553464
0.174661402422389,1274.17244553464
0.165669216596617,1274.18244553464
0.156803687227216,1274.19244553464
0.148856142523496,1274.20244553464
0.141588892046884,1274.21244553464
0.134124562595705,1274.22244553464
0.12654355536621,1274.23244553464
0.118676010051363,1274.24244553464
0.110364067222175,1274.25244553464
0.101997810790008,1274.26244553464
0.0930490429006087,1274.27244553464
0.0840967119627502,1274.28244553464
0.0751582982679057,1274.29244553464
0.0659643573186161,1274.30244553464
0.0567591758549738,1274.31244553464
0.0480293584476092,1274.32244553464
0.0392685666616324,1274.33244553464
0.0311828479227221,1274.34244553464
0.0234321524434075,1274.35244553464
0.0158862460252321,1274.36244553464
0.00862549193538916,1274.37244553464
0.00137161800866815,1274.38244553464
-0.00605503491661552,1274.39244553464
-0.0122409498335767,1274.40244553464
-0.0181390860704882,1274.41244553464
-0.022822452357325,1274.42244553464
-0.0259599545390039,1274.43244553464
-0.0284394896037846,1274.44244553464
-0.0291836355699099,1274.45244553464
-0.0288592049407993,1274.46244553464
-0.0276365774011706,1274.47244553464
-0.0250634803596347,1274.48244553464
-0.0223551730402231,1274.49244553464
-0.0210511035219913,1274.50244553464
-0.0214921484921005,1274.51244553464
-0.0241017043684654,1274.52244553464
-0.0298216080577259,1274.53244553464
-0.0377203051579297,1274.54244553464
-0.0478790390362472,1274.55244553464
-0.0600469033620239,1274.56244553464
-0.0737456020142512,1274.57244553464
-0.0877806996195792,1274.58244553464
-0.0992792269504694,1274.59244553464
-0.104013758790196,1274.60244553464
-0.0946184206379306,1274.61244553464
-0.0631219712677696,1274.62244553464
-0.00409526429352804,1274.63244553464
0.0812780499892258,1274.64244553464
0.185966444912988,1274.65244553464
0.299737138459373,1274.66244553464
0.411460815582819,1274.67244553464
0.514451846864646,1274.68244553464
0.603247293804982,1274.69244553464
0.676429630674772,1274.70244553464
0.732681443970093,1274.71244553464
0.772795604099426,1274.72244553464
0.797609675884153,1274.73244553464
0.808844504018501,1274.74244553464
0.808052347887646,1274.75244553464
0.798058219168178,1274.76244553464
0.781299966529551,1274.77244553464
0.759989848059464,1274.78244553464
0.737014948323865,1274.79244553464
0.713660152376988,1274.80244553464
0.690816189111581,1274.81244553464
0.669704677476301,1274.82244553464
0.651095285063423,1274.83244553464
0.635208618709127,1274.84244553464
0.622237361993889,1274.85244553464
0.611902140828694,1274.86244553464
0.604025854692579,1274.87244553464
0.597107428747204,1274.88244553464
0.589592587879241,1274.89244553464
0.580585839580176,1274.90244553464
0.568648699477745,1274.91244553464
0.554991606847314,1274.92244553464
0.53995892223985,1274.93244553464
0.525401922453635,1274.94244553464
0.512884944267522,1274.95244553464
0.504413818537797,1274.96244553464
0.501230572228086,1274.97244553464
0.503602655140682,1274.98244553464
0.511802720420534,1274.99244553464
0.523769333923117,1275.00244553464
0.537945073621944,1275.01244553464
0.552626213301668,1275.02244553464
0.566285320734513,1275.03244553464
0.578670101981461,1275.04244553464
0.58881041586498,1275.05244553464
0.596236465930131,1275.06244553464
0.599960511802227,1275.07244553464
0.599986324202221,1275.08244553464
0.596737938469203,1275.09244553464
0.590487149435717,1275.10244553464
0.581099291610174,1275.11244553464
0.569447354587485,1275.12244553464
0.556218110698496,1275.13244553464
0.542009629094248,1275.14244553464
0.526914862882283,1275.15244553464
0.51111320421801,1275.16244553464
0.494674069537259,1275.17244553464
0.478373417198219,1275.18244553464
0.462107741014779,1275.19244553464
0.447001581758479,1275.20244553464
0.432420059015033,1275.21244553464
0.41845306832516,1275.22244553464
0.404855349731356,1275.23244553464
0.390953081167129,1275.24244553464
0.377491336567021,1275.25244553464
0.364243506277455,1275.26244553464
0.351267934730205,1275.27244553464
0.337882927324362,1275.28244553464
0.324800792911299,1275.29244553464
0.312380332864435,1275.30244553464
0.300511040808814,1275.31244553464
0.289764924818649,1275.32244553464
0.279679944642231,1275.33244553464
0.270506557492633,1275.34244553464
0.262003722409212,1275.35244553464
0.253449847800397,1275.36244553464
0.24466024461603,1275.37244553464
0.23584393239752,1275.38244553464
0.226481810842541,1275.39244553464
0.216554692075982,1275.40244553464
0.206268322559751,1275.41244553464
0.196702661834183,1275.42244553464
0.187105415395283,1275.43244553464
0.178018606677018,1275.44244553464
0.168993847697889,1275.45244553464
0.160047196796629,1275.46244553464
0.15106234027372,1275.47244553464
0.142181554163549,1275.48244553464
0.132698985395987,1275.49244553464
0.123412429029327,1275.50244553464
0.113612287642866,1275.51244553464
0.104218509569592,1275.52244553464
0.0948120460049283,1275.53244553464
0.0853036896599513,1275.54244553464
0.0757715447956715,1275.55244553464
0.066428812344384,1275.56244553464
0.0566349003354408,1275.57244553464
0.0468751266460771,1275.58244553464
0.0372282513115878,1275.59244553464
0.0277900519521918,1275.60244553464
0.0183947953511735,1275.61244553464
0.00880257451661973,1275.62244553464
-0.000502757639584372,1275.63244553464
-0.00935076972689883,1275.64244553464
-0.0183851333141059,1275.65244553464
-0.0271068724189103,1275.66244553464
-0.034550086887148,1275.67244553464
-0.0418556331022951,1275.68244553464
-0.0479669394147318,1275.69244553464
-0.0541363798902455,1275.70244553464
-0.0603597761989254,1275.71244553464
-0.0664843741804255,1275.72244553464
-0.0730629822765695,1275.73244553464
-0.0804952259505528,1275.74244553464
-0.0882004733954042,1275.75244553464
-0.0964724441867788,1275.76244553464
-0.104842812144388,1275.77244553464
-0.113217795893526,1275.78244553464
-0.121513527028073,1275.79244553464
-0.127644116689979,1275.80244553464
-0.128642171470859,1275.81244553464
-0.118136527722898,1275.82244553464
-0.0882066731254656,1275.83244553464
-0.0315226220811197,1275.84244553464
0.053952072136966,1275.85244553464
0.163334614147546,1275.86244553464
0.286358543966649,1275.87244553464
0.410932552027487,1275.88244553464
0.528023412557621,1275.89244553464
0.631708437943344,1275.90244553464
0.718862259064177,1275.91244553464
0.789058274630838,1275.92244553464
0.84202742734711,1275.93244553464
0.878103499639374,1275.94244553464
0.897955196849166,1275.95244553464
0.903511253985855,1275.96244553464
0.897556836931419,1275.97244553464
0.882501384588676,1275.98244553464
0.861906517487162,1275.99244553464
0.837930943082797,1276.00244553464
0.81254995505162,1276.01244553464
0.787163782068577,1276.02244553464
0.763001596317738,1276.03244553464
0.740347699925968,1276.04244553464
0.720413157861057,1276.05244553464
0.703745139889101,1276.06244553464
0.689623826717001,1276.07244553464
0.677555403829491,1276.08244553464
0.667441502158987,1276.09244553464
0.658216506310377,1276.10244553464
0.648379572152335,1276.11244553464
0.637538654413752,1276.12244553464
0.624795186337896,1276.13244553464
0.610285602696233,1276.14244553464
0.595237613656764,1276.15244553464
0.58153914883728,1276.16244553464
0.570859537557806,1276.17244553464
0.564871057355302,1276.18244553464
0.563936084220769,1276.19244553464
0.56842320030187,1276.20244553464
0.577293148274954,1276.21244553464
0.589562459985833,1276.22244553464
0.604071459471378,1276.23244553464
0.619438058549797,1276.24244553464
0.634442800952134,1276.25244553464
0.647649836155965,1276.26244553464
0.65807488867233,1276.27244553464
0.664825194923208,1276.28244553464
0.667491506756072,1276.29244553464
0.666347153733632,1276.30244553464
0.661720031472077,1276.31244553464
0.653888463985806,1276.32244553464
0.643409658646647,1276.33244553464
0.630439921847854,1276.34244553464
0.616432273884776,1276.35244553464
0.601722829389107,1276.36244553464
0.586377996745295,1276.37244553464
0.570753705925447,1276.38244553464
0.554809717357966,1276.39244553464
0.538746548518138,1276.40244553464
0.522368258779091,1276.41244553464
0.505931540595247,1276.42244553464
0.489076416746884,1276.43244553464
0.472557255891905,1276.44244553464
0.455706127735197,1276.45244553464
0.439177627908686,1276.46244553464
0.423161983829096,1276.47244553464
0.407984860854384,1276.48244553464
0.393878952243823,1276.49244553464
0.380348689554598,1276.50244553464
0.367059497187056,1276.51244553464
0.354312217775096,1276.52244553464
0.341887131729326,1276.53244553464
0.330192965692858,1276.54244553464
0.318547397774487,1276.55244553464
0.307380988682885,1276.56244553464
0.297071798316733,1276.57244553464
0.286876845990978,1276.58244553464
0.277036945650103,1276.59244553464
0.266898489747539,1276.60244553464
0.256677296276409,1276.61244553464
0.246273369488193,1276.62244553464
0.235550959904172,1276.63244553464
0.224505454941885,1276.64244553464
0.212832842492674,1276.65244553464
0.201260466645521,1276.66244553464
0.190209549011674,1276.67244553464
0.179225343439013,1276.68244553464
0.168613122852565,1276.69244553464
0.158088494314816,1276.70244553464
0.146972827034816,1276.71244553464
0.136075095722027,1276.72244553464
0.125285159613563,1276.73244553464
0.114564579942021,1276.74244553464
0.10375233648063,1276.75244553464
0.0930608988754497,1276.76244553464
0.0824072164350258,1276.77244553464
0.07200748533404,1276.78244553464
0.0609416845143668,1276.79244553464
0.0498885441410903,1276.80244553464
0.0388420398924222,1276.81244553464
0.0279044854604534,1276.82244553464
0.017398974985183,1276.83244553464
0.0072264864921187,1276.84244553464
-0.00267279077490314,1276.85244553464
-0.0127259125826503,1276.86244553464
-0.0228591486976818,1276.87244553464
-0.0333772957866645,1276.88244553464
-0.043330433974165,1276.89244553464
-0.0533942074098102,1276.90244553464
-0.0632623973261616,1276.91244553464
-0.0730406595151623,1276.92244553464
-0.0831469124802282,1276.93244553464
-0.0926462566871015,1276.94244553464
-0.102325131999534,1276.95244553464
-0.111159421697033,1276.96244553464
-0.119916958414216,1276.97244553464
-0.128049065995492,1276.98244553464
-0.135876454548769,1276.99244553464
-0.144912522914936,1277.00244553464
-0.154176659002966,1277.01244553464
-0.164306379748054,1277.02244553464
-0.174759419337545,1277.03244553464
-0.185052921101028,1277.04244553464
-0.195017111110192,1277.05244553464
-0.203104362449233,1277.06244553464
-0.207484362381377,1277.07244553464
-0.202891380475152,1277.08244553464
-0.182125004554668,1277.09244553464
-0.13691432934861,1277.10244553464
-0.0619223643347941,1277.11244553464
0.0395681635776306,1277.12244553464
0.15854324278483,1277.13244553464
0.283634339305098,1277.14244553464
0.405042513241998,1277.15244553464
0.515777891580862,1277.16244553464
0.610975598725891,1277.17244553464
0.688901010563777,1277.18244553464
0.747857672254871,1277.19244553464
0.788155647747923,1277.20244553464
0.811502236047977,1277.21244553464
0.819000023919323,1277.22244553464
0.814290826538776,1277.23244553464
0.799499497158413,1277.24244553464
0.777561568969225,1277.25244553464
0.750974125262675,1277.26244553464
0.72203940511425,1277.27244553464
0.69221514043043,1277.28244553464
0.662809285039132,1277.29244553464
0.635340131003546,1277.30244553464
0.609953801998335,1277.31244553464
0.588203413399012,1277.32244553464
0.569839707290225,1277.33244553464
0.554975499594428,1277.34244553464
0.542244741970899,1277.35244553464
0.531120487509476,1277.36244553464
0.520163767075676,1277.37244553464
0.507756182094982,1277.38244553464
0.493716199368684,1277.39244553464
0.477986766492696,1277.40244553464
0.461923887153037,1277.41244553464
0.446430387699647,1277.42244553464
0.434542362222214,1277.43244553464
0.427361603253309,1277.44244553464
0.426187241701147,1277.45244553464
0.431493775246449,1277.46244553464
0.442625319747581,1277.47244553464
0.457938597026796,1277.48244553464
0.476015615723222,1277.49244553464
0.494315677352334,1277.50244553464
0.512281365393931,1277.51244553464
0.528219776748108,1277.52244553464
0.540776143822071,1277.53244553464
0.550628086869775,1277.54244553464
0.555383206151094,1277.55244553464
0.560073785534847,1277.56244553464
0.562909823218893,1277.57244553464
0.552001300384259,1277.58244553464
0.545631136808737,1277.59244553464
0.534751258608293,1277.60244553464
0.521382592929384,1277.61244553464
0.50536482371385,1277.62244553464
0.488522636863681,1277.63244553464
0.471591766952308,1277.64244553464
0.454900606674371,1277.65244553464
0.438840252622794,1277.66244553464
0.422727735539204,1277.67244553464
0.406472517235067,1277.68244553464
0.38946617908429,1277.69244553464
0.372242343230582,1277.70244553464
0.3550518404812,1277.71244553464
0.337901677172362,1277.72244553464
0.321540531782386,1277.73244553464
0.305863352160788,1277.74244553464
0.291110361131576,1277.75244553464
0.277060525906738,1277.76244553464
0.263601280242549,1277.77244553464
0.250578635653191,1277.78244553464
0.237744350530862,1277.79244553464
0.224824917451158,1277.80244553464
0.212189554464729,1277.81244553464
0.199857523055433,1277.82244553464
0.187902336612292,1277.83244553464
0.176762925037168,1277.84244553464
0.165772348631227,1277.85244553464
0.155072746948799,1277.86244553464
0.144629797918502,1277.87244553464
0.134527081085713,1277.88244553464
0.124496608697844,1277.89244553464
0.114329609296355,1277.90244553464
0.104443589163158,1277.91244553464
0.0942429847003631,1277.92244553464
0.0840128927325384,1277.93244553464
0.0739862711410936,1277.94244553464
0.063793081148667,1277.95244553464
0.0532959262855098,1277.96244553464
0.0425099057490664,1277.97244553464
0.0319347373989108,1277.98244553464
0.0203719297317303,1277.99244553464
0.00931978210592949,1278.00244553464
-0.00195589309940118,1278.01244553464
-0.0126662053618738,1278.02244553464
-0.0229775574761173,1278.03244553464
-0.0332000898143731,1278.04244553464
-0.0430982793969849,1278.05244553464
-0.0530409609756486,1278.06244553464
-0.062789845508755,1278.07244553464
-0.0725551695718211,1278.08244553464
-0.0823913844856291,1278.09244553464
-0.0921540158055819,1278.10244553464
-0.101884094089531,1278.11244553464
-0.111227597794496,1278.12244553464
-0.120342022798761,1278.13244553464
-0.129766448194579,1278.14244553464
-0.139140194927447,1278.15244553464
-0.148036854809218,1278.16244553464
-0.156146217739004,1278.17244553464
-0.16332259147298,1278.18244553464
-0.170349973080538,1278.19244553464
-0.177378346896786,1278.20244553464
-0.184243851747409,1278.21244553464
-0.191776872635111,1278.22244553464
-0.199488215024787,1278.23244553464
-0.20820476632784,1278.24244553464
-0.217414468243905,1278.25244553464
-0.227168895034606,1278.26244553464
-0.235826092311694,1278.27244553464
-0.239369530019416,1278.28244553464
-0.232887118659981,1278.29244553464
-0.208676635253754,1278.30244553464
-0.158094118049388,1278.31244553464
-0.0772253823750315,1278.32244553464
0.0299949501550187,1278.33244553464
0.154062996153624,1278.34244553464
0.284305475206279,1278.35244553464
0.409414117640892,1278.36244553464
0.522958640065293,1278.37244553464
0.620230654917364,1278.38244553464
0.698689693549869,1278.39244553464
0.75799039869445,1278.40244553464
0.798796254548355,1278.41244553464
0.82282723668362,1278.42244553464
0.8320355513262,1278.43244553464
0.828273968085571,1278.44244553464
0.814575161718717,1278.45244553464
0.793022719783502,1278.46244553464
0.766606598304808,1278.47244553464
0.737731253693569,1278.48244553464
0.708065642996432,1278.49244553464
0.680117395295614,1278.50244553464
0.65444841175677,1278.51244553464
0.631276517499415,1278.52244553464
0.611347517050444,1278.53244553464
0.593863499131021,1278.54244553464
0.579144239944624,1278.55244553464
0.565874412085822,1278.56244553464
0.553616789239915,1278.57244553464
0.541421154088779,1278.58244553464
0.527991308261942,1278.59244553464
0.513271117589983,1278.60244553464
0.496732247068631,1278.61244553464
0.480103884313133,1278.62244553464
0.46444065074245,1278.63244553464
0.451975284349799,1278.64244553464
0.444377912367711,1278.65244553464
0.442353855845355,1278.66244553464
0.446223720169427,1278.67244553464
0.455410319736781,1278.68244553464
0.468243913521363,1278.69244553464
0.484044052015661,1278.70244553464
0.500907694044095,1278.71244553464
0.516939040724618,1278.72244553464
0.531310659794423,1278.73244553464
0.543039543895799,1278.74244553464
0.550995661312741,1278.75244553464
0.554655240441262,1278.76244553464
0.554563232009064,1278.77244553464
0.550670755267445,1278.78244553464
0.542700974267601,1278.79244553464
0.532646849648981,1278.80244553464
0.519949711972361,1278.81244553464
0.505451238437412,1278.82244553464
0.49074438241098,1278.83244553464
0.475343752601215,1278.84244553464
0.459361017311891,1278.85244553464
0.4426765274461,1278.86244553464
0.425007090716403,1278.87244553464
0.406278530583175,1278.88244553464
0.387639488189511,1278.89244553464
0.36962082170301,1278.90244553464
0.351979899552164,1278.91244553464
0.335402613104742,1278.92244553464
0.319322808614804,1278.93244553464
0.303163057528279,1278.94244553464
0.28778413769803,1278.95244553464
0.27258170493922,1278.96244553464
0.257410847349038,1278.97244553464
0.241993573314499,1278.98244553464
0.226940796938503,1278.99244553464
0.212555111726525,1279.00244553464
0.198525059720328,1279.01244553464
0.18532050193353,1279.02244553464
0.172543879532361,1279.03244553464
0.16052743499445,1279.04244553464
0.149091213615294,1279.05244553464
0.138281770153162,1279.06244553464
0.127368988728456,1279.07244553464
0.11654444788773,1279.08244553464
0.105758265632474,1279.09244553464
0.0949128096098788,1279.10244553464
0.0842468095049789,1279.11244553464
0.0734305259660377,1279.12244553464
0.0623374846912981,1279.13244553464
0.0511954355722657,1279.14244553464
0.0401785796634209,1279.15244553464
0.0294853063265889,1279.16244553464
0.0189501413009288,1279.17244553464
0.00815522350161951,1279.18244553464
-0.00228216591745427,1279.19244553464
-0.0127554448674363,1279.20244553464
-0.0235238228280615,1279.21244553464
-0.0344342976632085,1279.22244553464
-0.0457698928316166,1279.23244553464
-0.057500792869328,1279.24244553464
-0.0692017825754808,1279.25244553464
-0.0802583471174278,1279.26244553464
-0.0915344603034066,1279.27244553464
-0.102600250063586,1279.28244553464
-0.113410255616165,1279.29244553464
-0.12439882253442,1279.30244553464
-0.135079687729419,1279.31244553464
-0.145582612077931,1279.32244553464
-0.155259664307243,1279.33244553464
-0.164678589470992,1279.34244553464
-0.173962794728089,1279.35244553464
-0.183332055419835,1279.36244553464
-0.192497210250377,1279.37244553464
-0.20208952264512,1279.38244553464
-0.211477248990137,1279.39244553464
-0.220646091363843,1279.40244553464
-0.230024497659019,1279.41244553464
-0.238727600292771,1279.42244553464
-0.247221786372014,1279.43244553464
-0.254894134236058,1279.44244553464
-0.262317590582652,1279.45244553464
-0.269855078670316,1279.46244553464
-0.277055943269558,1279.47244553464
-0.284287632991542,1279.48244553464
-0.292151717264969,1279.49244553464
-0.300425888812198,1279.50244553464
-0.309411276730642,1279.51244553464
-0.318449265748907,1279.52244553464
-0.326506347502546,1279.53244553464
-0.331026565937968,1279.54244553464
-0.327172424248452,1279.55244553464
-0.307585806632672,1279.56244553464
-0.264517855059105,1279.57244553464
-0.190942284736028,1279.58244553464
-0.0859663681375903,1279.59244553464
0.0428495913660549,1279.60244553464
0.183380860434069,1279.61244553464
0.323830433394605,1279.62244553464
0.453575345492275,1279.63244553464
0.565916261132138,1279.64244553464
0.657949280010124,1279.65244553464
0.729067704738171,1279.66244553464
0.779958218811919,1279.67244553464
0.812001735473408,1279.68244553464
0.827417689433446,1279.69244553464
0.828403345478976,1279.70244553464
0.818099602541142,1279.71244553464
0.798919154223504,1279.72244553464
0.773155082730633,1279.73244553464
0.744360731449954,1279.74244553464
0.713930707672567,1279.75244553464
0.683337592219232,1279.76244553464
0.654867731033433,1279.77244553464
0.62872057534962,1279.78244553464
0.605779490457344,1279.79244553464
0.585687916324058,1279.80244553464
0.568587823160848,1279.81244553464
0.553949756744352,1279.82244553464
0.541054867021258,1279.83244553464
0.528217793008405,1279.84244553464
0.514757770965879,1279.85244553464
0.499758588039431,1279.86244553464
0.482775250547476,1279.87244553464
0.464256534563908,1279.88244553464
0.446200467634209,1279.89244553464
0.430282428676058,1279.90244553464
0.418466038882922,1279.91244553464
0.412406013229344,1279.92244553464
0.411929765083096,1279.93244553464
0.418302709073795,1279.94244553464
0.429474945584722,1279.95244553464
0.444365342903798,1279.96244553464
0.461011438352604,1279.97244553464
0.478712456673228,1279.98244553464
0.495492222616484,1279.99244553464
0.509953531174223,1280.00244553464
0.521933429095713,1280.01244553464
0.529563660065504,1280.02244553464
0.532962853811393,1280.03244553464
0.532486620204522,1280.04244553464
0.527388709598212,1280.05244553464
0.519283166375844,1280.06244553464
0.508260902896478,1280.07244553464
0.494333643848888,1280.08244553464
0.479179046238565,1280.09244553464
0.46247809751715,1280.10244553464
0.44549007990421,1280.11244553464
0.427731924406228,1280.12244553464
0.409628986475837,1280.13244553464
0.390849358214556,1280.14244553464
0.371686665215455,1280.15244553464
0.352529728912232,1280.16244553464
0.333801231404314,1280.17244553464
0.315676983456033,1280.18244553464
0.297971037995185,1280.19244553464
0.280287247397088,1280.20244553464
0.262743504477362,1280.21244553464
0.246232611972701,1280.22244553464
0.229577366861791,1280.23244553464
0.214075646777292,1280.24244553464
0.199021875599486,1280.25244553464
0.184503067562163,1280.26244553464
0.170821782806048,1280.27244553464
0.157385836523149,1280.28244553464
0.144821551270377,1280.29244553464
0.132220587211566,1280.30244553464
0.11971690398191,1280.31244553464
0.107510159071751,1280.32244553464
0.09602478846525,1280.33244553464
0.0846183406683757,1280.34244553464
0.0731747745820249,1280.35244553464
0.0613767471573743,1280.36244553464
0.0501423085867533,1280.37244553464
0.0389459180073783,1280.38244553464
0.0282902231517958,1280.39244553464
0.0174065254967956,1280.40244553464
0.00598650116450756,1280.41244553464
-0.00549465771935463,1280.42244553464
-0.0175477477791782,1280.43244553464
-0.0298019044244001,1280.44244553464
-0.0416230501178533,1280.45244553464
-0.0534847533665957,1280.46244553464
-0.0647774551155226,1280.47244553464
-0.0756262570891777,1280.48244553464
-0.0866373986181138,1280.49244553464
-0.096917253780405,1280.50244553464
-0.107543906687013,1280.51244553464
-0.118532067543817,1280.52244553464
-0.129875080387943,1280.53244553464
-0.140829453106985,1280.54244553464
-0.151736740656192,1280.55244553464
-0.162823939579706,1280.56244553464
-0.173588566012399,1280.57244553464
-0.184077092749591,1280.58244553464
-0.194691445379081,1280.59244553464
-0.205229271851653,1280.60244553464
-0.215749256808869,1280.61244553464
-0.225847910233176,1280.62244553464
-0.236102331341596,1280.63244553464
-0.245786954702738,1280.64244553464
-0.254996910950092,1280.65244553464
-0.264627193223286,1280.66244553464
-0.274387008481691,1280.67244553464
-0.284301350945562,1280.68244553464
-0.29381142544354,1280.69244553464
-0.30242074614002,1280.70244553464
-0.310399700160403,1280.71244553464
-0.317704353733183,1280.72244553464
-0.32549955881649,1280.73244553464
-0.333793125206363,1280.74244553464
-0.342099228270783,1280.75244553464
-0.350386018828379,1280.76244553464
-0.358769223575071,1280.77244553464
-0.367329803564731,1280.78244553464
-0.376062385388267,1280.79244553464
-0.385010999816438,1280.80244553464
-0.393239715417623,1280.81244553464
-0.398828790823556,1280.82244553464
-0.397661886322873,1280.83244553464
-0.384092195684721,1280.84244553464
-0.351120498366541,1280.85244553464
-0.289902490964541,1280.86244553464
-0.196409899933939,1280.87244553464
-0.0733937961709515,1280.88244553464
0.0676399930003879,1280.89244553464
0.213688195774257,1280.90244553464
0.353118158430702,1280.91244553464
0.476164387234227,1280.92244553464
0.579227597701247,1280.93244553464
0.660351019040735,1280.94244553464
0.72016745440688,1280.95244553464
0.760344012092208,1280.96244553464
0.782606371805363,1280.97244553464
0.789179510673994,1280.98244553464
0.783239935546896,1280.99244553464
0.766597531096308,1281.00244553464
0.742446748671554,1281.01244553464
0.713114599760609,1281.02244553464
0.68079298160894,1281.03244553464
0.647560866261433,1281.04244553464
0.614859998092314,1281.05244553464
0.583949107107901,1281.06244553464
0.555433373739209,1281.07244553464
0.530056608023169,1281.08244553464
0.50714942385828,1281.09244553464
0.486704544033493,1281.10244553464
0.468478985896759,1281.11244553464
0.451861438553042,1281.12244553464
0.435528960735344,1281.13244553464
0.418465677572902,1281.14244553464
0.400428295673378,1281.15244553464
0.381304885166703,1281.16244553464
0.361899354661516,1281.17244553464
0.344067367587516,1281.18244553464
0.329422019337097,1281.19244553464
0.320167156375009,1281.20244553464
0.316891377812138,1281.21244553464
0.319823863829961,1281.22244553464
0.328977246457068,1281.23244553464
0.343329070222143,1281.24244553464
0.361516786346487,1281.25244553464
0.381692248328735,1281.26244553464
0.401787994848879,1281.27244553464
0.420528354574887,1281.28244553464
0.436366993273826,1281.29244553464
0.448407579660644,1281.30244553464
0.456351294336089,1281.31244553464
0.459658670013269,1281.32244553464
0.458359691270937,1281.33244553464
0.453061399564642,1281.34244553464
0.443729847985629,1281.35244553464
0.431671121086695,1281.36244553464
0.416731002242018,1281.37244553464
0.400802395333493,1281.38244553464
0.383578725871991,1281.39244553464
0.365896682798822,1281.40244553464
0.347646373337759,1281.41244553464
0.328638217826004,1281.42244553464
0.309266983773587,1281.43244553464
0.289917144642736,1281.44244553464
0.272123394437922,1281.45244553464
0.25493607027559,1281.46244553464
0.238284256689748,1281.47244553464
0.221484535079299,1281.48244553464
0.204276951279304,1281.49244553464
0.186874948330284,1281.50244553464
0.169933200586193,1281.51244553464
0.153759249655717,1281.52244553464
0.138464473350395,1281.53244553464
0.124122410871045,1281.54244553464
0.110573776365651,1281.55244553464
0.0972628394733008,1281.56244553464
0.0841577124582603,1281.57244553464
0.0715912221883264,1281.58244553464
0.0588881562873199,1281.59244553464
0.0470221084533854,1281.60244553464
0.0350899170754552,1281.61244553464
0.0234256858682768,1281.62244553464
0.012153987255636,1281.63244553464
0.00068192584511755,1281.64244553464
-0.0102184954835857,1281.65244553464
-0.0207941833022331,1281.66244553464
-0.0308801057439066,1281.67244553464
-0.0410301273508662,1281.68244553464
-0.0511185491936783,1281.69244553464
-0.0615298907050752,1281.70244553464
-0.0723833817497294,1281.71244553464
-0.0832937069799387,1281.72244553464
-0.0948130183909028,1281.73244553464
-0.106421382131056,1281.74244553464
-0.118271409600374,1281.75244553464
-0.130934533505713,1281.76244553464
-0.143378423763561,1281.77244553464
-0.155183834335598,1281.78244553464
-0.166445122662582,1281.79244553464
-0.176792606298654,1281.80244553464
-0.186993320885072,1281.81244553464
-0.197310061930702,1281.82244553464
-0.20771679078291,1281.83244553464
-0.218388680598643,1281.84244553464
-0.22890068487942,1281.85244553464
-0.23866648826404,1281.86244553464
-0.247762293960186,1281.87244553464
-0.256052673330261,1281.88244553464
-0.263106786158635,1281.89244553464
-0.270357461291173,1281.90244553464
-0.27827351025253,1281.91244553464
-0.28685258798532,1281.92244553464
-0.295451748361774,1281.93244553464
-0.303471127297574,1281.94244553464
-0.311254994781167,1281.95244553464
-0.319050511831358,1281.96244553464
-0.327507354928694,1281.97244553464
-0.336626096731728,1281.98244553464
-0.345073309536311,1281.99244553464
-0.350616337701054,1282.00244553464
-0.348583905521402,1282.01244553464
-0.332689269424176,1282.02244553464
-0.295625238907311,1282.03244553464
-0.229324813147038,1282.04244553464
-0.131501950693755,1282.05244553464
-0.00517866095584634,1282.06244553464
0.136125963273713,1282.07244553464
0.279926005319991,1282.08244553464
0.415223764641335,1282.09244553464
0.533208342790495,1282.10244553464
0.630733828690816,1282.11244553464
0.705812424085122,1282.12244553464
0.759978121806196,1282.13244553464
0.795048698294718,1282.14244553464
0.812628211823008,1282.15244553464
0.815483653744218,1282.16244553464
0.806055476377772,1282.17244553464
0.78736552020812,1282.18244553464
0.762027043975831,1282.19244553464
0.732832873717864,1282.20244553464
0.701200175415896,1282.21244553464
0.669260230812674,1282.22244553464
0.638430731054992,1282.23244553464
0.609343125840247,1282.24244553464
0.583001059403567,1282.25244553464
0.559442743218762,1282.26244553464
0.537933450775518,1282.27244553464
0.518166406920575,1282.28244553464
0.499818745687918,1282.29244553464
0.481902992674469,1282.30244553464
0.463400841298929,1282.31244553464
0.444061274823577,1282.32244553464
0.423976901311457,1282.33244553464
0.403187335591778,1282.34244553464
0.38337549574016,1282.35244553464
0.36550413070725,1282.36244553464
0.351521127860228,1282.37244553464
0.34248205979427,1282.38244553464
0.339685508153052,1282.39244553464
0.342951398946345,1282.40244553464
0.351829940960906,1282.41244553464
0.364994414583556,1282.42244553464
0.381314068357589,1282.43244553464
0.399088980261004,1282.44244553464
0.416700232759356,1282.45244553464
0.432321528783457,1282.46244553464
0.444866642465429,1282.47244553464
0.453500859585083,1282.48244553464
0.457770841820461,1282.49244553464
0.457713739757932,1282.50244553464
0.453014940923284,1282.51244553464
0.445013068260005,1282.52244553464
0.433387135914263,1282.53244553464
0.419159757480345,1282.54244553464
0.403190066146885,1282.55244553464
0.38538147650828,1282.56244553464
0.367063502837006,1282.57244553464
0.347937945269369,1282.58244553464
0.328676771106632,1282.59244553464
0.310163757351134,1282.60244553464
0.291221883305736,1282.61244553464
0.272863091782046,1282.62244553464
0.254808172849183,1282.63244553464
0.236940027992684,1282.64244553464
0.219435329274432,1282.65244553464
0.202337115587461,1282.66244553464
0.185432866067055,1282.67244553464
0.168680647381652,1282.68244553464
0.151764770687632,1282.69244553464
0.135483509279786,1282.70244553464
0.120008510937192,1282.71244553464
0.104956356613243,1282.72244553464
0.0900002807678109,1282.73244553464
0.0751893521996614,1282.74244553464
0.0606810010971486,1282.75244553464
0.0472038552227814,1282.76244553464
0.0340874329918362,1282.77244553464
0.0223058986487299,1282.78244553464
0.0114444269461537,1282.79244553464
0.000481314141455887,1282.80244553464
-0.0113195361863995,1282.81244553464
-0.0238429278715846,1282.82244553464
-0.0364188703449643,1282.83244553464
-0.0490278276288297,1282.84244553464
-0.0614865700351948,1282.85244553464
-0.0735635282511498,1282.86244553464
-0.0854704728400622,1282.87244553464
-0.0970374896436165,1282.88244553464
-0.107615455196052,1282.89244553464
-0.118355498283003,1282.90244553464
-0.129066454652478,1282.91244553464
-0.139716439380854,1282.92244553464
-0.151275389988664,1282.93244553464
-0.162757141479888,1282.94244553464
-0.174739723979638,1282.95244553464
-0.186230880636163,1282.96244553464
-0.197308711854847,1282.97244553464
-0.207994335466206,1282.98244553464
-0.218159446654068,1282.99244553464
-0.228693130951781,1283.00244553464
-0.238859286793084,1283.01244553464
-0.249433534654213,1283.02244553464
-0.260743891824554,1283.03244553464
-0.272803678737346,1283.04244553464
-0.284468029768549,1283.05244553464
-0.295489075613332,1283.06244553464
-0.305873404026192,1283.07244553464
-0.315179218053203,1283.08244553464
-0.323645046863406,1283.09244553464
-0.331792561523019,1283.10244553464
-0.339781187121873,1283.11244553464
-0.348002432524901,1283.12244553464
-0.356570436660754,1283.13244553464
-0.365051943543025,1283.14244553464
-0.373540437606314,1283.15244553464
-0.382106742672598,1283.16244553464
-0.39108275856421,1283.17244553464
-0.400160830112118,1283.18244553464
-0.408328100147532,1283.19244553464
-0.411950323301773,1283.20244553464
-0.405857364314912,1283.21244553464
-0.383738575821787,1283.22244553464
-0.338210826415448,1283.23244553464
-0.262098704615296,1283.24244553464
-0.153772242357605,1283.25244553464
-0.0188006096162381,1283.26244553464
0.129905017226818,1283.27244553464
0.278550883848719,1283.28244553464
0.416511977340831,1283.29244553464
0.535860574701093,1283.30244553464
0.633306117930542,1283.31244553464
0.707648237995768,1283.32244553464
0.760837855141458,1283.33244553464
0.795128572233794,1283.34244553464
0.813264289333031,1283.35244553464
0.817239855212426,1283.36244553464
0.809311746801432,1283.37244553464
0.792650615827277,1283.38244553464
0.768947810122259,1283.39244553464
0.740717639426613,1283.40244553464
0.710253011765062,1283.41244553464
0.679062811908501,1283.42244553464
0.649255114215171,1283.43244553464
0.62073106860036,1283.44244553464
0.594456613960193,1283.45244553464
0.570862900644769,1283.46244553464
0.549928294462004,1283.47244553464
0.530959741536774,1283.48244553464
0.514172995772024,1283.49244553464
0.498168770404083,1283.50244553464
0.48196321514925,1283.51244553464
0.464477341991537,1283.52244553464
0.446096872715485,1283.53244553464
0.426814762474862,1283.54244553464
0.408226995348966,1283.55244553464
0.390266230585028,1283.56244553464
0.375531586111543,1283.57244553464
0.364637425362612,1283.58244553464
0.358962800397032,1283.59244553464
0.358113074086558,1283.60244553464
0.362262735484872,1283.61244553464
0.371553265162043,1283.62244553464
0.384447938782047,1283.63244553464
0.399431593080986,1283.64244553464
0.41514484624916,1283.65244553464
0.429967554333962,1283.66244553464
0.443211396504516,1283.67244553464
0.453471804838641,1283.68244553464
0.459817247191096,1283.69244553464
0.462113174906683,1283.70244553464
0.459925691346703,1283.71244553464
0.453273728766745,1283.72244553464
0.443289175959349,1283.73244553464
0.430285583918902,1283.74244553464
0.414852970996931,1283.75244553464
0.397771817973196,1283.76244553464
0.379555040855028,1283.77244553464
0.360246362025696,1283.78244553464
0.340667461380275,1283.79244553464
0.321324099031578,1283.80244553464
0.302132123714117,1283.81244553464
0.282857774116169,1283.82244553464
0.264225296276072,1283.83244553464
0.245636746561601,1283.84244553464
0.22667324634137,1283.85244553464
0.208054061502067,1283.86244553464
0.189913116454654,1283.87244553464
0.172866642626855,1283.88244553464
0.156181183807231,1283.89244553464
0.140151649610283,1283.90244553464
0.124829073097489,1283.91244553464
0.109687261943036,1283.92244553464
0.094593921700265,1283.93244553464
0.0803358441040176,1283.94244553464
0.0662408614320859,1283.95244553464
0.0526590391818253,1283.96244553464
0.0391572725886706,1283.97244553464
0.0264951248062672,1283.98244553464
0.0139313110760442,1283.99244553464
0.00168813688045959,1284.00244553464
-0.0098167426664739,1284.01244553464
-0.0217146809643464,1284.02244553464
-0.033193150947692,1284.03244553464
-0.044700926353001,1284.04244553464
-0.0566598923651635,1284.05244553464
-0.0687989654220748,1284.06244553464
-0.0806168195251769,1284.07244553464
-0.0927885045491642,1284.08244553464
-0.104805303048392,1284.09244553464
-0.116577351291067,1284.10244553464
-0.128506049725437,1284.11244553464
-0.140255163018093,1284.12244553464
-0.152455312095163,1284.13244553464
-0.164171765254247,1284.14244553464
-0.175439663230498,1284.15244553464
-0.186989896873885,1284.16244553464
-0.197911852482789,1284.17244553464
-0.209045307427319,1284.18244553464
-0.220258269050058,1284.19244553464
-0.231534570428016,1284.20244553464
-0.243281662374087,1284.21244553464
-0.254990923939314,1284.22244553464
-0.267008051322172,1284.23244553464
-0.279130440153174,1284.24244553464
-0.290514514199481,1284.25244553464
-0.302006407828185,1284.26244553464
-0.312959285473719,1284.27244553464
-0.323267924665,1284.28244553464
-0.332972974513779,1284.29244553464
-0.341878923157673,1284.30244553464
-0.35001223570527,1284.31244553464
-0.35805342423943,1284.32244553464
-0.366329897170474,1284.33244553464
-0.374888498391418,1284.34244553464
-0.383163686154086,1284.35244553464
-0.391821484047173,1284.36244553464
-0.400322399811344,1284.37244553464
-0.409280556125948,1284.38244553464
-0.41894952908931,1284.39244553464
-0.427531078089677,1284.40244553464
-0.432477493179966,1284.41244553464
-0.428765013874255,1284.42244553464
-0.409830819639603,1284.43244553464
-0.369985425197576,1284.44244553464
-0.302598856169192,1284.45244553464
-0.203686113060517,1284.46244553464
-0.0763264205427786,1284.47244553464
0.0689218351575125,1284.48244553464
0.218425111580483,1284.49244553464
0.360113582144789,1284.50244553464
0.485207129527136,1284.51244553464
0.588700503687102,1284.52244553464
0.669869484004686,1284.53244553464
0.729928919655704,1284.54244553464
0.77018059273626,1284.55244553464
0.793461820372898,1284.56244553464
0.801442335235037,1284.57244553464
0.796983602571849,1284.58244553464
0.782354177787229,1284.59244553464
0.760161408752504,1284.60244553464
0.732155731542808,1284.61244553464
0.701316043351768,1284.62244553464
0.669768506124004,1284.63244553464
0.638831837286061,1284.64244553464
0.609738049240478,1284.65244553464
0.583421637433399,1284.66244553464
0.559802830730176,1284.67244553464
0.53817859391312,1284.68244553464
0.518585262581702,1284.69244553464
0.500324368142075,1284.70244553464
0.482252669012823,1284.71244553464
0.464003308677386,1284.72244553464
0.444855907035016,1284.73244553464
0.424471559836025,1284.74244553464
0.403326618230489,1284.75244553464
0.382319241140366,1284.76244553464
0.363176753545983,1284.77244553464
0.347962224758053,1284.78244553464
0.337316184628035,1284.79244553464
0.332446706063108,1284.80244553464
0.333292628371374,1284.81244553464
0.339567383248002,1284.82244553464
0.350456753085009,1284.83244553464
0.36468771436171,1284.84244553464
0.380522197106915,1284.85244553464
0.396719328270546,1284.86244553464
0.411947464988562,1284.87244553464
0.425538429454797,1284.88244553464
0.436587694229078,1284.89244553464
0.443516195927068,1284.90244553464
0.446586993963938,1284.91244553464
0.444952340011985,1284.92244553464
0.438889549644455,1284.93244553464
0.428915043525325,1284.94244553464
0.415681482020966,1284.95244553464
0.400028538417963,1284.96244553464
0.38235806560291,1284.97244553464
0.36399895227124,1284.98244553464
0.345443764348696,1284.99244553464
0.326652538448476,1285.00244553464
0.307398560606378,1285.01244553464
0.288465963581676,1285.02244553464
0.269101083888674,1285.03244553464
0.249965812343554,1285.04244553464
0.230557792156673,1285.05244553464
0.211027038631094,1285.06244553464
0.192128424967303,1285.07244553464
0.173596911815371,1285.08244553464
0.155072499299185,1285.09244553464
0.136920055199363,1285.10244553464
0.119417346934237,1285.11244553464
0.102722097485943,1285.12244553464
0.0875928117248051,1285.13244553464
0.0736279443531227,1285.14244553464
0.0600709468114404,1285.15244553464
0.0471351111269355,1285.16244553464
0.0343907565026078,1285.17244553464
0.0215258700134652,1285.18244553464
0.00869366522902545,1285.19244553464
-0.00383873822677835,1285.20244553464
-0.0161809061535065,1285.21244553464
-0.0282638163712628,1285.22244553464
-0.0404994625609598,1285.23244553464
-0.0526263824163473,1285.24244553464
-0.0644582955284037,1285.25244553464
-0.076178615197426,1285.26244553464
-0.0881847022996785,1285.27244553464
-0.0999460850679997,1285.28244553464
-0.111677942006016,1285.29244553464
-0.123578680278969,1285.30244553464
-0.135360846760216,1285.31244553464
-0.147311182860296,1285.32244553464
-0.15949359422923,1285.33244553464
-0.17184507469527,1285.34244553464
-0.184528526829357,1285.35244553464
-0.197677731503442,1285.36244553464
-0.21062603132554,1285.37244553464
-0.223036003645408,1285.38244553464
-0.234856036669496,1285.39244553464
-0.246068766667463,1285.40244553464
-0.257131556995595,1285.41244553464
-0.268266304472323,1285.42244553464
-0.279244601661142,1285.43244553464
-0.290393602375534,1285.44244553464
-0.301330908566213,1285.45244553464
-0.312529514344241,1285.46244553464
-0.32340291517563,1285.47244553464
-0.334343170619179,1285.48244553464
-0.344938451325393,1285.49244553464
-0.354903603397072,1285.50244553464
-0.364361140090605,1285.51244553464
-0.372892079425488,1285.52244553464
-0.381143394978775,1285.53244553464
-0.389060040232901,1285.54244553464
-0.397155361009812,1285.55244553464
-0.405214873481356,1285.56244553464
-0.414168645141456,1285.57244553464
-0.423104167674318,1285.58244553464
-0.43318558065626,1285.59244553464
-0.44337169147056,1285.60244553464
-0.452646417303617,1285.61244553464
-0.458745055429318,1285.62244553464
-0.458071947831553,1285.63244553464
-0.444398655646792,1285.64244553464
-0.411237623475163,1285.65244553464
-0.352404799276422,1285.66244553464
-0.264004482775834,1285.67244553464
-0.14599910845626,1285.68244553464
-0.00706343608047059,1285.69244553464
0.139526288203031,1285.70244553464
0.281572497243065,1285.71244553464
0.408468128493841,1285.72244553464
0.515210380576262,1285.73244553464
0.6004430934303,1285.74244553464
0.663591682570321,1285.75244553464
0.707154875925533,1285.76244553464
0.732561625345215,1285.77244553464
0.742846679272771,1285.78244553464
0.739746580577591,1285.79244553464
0.725763498438574,1285.80244553464
0.704106618537756,1285.81244553464
0.676158837209016,1285.82244553464
0.644765271007565,1285.83244553464
0.611344894531272,1285.84244553464
0.578107559683468,1285.85244553464
0.546811560131356,1285.86244553464
0.51753411947448,1285.87244553464
0.491065827193258,1285.88244553464
0.467009195737847,1285.89244553464
0.444536578346755,1285.90244553464
0.423384242510137,1285.91244553464
0.402419646897278,1285.92244553464
0.380611426911026,1285.93244553464
0.358142226079378,1285.94244553464
0.335166905276909,1285.95244553464
0.311750759436553,1285.96244553464
0.289835677176014,1285.97244553464
0.270373590167028,1285.98244553464
0.255312395647799,1285.99244553464
0.246105378629155,1286.00244553464
0.24316213162328,1286.01244553464
0.246991982342804,1286.02244553464
0.256723834562432,1286.03244553464
0.271130243848118,1286.04244553464
0.289095290080259,1286.05244553464
0.308817512891465,1286.06244553464
0.329117539884885,1286.07244553464
0.347713138216816,1286.08244553464
0.363635294306232,1286.09244553464
0.375394234683702,1286.10244553464
0.38226139396822,1286.11244553464
0.38413969547421,1286.12244553464
0.381700907048027,1286.13244553464
0.374746972362649,1286.14244553464
0.364751485391887,1286.15244553464
0.352071365989063,1286.16244553464
0.337150584073554,1286.17244553464
0.320425341127746,1286.18244553464
0.30226795950242,1286.19244553464
0.283696797789905,1286.20244553464
0.264541390077741,1286.21244553464
0.244927544469882,1286.22244553464
0.224770323093926,1286.23244553464
0.204522087884193,1286.24244553464
0.184643392273687,1286.25244553464
0.164914463130842,1286.26244553464
0.145837459071746,1286.27244553464
0.126883286331586,1286.28244553464
0.109037494694408,1286.29244553464
0.0916023852750468,1286.30244553464
0.0744951065375757,1286.31244553464
0.057859105915063,1286.32244553464
0.0416828530184633,1286.33244553464
0.0261269900569094,1286.34244553464
0.0110075542022684,1286.35244553464
-0.00269676096465554,1286.36244553464
-0.0162688403051113,1286.37244553464
-0.0287966316174389,1286.38244553464
-0.0413452567843421,1286.39244553464
-0.0538725830194834,1286.40244553464
-0.0659627270007177,1286.41244553464
-0.0786226450746781,1286.42244553464
-0.0912158045998426,1286.43244553464
-0.103646679944689,1286.44244553464
-0.115578270554884,1286.45244553464
-0.126874838366338,1286.46244553464
-0.138163894369972,1286.47244553464
-0.148890278901985,1286.48244553464
-0.159957527578603,1286.49244553464
-0.171146249452011,1286.50244553464
-0.18265749273321,1286.51244553464
-0.194756270139802,1286.52244553464
-0.206976115943339,1286.53244553464
-0.219028333233862,1286.54244553464
-0.231486031343958,1286.55244553464
-0.243610226425003,1286.56244553464
-0.254988574967666,1286.57244553464
-0.26610746794951,1286.58244553464
-0.277333595349296,1286.59244553464
-0.288851487764805,1286.60244553464
-0.30034965339041,1286.61244553464
-0.3123962070274,1286.62244553464
-0.324460201822566,1286.63244553464
-0.336027599763487,1286.64244553464
-0.34682442537738,1286.65244553464
-0.356478095126297,1286.66244553464
-0.36633555448329,1286.67244553464
-0.375879711394173,1286.68244553464
-0.385165384996484,1286.69244553464
-0.394539951142888,1286.70244553464
-0.403410004362549,1286.71244553464
-0.41197140052984,1286.72244553464
-0.419907617605552,1286.73244553464
-0.428201926062184,1286.74244553464
-0.436675474999001,1286.75244553464
-0.445425480839557,1286.76244553464
-0.454739473593715,1286.77244553464
-0.464678386674109,1286.78244553464
-0.473764295747849,1286.79244553464
-0.482461604244548,1286.80244553464
-0.488690785353566,1286.81244553464
-0.487895939716984,1286.82244553464
-0.474234895224222,1286.83244553464
-0.440625260607704,1286.84244553464
-0.381161184560019,1286.85244553464
-0.291490065400893,1286.86244553464
-0.172309138143388,1286.87244553464
-0.0314039307428205,1286.88244553464
0.117884347072441,1286.89244553464
0.26285816087298,1286.90244553464
0.394227028413609,1286.91244553464
0.505971366666284,1286.92244553464
0.595359411076407,1286.93244553464
0.663430001520517,1286.94244553464
0.712121992593973,1286.95244553464
0.742694590449725,1286.96244553464
0.757696516694769,1286.97244553464
0.75954582704883,1286.98244553464
0.750351201584434,1286.99244553464
0.731931784040265,1287.00244553464
0.707544215098794,1287.01244553464
0.679365382294463,1287.02244553464
0.648946810529616,1287.03244553464
0.618706059844408,1287.04244553464
0.589055051516191,1287.05244553464
0.561980083093359,1287.06244553464
0.53675033860009,1287.07244553464
0.514510019824935,1287.08244553464
0.49487698820461,1287.09244553464
0.477578868854756,1287.10244553464
0.461656360563024,1287.11244553464
0.445379581438147,1287.12244553464
0.428027498035305,1287.13244553464
0.409380840976908,1287.14244553464
0.389606061454767,1287.15244553464
0.369589470564731,1287.16244553464
0.350638293365298,1287.17244553464
0.333809503762916,1287.18244553464
0.320655567511611,1287.19244553464
0.31200420215625,1287.20244553464
0.308508031066921,1287.21244553464
0.310287845434376,1287.22244553464
0.316895667779595,1287.23244553464
0.327460198982945,1287.24244553464
0.341419255701362,1287.25244553464
0.357063903613015,1287.26244553464
0.372653014874294,1287.27244553464
0.386578127854786,1287.28244553464
0.397757722188996,1287.29244553464
0.404773092245211,1287.30244553464
0.407760825856678,1287.31244553464
0.406871154049673,1287.32244553464
0.402126222729197,1287.33244553464
0.394145282394832,1287.34244553464
0.382550487031051,1287.35244553464
0.368018345759778,1287.36244553464
0.350828304629129,1287.37244553464
0.332449300900807,1287.38244553464
0.313663670151915,1287.39244553464
0.294304343059046,1287.40244553464
0.274894728556337,1287.41244553464
0.25606641858825,1287.42244553464
0.236956959321955,1287.43244553464
0.217475225838837,1287.44244553464
0.198256733846473,1287.45244553464
0.178979556756937,1287.46244553464
0.159732460841367,1287.47244553464
0.140687764721264,1287.48244553464
0.122171716989133,1287.49244553464
0.104067820521677,1287.50244553464
0.0868029682268115,1287.51244553464
0.0698133019205925,1287.52244553464
0.0533865918738608,1287.53244553464
0.0374532764566694,1287.54244553464
0.0222550943948381,1287.55244553464
0.00800190985583564,1287.56244553464
-0.0060051470586522,1287.57244553464
-0.0203817047848196,1287.58244553464
-0.0343974464010358,1287.59244553464
-0.0488402924055528,1287.60244553464
-0.0627056280939052,1287.61244553464
-0.0759901202475303,1287.62244553464
-0.088574619033865,1287.63244553464
-0.100128900094678,1287.64244553464
-0.111337783387326,1287.65244553464
-0.122994585132508,1287.66244553464
-0.134728649479346,1287.67244553464
-0.147166042975213,1287.68244553464
-0.15954231592343,1287.69244553464
-0.172050417223672,1287.70244553464
-0.184654635345152,1287.71244553464
-0.196236880830376,1287.72244553464
-0.208175652459136,1287.73244553464
-0.219721178881139,1287.74244553464
-0.231778652693803,1287.75244553464
-0.243954002112823,1287.76244553464
-0.255609489816561,1287.77244553464
-0.267049069331004,1287.78244553464
-0.279036919897221,1287.79244553464
-0.291037506317383,1287.80244553464
-0.303035142045079,1287.81244553464
-0.315221670476342,1287.82244553464
-0.327038427560025,1287.83244553464
-0.338553118883952,1287.84244553464
-0.350130396687034,1287.85244553464
-0.3612798519266,1287.86244553464
-0.372435295645574,1287.87244553464
-0.383564031238705,1287.88244553464
-0.394493920336272,1287.89244553464
-0.405571593589832,1287.90244553464
-0.416148446117515,1287.91244553464
-0.426871832450577,1287.92244553464
-0.437576120816882,1287.93244553464
-0.447806005178934,1287.94244553464
-0.457914735251178,1287.95244553464
-0.467598878333342,1287.96244553464
-0.477281250947312,1287.97244553464
-0.486588217925915,1287.98244553464
-0.495784139222547,1287.99244553464
-0.504646270219712,1288.00244553464
-0.51257888663242,1288.01244553464
-0.520473939066661,1288.02244553464
-0.527935046718703,1288.03244553464
-0.536047721237109,1288.04244553464
-0.544614259923522,1288.05244553464
-0.553618548535517,1288.06244553464
-0.561901570225382,1288.07244553464
-0.566286820279158,1288.08244553464
-0.561263571886161,1288.09244553464
-0.539417359321339,1288.10244553464
-0.493966651700615,1288.11244553464
-0.420712993096425,1288.12244553464
-0.317629274396756,1288.13244553464
-0.188738660596954,1288.14244553464
-0.0433604660264943,1288.15244553464
0.104799384092345,1288.16244553464
0.244450432537505,1288.17244553464
0.36773372417548,1288.18244553464
0.469779005427954,1288.19244553464
0.550609613350976,1288.20244553464
0.611341991603623,1288.21244553464
0.653302794601564,1288.22244553464
0.678837259351894,1288.23244553464
0.689438021195827,1288.24244553464
0.687054622557003,1288.25244553464
0.674703804440193,1288.26244553464
0.653584155735133,1288.27244553464
0.626532273578434,1288.28244553464
0.595418754968252,1288.29244553464
0.562318875811205,1288.30244553464
0.528858080920043,1288.31244553464
0.497010810579631,1288.32244553464
0.467461798913339,1288.33244553464
0.441161910211524,1288.34244553464
0.418130307328573,1288.35244553464
0.397416828515332,1288.36244553464
0.378447218981643,1288.37244553464
0.359974002194134,1288.38244553464
0.34140644508914,1288.39244553464
0.321694494183757,1288.40244553464
0.300378388620683,1288.41244553464
0.277497484290014,1288.42244553464
0.255003333690568,1288.43244553464
0.234337371814699,1288.44244553464
0.216933515148986,1288.45244553464
0.204814590255053,1288.46244553464
0.198546482902597,1288.47244553464
0.197884225143809,1288.48244553464
0.202975812600262,1288.49244553464
0.212944067405038,1288.50244553464
0.226635166515615,1288.51244553464
0.242529605553942,1288.52244553464
0.259010870257334,1288.53244553464
0.274649842503242,1288.54244553464
0.288831163464664,1288.55244553464
0.299808503609421,1288.56244553464
0.307287401530487,1288.57244553464
0.310881666121159,1288.58244553464
0.310357600070944,1288.59244553464
0.306012483455392,1288.60244553464
0.297790139990999,1288.61244553464
0.286362306330999,1288.62244553464
0.271960370910171,1288.63244553464
0.255877313995789,1288.64244553464
0.238182966949513,1288.65244553464
0.219423666280904,1288.66244553464
0.200868621714439,1288.67244553464
0.181391869429134,1288.68244553464
0.161610055501858,1288.69244553464
0.142052469542719,1288.70244553464
0.122680753107019,1288.71244553464
0.103412982490901,1288.72244553464
0.0844088419542048,1288.73244553464
0.0659147495181816,1288.74244553464
0.047410888715546,1288.75244553464
0.0295228378337164,1288.76244553464
0.0120804316241286,1288.77244553464
-0.00457283632585031,1288.78244553464
-0.0212502927976768,1288.79244553464
-0.0375333548602924,1288.80244553464
-0.0534909495021261,1288.81244553464
-0.0690811018325617,1288.82244553464
-0.0841000402475961,1288.83244553464
-0.0981255387507738,1288.84244553464
-0.111278491492798,1288.85244553464
-0.12455786276504,1288.86244553464
-0.136944729275922,1288.87244553464
-0.148914483842793,1288.88244553464
-0.160979391124933,1288.89244553464
-0.173255829775632,1288.90244553464
-0.185183167627668,1288.91244553464
-0.196903336385902,1288.92244553464
-0.208434505896066,1288.93244553464
-0.219838652955534,1288.94244553464
-0.231186690947383,1288.95244553464
-0.242704652024952,1288.96244553464
-0.25378574844292,1288.97244553464
-0.26502075754618,1288.98244553464
-0.275954279115018,1288.99244553464
-0.287313564454422,1289.00244553464
-0.298946611259813,1289.01244553464
-0.311248532025591,1289.02244553464
-0.323737927598212,1289.03244553464
-0.335690926202306,1289.04244553464
-0.347625049674009,1289.05244553464
-0.359230851829835,1289.06244553464
-0.370851384766547,1289.07244553464
-0.382744332717021,1289.08244553464
-0.394898297555881,1289.09244553464
-0.4064748548581,1289.10244553464
-0.417174500329081,1289.11244553464
-0.42811666742446,1289.12244553464
-0.439243345621001,1289.13244553464
-0.450414317194876,1289.14244553464
-0.461889954282083,1289.15244553464
-0.473482763210032,1289.16244553464
-0.484416921907891,1289.17244553464
-0.494871538132248,1289.18244553464
-0.504519566250606,1289.19244553464
-0.5132389940251,1289.20244553464
-0.521786465988577,1289.21244553464
-0.530232351830144,1289.22244553464
-0.538152111277515,1289.23244553464
-0.546319168660321,1289.24244553464
-0.554832746124498,1289.25244553464
-0.564218512211484,1289.26244553464
-0.574327040365686,1289.27244553464
-0.58478402939612,1289.28244553464
-0.594917284463396,1289.29244553464
-0.603896029242291,1289.30244553464
-0.60881082760905,1289.31244553464
-0.605081158317908,1289.32244553464
-0.586379348813565,1289.33244553464
-0.546049305861004,1289.34244553464
-0.479880833389729,1289.35244553464
-0.386294498190035,1289.36244553464
-0.267157845515767,1289.37244553464
-0.130290870546745,1289.38244553464
0.0117050105290405,1289.39244553464
0.146046072350842,1289.40244553464
0.264849234052629,1289.41244553464
0.362734527645805,1289.42244553464
0.439223981550646,1289.43244553464
0.495425597686083,1289.44244553464
0.533403229879981,1289.45244553464
0.555461486633906,1289.46244553464
0.563925380297469,1289.47244553464
0.560097608490802,1289.48244553464
0.546039606229701,1289.49244553464
0.52360695586786,1289.50244553464
0.495363236467339,1289.51244553464
0.463206327891122,1289.52244553464
0.42927181953912,1289.53244553464
0.394172117289854,1289.54244553464
0.359358061856127,1289.55244553464
0.325294505056399,1289.56244553464
0.293316346091305,1289.57244553464
0.263361236698853,1289.58244553464
0.23538784105408,1289.59244553464
0.208894407700083,1289.60244553464
0.182356891837871,1289.61244553464
0.155475645460683,1289.62244553464
0.12815024719804,1289.63244553464
0.100761976175814,1289.64244553464
0.0745299512627874,1289.65244553464
0.0503102679359934,1289.66244553464
0.0297730023057574,1289.67244553464
0.014308127888781,1289.68244553464
0.0049813569649583,1289.69244553464
0.00330102697881031,1289.70244553464
0.00866017067704529,1289.71244553464
0.0202671746606287,1289.72244553464
0.0376001428812815,1289.73244553464
0.0587138760538924,1289.74244553464
0.0818232899098174,1289.75244553464
0.105368851513549,1289.76244553464
0.127719880191205,1289.77244553464
0.1475437624914,1289.78244553464
0.163901919972875,1289.79244553464
0.175160907586135,1289.80244553464
0.181268849593656,1289.81244553464
0.182195833024176,1289.82244553464
0.178506819059787,1289.83244553464
0.171114422532089,1289.84244553464
0.160478687491286,1289.85244553464
0.147154319942392,1289.86244553464
0.132315687721942,1289.87244553464
0.115992176443172,1289.88244553464
0.0982928260144158,1289.89244553464
0.079396539837652,1289.90244553464
0.059349254066077,1289.91244553464
0.0391869656416606,1289.92244553464
0.0190759292252756,1289.93244553464
-0.00043472217771606,1289.94244553464
-0.0185545353749847,1289.95244553464
-0.0369468857571711,1289.96244553464
-0.0558878952662436,1289.97244553464
-0.0748090253907129,1289.98244553464
-0.0932353128358464,1289.99244553464
-0.111297912734179,1290.00244553464
-0.128663672503231,1290.01244553464
-0.145219929665307,1290.02244553464
-0.160958339967714,1290.03244553464
-0.176022513524657,1290.04244553464
-0.190130206445011,1290.05244553464
-0.202848200421183,1290.06244553464
-0.214726495366108,1290.07244553464
-0.22550215738832,1290.08244553464
-0.235533992515403,1290.09244553464
-0.244443442588763,1290.10244553464
-0.253002398921861,1290.11244553464
-0.2608925982664,1290.12244553464
-0.268681956313868,1290.13244553464
-0.276712784579343,1290.14244553464
-0.285103160614916,1290.15244553464
-0.293660346719284,1290.16244553464
-0.302790014814258,1290.17244553464
-0.312693398531332,1290.18244553464
-0.322632424565334,1290.19244553464
-0.332334911831599,1290.20244553464
-0.342296107047944,1290.21244553464
-0.352990088009744,1290.22244553464
-0.364102518004826,1290.23244553464
-0.375731073905689,1290.24244553464
-0.387704177769428,1290.25244553464
-0.399763851831533,1290.26244553464
-0.411602881311851,1290.27244553464
-0.422281888862408,1290.28244553464
-0.432224307482581,1290.29244553464
-0.441898318377616,1290.30244553464
-0.450814831238478,1290.31244553464
-0.459745269554192,1290.32244553464
-0.468658943509601,1290.33244553464
-0.477419505870149,1290.34244553464
-0.485947716212361,1290.35244553464
-0.494482364322782,1290.36244553464
-0.503107274360535,1290.37244553464
-0.511643869700213,1290.38244553464
-0.520748821619577,1290.39244553464
-0.53014144324585,1290.40244553464
-0.538140091017634,1290.41244553464
-0.541368028203546,1290.42244553464
-0.535039979182912,1290.43244553464
-0.511170242439545,1290.44244553464
-0.463967080933109,1290.45244553464
-0.38956646918864,1290.46244553464
-0.287395020284365,1290.47244553464
-0.161656103415033,1290.48244553464
-0.0226425369840424,1290.49244553464
0.117067288796478,1290.50244553464
0.247035586517627,1290.51244553464
0.359362145592616,1290.52244553464
0.451792201106046,1290.53244553464
0.5231859907515,1290.54244553464
0.575312530171853,1290.55244553464
0.610403365623579,1290.56244553464
0.630499575963395,1290.57244553464
0.637035353456466,1290.58244553464
0.631766490530965,1290.59244553464
0.616720300572043,1290.60244553464
0.593667088137581,1290.61244553464
0.565059002796701,1290.62244553464
0.532638926707501,1290.63244553464
0.498606355495423,1290.64244553464
0.464286411000655,1290.65244553464
0.430827925300566,1290.66244553464
0.399483334676829,1290.67244553464
0.370490624447162,1290.68244553464
0.343991194310791,1290.69244553464
0.319381490040899,1290.70244553464
0.295665802867879,1290.71244553464
0.27256043350964,1290.72244553464
0.249032442056998,1290.73244553464
0.224880673877057,1290.74244553464
0.200515656849683,1290.75244553464
0.176318077792388,1290.76244553464
0.154189267007905,1290.77244553464
0.136024151428952,1290.78244553464
0.12270621353063,1290.79244553464
0.115260415563841,1290.80244553464
0.113923981367552,1290.81244553464
0.118452802330245,1290.82244553464
0.128497126705518,1290.83244553464
0.142516641779828,1290.84244553464
0.160024042053719,1290.85244553464
0.178909871983278,1290.86244553464
0.198724135556376,1290.87244553464
0.216390035047891,1290.88244553464
0.23118735218675,1290.89244553464
0.242450312787253,1290.90244553464
0.248843327002247,1290.91244553464
0.250141930185001,1290.92244553464
0.24684953238368,1290.93244553464
0.238811966142854,1290.94244553464
0.227430962009358,1290.95244553464
0.213650614796483,1290.96244553464
0.1981794122144,1290.97244553464
0.181738598642298,1290.98244553464
0.164145506706413,1290.99244553464
0.145501927621924,1291.00244553464
0.126865431483463,1291.01244553464
0.107389867758574,1291.02244553464
0.0876621692932275,1291.03244553464
0.0673282600173292,1291.04244553464
0.046741924891535,1291.05244553464
0.0267789898524579,1291.06244553464
0.0077840461169298,1291.07244553464
-0.0100470272175116,1291.08244553464
-0.0273070556533317,1291.09244553464
-0.0448617725967766,1291.10244553464
-0.0612998117740326,1291.11244553464
-0.077487015657387,1291.12244553464
-0.093006197805801,1291.13244553464
-0.10758061005866,1291.14244553464
-0.121719767705188,1291.15244553464
-0.135155509093848,1291.16244553464
-0.148262219159632,1291.17244553464
-0.161223890472222,1291.18244553464
-0.17338888464462,1291.19244553464
-0.186001258743097,1291.20244553464
-0.198564306565563,1291.21244553464
-0.210903206030069,1291.22244553464
-0.22308634874445,1291.23244553464
-0.234883565546442,1291.24244553464
-0.246015330253499,1291.25244553464
-0.256290327791454,1291.26244553464
-0.265969757772761,1291.27244553464
-0.275988598163636,1291.28244553464
-0.285728723178451,1291.29244553464
-0.296057103643321,1291.30244553464
-0.306489359217938,1291.31244553464
-0.317963180506945,1291.32244553464
-0.330244795856081,1291.33244553464
-0.342848615390663,1291.34244553464
-0.355435108872824,1291.35244553464
-0.367932293285898,1291.36244553464
-0.379801107846135,1291.37244553464
-0.391521076365753,1291.38244553464
-0.403231717837062,1291.39244553464
-0.414091077121006,1291.40244553464
-0.424381154152376,1291.41244553464
-0.433821877517571,1291.42244553464
-0.442359687897732,1291.43244553464
-0.450235200324862,1291.44244553464
-0.458204004331178,1291.45244553464
-0.466559343081591,1291.46244553464
-0.475472585244006,1291.47244553464
-0.485073691113509,1291.48244553464
-0.495971822174375,1291.49244553464
-0.507229049230894,1291.50244553464
-0.518253556422531,1291.51244553464
-0.527399701666194,1291.52244553464
-0.532910499163503,1291.53244553464
-0.52946009402681,1291.54244553464
-0.511395983173895,1291.55244553464
-0.471843812042223,1291.56244553464
-0.405375481440005,1291.57244553464
-0.310894602960629,1291.58244553464
-0.18935621665707,1291.59244553464
-0.0497047573001229,1291.60244553464
0.0956343686087422,1291.61244553464
0.235042291067966,1291.62244553464
0.360298019865903,1291.63244553464
0.466689516659171,1291.64244553464
0.552978560209583,1291.65244553464
0.619798447130484,1291.66244553464
0.66874574400716,1291.67244553464
0.70109186423303,1291.68244553464
0.719675713326764,1291.69244553464
0.72587563038369,1291.70244553464
0.721372433634633,1291.71244553464
0.707631110297023,1291.72244553464
0.686942135051743,1291.73244553464
0.661497980858403,1291.74244553464
0.63321372529632,1291.75244553464
0.604375733025524,1291.76244553464
0.576385038401641,1291.77244553464
0.550515763134039,1291.78244553464
0.527128068998897,1291.79244553464
0.506408721856995,1291.80244553464
0.487689104994139,1291.81244553464
0.47086895857902,1291.82244553464
0.454689909606383,1291.83244553464
0.438585549900163,1291.84244553464
0.421496924442171,1291.85244553464
0.402613680999735,1291.86244553464
0.38167968029957,1291.87244553464
0.35950015009313,1291.88244553464
0.337893813854169,1291.89244553464
0.319246844909939,1291.90244553464
0.304188386476833,1291.91244553464
0.29346095242406,1291.92244553464
0.287528709871797,1291.93244553464
0.285657361865772,1291.94244553464
0.288432314228503,1291.95244553464
0.294953328369838,1291.96244553464
0.304141996305417,1291.97244553464
0.315461566056414,1291.98244553464
0.327188019134191,1291.99244553464
0.337964343759607,1292.00244553464
0.348055444518288,1292.01244553464
0.355370413546884,1292.02244553464
0.359767153838046,1292.03244553464
0.360908390845262,1292.04244553464
0.358313173785422,1292.05244553464
0.35186020085439,1292.06244553464
0.342210347119097,1292.07244553464
0.329112953768872,1292.08244553464
0.313777277540158,1292.09244553464
0.296279336167101,1292.10244553464
0.277744125783384,1292.11244553464
0.258492475835004,1292.12244553464
0.238339070406029,1292.13244553464
0.218102827390284,1292.14244553464
0.197452147073119,1292.15244553464
0.177080950185543,1292.16244553464
0.156615464367144,1292.17244553464
0.136046741083916,1292.18244553464
0.115536226351369,1292.19244553464
0.094896768912988,1292.20244553464
0.0749033094899308,1292.21244553464
0.055614447595341,1292.22244553464
0.0369159962073518,1292.23244553464
0.0197264758571935,1292.24244553464
0.00351886736377655,1292.25244553464
-0.011823654777126,1292.26244553464
-0.0269257230052522,1292.27244553464
-0.0411821638785793,1292.28244553464
-0.054762935791825,1292.29244553464
-0.0680429470088409,1292.30244553464
-0.0813255237709714,1292.31244553464
-0.0945638364904455,1292.32244553464
-0.107798188044334,1292.33244553464
-0.121431299392222,1292.34244553464
-0.134415894382827,1292.35244553464
-0.146627119052044,1292.36244553464
-0.158231355477909,1292.37244553464
-0.169582422816093,1292.38244553464
-0.180860727950472,1292.39244553464
-0.192110681986161,1292.40244553464
-0.203573511682403,1292.41244553464
-0.215162536747815,1292.42244553464
-0.226686258660118,1292.43244553464
-0.238830947464903,1292.44244553464
-0.250764570815527,1292.45244553464
-0.262656487920247,1292.46244553464
-0.274613558041449,1292.47244553464
-0.286359097043192,1292.48244553464
-0.298339646272749,1292.49244553464
-0.310009547745696,1292.50244553464
-0.321153193727201,1292.51244553464
-0.332354125870999,1292.52244553464
-0.343811901304736,1292.53244553464
-0.355296075908452,1292.54244553464
-0.367193551897622,1292.55244553464
-0.379073807358205,1292.56244553464
-0.390604857083694,1292.57244553464
-0.401356515223272,1292.58244553464
-0.411054832162448,1292.59244553464
-0.420247361533945,1292.60244553464
-0.429303298387751,1292.61244553464
-0.438386534237995,1292.62244553464
-0.446620982809222,1292.63244553464
-0.454822409284075,1292.64244553464
-0.463019890884591,1292.65244553464
-0.471224898659242,1292.66244553464
-0.480314569816524,1292.67244553464
-0.489693289535501,1292.68244553464
-0.499463901012581,1292.69244553464
-0.506551091241574,1292.70244553464
-0.506753751525963,1292.71244553464
-0.493391875856213,1292.72244553464
-0.459643504752706,1292.73244553464
-0.400235516316786,1292.74244553464
-0.312813885408118,1292.75244553464
-0.197914551905851,1292.76244553464
-0.0633197871293554,1292.77244553464
0.0797204175635047,1292.78244553464
0.220097153334314,1292.79244553464
0.348252431246221,1292.80244553464
0.458158105646461,1292.81244553464
0.548190530394775,1292.82244553464
0.61844999956298,1292.83244553464
0.670596312313402,1292.84244553464
0.706426429626178,1292.85244553464
0.727291202139928,1292.86244553464
0.734464427026859,1292.87244553464
0.730503367382061,1292.88244553464
0.717116641274129,1292.89244553464
0.696119570023721,1292.90244553464
0.669934898595101,1292.91244553464
0.640987135532716,1292.92244553464
0.611170302233269,1292.93244553464
0.582131874785946,1292.94244553464
0.554690258938366,1292.95244553464
0.52980432937712,1292.96244553464
0.507563925049172,1292.97244553464
0.487876257569325,1292.98244553464
0.47026329344475,1292.99244553464
0.453411767257752,1293.00244553464
0.435611831839754,1293.01244553464
0.416044193004388,1293.02244553464
0.394952134080069,1293.03244553464
0.372077096110866,1293.04244553464
0.348799695162761,1293.05244553464
0.326369119515481,1293.06244553464
0.306538422102774,1293.07244553464
0.29104542162048,1293.08244553464
0.2801590974672,1293.09244553464
0.275092906317896,1293.10244553464
0.275001297883361,1293.11244553464
0.280007051224449,1293.12244553464
0.288536918784004,1293.13244553464
0.30014961605014,1293.14244553464
0.312973820819907,1293.15244553464
0.325803354637546,1293.16244553464
0.337751951367179,1293.17244553464
0.347512511747896,1293.18244553464
0.354508558659444,1293.19244553464
0.358296930120126,1293.20244553464
0.358676075438587,1293.21244553464
0.355873727238955,1293.22244553464
0.349617863377847,1293.23244553464
0.339800857558765,1293.24244553464
0.327025646287721,1293.25244553464
0.311403185167285,1293.26244553464
0.293787471687895,1293.27244553464
0.274785235532515,1293.28244553464
0.254250009374952,1293.29244553464
0.233298556462084,1293.30244553464
0.211814721463703,1293.31244553464
0.190846139797523,1293.32244553464
0.169709998497336,1293.33244553464
0.149237346331922,1293.34244553464
0.129239034413876,1293.35244553464
0.11037044256339,1293.36244553464
0.0918651131309894,1293.37244553464
0.0738025131926489,1293.38244553464
0.0556154016662305,1293.39244553464
0.0374755058907579,1293.40244553464
0.0201387848911834,1293.41244553464
0.00305454380661032,1293.42244553464
-0.0129057622208427,1293.43244553464
-0.0284128738487941,1293.44244553464
-0.0430901902181736,1293.45244553464
-0.0569562311253287,1293.46244553464
-0.0704819872978678,1293.47244553464
-0.0833356512561444,1293.48244553464
-0.0959056975076394,1293.49244553464
-0.108111517969605,1293.50244553464
-0.119704348950897,1293.51244553464
-0.131474793688167,1293.52244553464
-0.143251525967971,1293.53244553464
-0.155190108546809,1293.54244553464
-0.16682783794268,1293.55244553464
-0.178936359522148,1293.56244553464
-0.190790945067851,1293.57244553464
-0.202385584460917,1293.58244553464
-0.213903498218294,1293.59244553464
-0.225645341373427,1293.60244553464
-0.236739749839434,1293.61244553464
-0.248437845652743,1293.62244553464
-0.260247427753021,1293.63244553464
-0.272606992909052,1293.64244553464
-0.28492423101224,1293.65244553464
-0.296686206725428,1293.66244553464
-0.308135120017354,1293.67244553464
-0.319212260791579,1293.68244553464
-0.330499349471438,1293.69244553464
-0.341805489378147,1293.70244553464
-0.353409588160051,1293.71244553464
-0.364807119950004,1293.72244553464
-0.376047036282557,1293.73244553464
-0.387027913443481,1293.74244553464
-0.397473625091918,1293.75244553464
-0.407145774341655,1293.76244553464
-0.416317078046617,1293.77244553464
-0.425635199467307,1293.78244553464
-0.43483652466801,1293.79244553464
-0.443634774065617,1293.80244553464
-0.452642906766213,1293.81244553464
-0.461314943818077,1293.82244553464
-0.47040394859254,1293.83244553464
-0.480124481877365,1293.84244553464
-0.490086961789176,1293.85244553464
-0.500659955064561,1293.86244553464
-0.51077335319714,1293.87244553464
-0.519236661020483,1293.88244553464
-0.52286428729027,1293.89244553464
-0.515653155357731,1293.90244553464
-0.491238180822968,1293.91244553464
-0.44327941463869,1293.92244553464
-0.368749798175923,1293.93244553464
-0.266693845900168,1293.94244553464
-0.141462387419668,1293.95244553464
-0.00258986726559296,1293.96244553464
0.138145602256317,1293.97244553464
0.270484378100588,1293.98244553464
0.387049315537619,1293.99244553464
0.484268805214437,1294.00244553464
0.561693596261172,1294.01244553464
0.61995927040371,1294.02244553464
0.661295670568039,1294.03244553464
0.686781637567848,1294.04244553464
0.698572220574735,1294.05244553464
0.697783272776349,1294.06244553464
0.686723711030886,1294.07244553464
0.667675570301827,1294.08244553464
0.642469750400314,1294.09244553464
0.613373967910004,1294.10244553464
0.582272791763616,1294.11244553464
0.551882789136254,1294.12244553464
0.522630730643952,1294.13244553464
0.495959039821847,1294.14244553464
0.471218083993186,1294.15244553464
0.448790315313362,1294.16244553464
0.42757557095744,1294.17244553464
0.40710265473032,1294.18244553464
0.38691254369882,1294.19244553464
0.366125070503885,1294.20244553464
0.344671677593036,1294.21244553464
0.322230118739342,1294.22244553464
0.299972780327613,1294.23244553464
0.278706390201224,1294.24244553464
0.260472852645381,1294.25244553464
0.246171519604721,1294.26244553464
0.23675034000719,1294.27244553464
0.232920529011921,1294.28244553464
0.235270170651727,1294.29244553464
0.242163342790256,1294.30244553464
0.252924557353118,1294.31244553464
0.266087981052963,1294.32244553464
0.280309680755946,1294.33244553464
0.295482409606174,1294.34244553464
0.309360301624893,1294.35244553464
0.32170809714206,1294.36244553464
0.330628618886628,1294.37244553464
0.335468991261148,1294.38244553464
0.336117985541176,1294.39244553464
0.332568533967058,1294.40244553464
0.325579303007815,1294.41244553464
0.315339387770817,1294.42244553464
0.302009724967809,1294.43244553464
0.285905312263675,1294.44244553464
0.268675741759485,1294.45244553464
0.250239872503925,1294.46244553464
0.230933145032823,1294.47244553464
0.211513880858145,1294.48244553464
0.191886671629061,1294.49244553464
0.171960128274086,1294.50244553464
0.151980983079927,1294.51244553464
0.132228331323213,1294.52244553464
0.111720827689314,1294.53244553464
0.0916929030069518,1294.54244553464
0.0719944582665232,1294.55244553464
0.0526726108696093,1294.56244553464
0.0337902263691766,1294.57244553464
0.0158520080526987,1294.58244553464
-0.00135948835229028,1294.59244553464
-0.0173765990135847,1294.60244553464
-0.0328726757821349,1294.61244553464
-0.047784428509434,1294.62244553464
-0.0621102602246098,1294.63244553464
-0.0761030411426239,1294.64244553464
-0.0889765432518347,1294.65244553464
-0.101156686067838,1294.66244553464
-0.113229805069184,1294.67244553464
-0.125188960380305,1294.68244553464
-0.137151780726007,1294.69244553464
-0.149358270052874,1294.70244553464
-0.161328846819099,1294.71244553464
-0.173659790506416,1294.72244553464
-0.185415666782524,1294.73244553464
-0.196998508143122,1294.74244553464
-0.208446242995204,1294.75244553464
-0.219447761785539,1294.76244553464
-0.230646835731753,1294.77244553464
-0.242161857374171,1294.78244553464
-0.253864414294348,1294.79244553464
-0.265477422701154,1294.80244553464
-0.27671924111176,1294.81244553464
-0.287143370810841,1294.82244553464
-0.297120854780766,1294.83244553464
-0.306667835415449,1294.84244553464
-0.316516381335009,1294.85244553464
-0.326629069886734,1294.86244553464
-0.337378574049643,1294.87244553464
-0.348516603653401,1294.88244553464
-0.359607223044828,1294.89244553464
-0.370355033689837,1294.90244553464
-0.380362868773647,1294.91244553464
-0.390383409290112,1294.92244553464
-0.399706161790475,1294.93244553464
-0.40811882847342,1294.94244553464
-0.416945558428281,1294.95244553464
-0.425078269902059,1294.96244553464
-0.433832191018536,1294.97244553464
-0.442912532017468,1294.98244553464
-0.452422373503055,1294.99244553464
-0.462948592665946,1295.00244553464
-0.474184541978998,1295.01244553464
-0.484745847355936,1295.02244553464
-0.492820761379476,1295.03244553464
-0.493312578019141,1295.04244553464
-0.480097531090941,1295.05244553464
-0.446810483276911,1295.06244553464
-0.388492259970981,1295.07244553464
-0.303088401432309,1295.08244553464
-0.191555545365854,1295.09244553464
-0.060796118913585,1295.10244553464
0.0788924097227093,1295.11244553464
0.215875169453912,1295.12244553464
0.341649617456145,1295.13244553464
0.450098388512325,1295.14244553464
0.53910198516888,1295.15244553464
0.608829991143008,1295.16244553464
0.659965429581399,1295.17244553464
0.694309928730389,1295.18244553464
0.713959829259713,1295.19244553464
0.720767239735043,1295.20244553464
0.715989566770401,1295.21244553464
0.70218121725205,1295.22244553464
0.680879031148402,1295.23244553464
0.654833590716094,1295.24244553464
0.625911420876457,1295.25244553464
0.595939453993519,1295.26244553464
0.566892095798774,1295.27244553464
0.539212130238376,1295.28244553464
0.514036962595857,1295.29244553464
0.490469103679962,1295.30244553464
0.469310761935212,1295.31244553464
0.449180311569327,1295.32244553464
0.429620753117836,1295.33244553464
0.409369282999494,1295.34244553464
0.387865176983824,1295.35244553464
0.365417491595447,1295.36244553464
0.342134622067354,1295.37244553464
0.318800192646973,1295.38244553464
0.297146031073974,1295.39244553464
0.279500637253715,1295.40244553464
0.266742267800594,1295.41244553464
0.259679981852923,1295.42244553464
0.258384212745215,1295.43244553464
0.26181175458145,1295.44244553464
0.269286932969342,1295.45244553464
0.280153160173096,1295.46244553464
0.29319517482833,1295.47244553464
0.306479680826761,1295.48244553464
0.319785603309532,1295.49244553464
0.331481226001954,1295.50244553464
0.34094411670535,1295.51244553464
0.346787819636,1295.52244553464
0.348107838944994,1295.53244553464
0.345435258118717,1295.54244553464
0.33905755329323,1295.55244553464
0.329463993813697,1295.56244553464
0.316429669307602,1295.57244553464
0.301199293214981,1295.58244553464
0.28375302598511,1295.59244553464
0.265004997731176,1295.60244553464
0.245937274119815,1295.61244553464
0.226452820407065,1295.62244553464
0.207693777322172,1295.63244553464
0.188088816956804,1295.64244553464
0.168546107757836,1295.65244553464
0.148382404962835,1295.66244553464
0.128406307463081,1295.67244553464
0.109155317956417,1295.68244553464
0.0903264533390396,1295.69244553464
0.0718042968624228,1295.70244553464
0.0535025705396302,1295.71244553464
0.0357558248300928,1295.72244553464
0.0189345106932653,1295.73244553464
0.00264675573528996,1295.74244553464
-0.0129531050906497,1295.75244553464
-0.0282435391712007,1295.76244553464
-0.0425334267145516,1295.77244553464
-0.0567409271538017,1295.78244553464
-0.0702134994780943,1295.79244553464
-0.0834568330593247,1295.80244553464
-0.0965707546339815,1295.81244553464
-0.10918709331329,1295.82244553464
-0.121601184832344,1295.83244553464
-0.133609284957159,1295.84244553464
-0.145553536932016,1295.85244553464
-0.157529936325699,1295.86244553464
-0.169867846431559,1295.87244553464
-0.182016707419568,1295.88244553464
-0.194738648026533,1295.89244553464
-0.207260164595135,1295.90244553464
-0.219127280901087,1295.91244553464
-0.230618117695844,1295.92244553464
-0.242326456467459,1295.93244553464
-0.253680816333543,1295.94244553464
-0.265387015881171,1295.95244553464
-0.277179703728657,1295.96244553464
-0.288300133122256,1295.97244553464
-0.299214125984238,1295.98244553464
-0.310000823438523,1295.99244553464
-0.321040224482329,1296.00244553464
-0.332353046172108,1296.01244553464
-0.344198879752245,1296.02244553464
-0.355790221644113,1296.03244553464
-0.367424444523755,1296.04244553464
-0.378583264065553,1296.05244553464
-0.389144257796054,1296.06244553464
-0.399940225845742,1296.07244553464
-0.410440700436115,1296.08244553464
-0.421074204346459,1296.09244553464
-0.431848115838739,1296.10244553464
-0.442543090929083,1296.11244553464
-0.452466279988862,1296.12244553464
-0.4616411806543,1296.13244553464
-0.470299136780449,1296.14244553464
-0.478195361680471,1296.15244553464
-0.485564879353055,1296.16244553464
-0.493655318192474,1296.17244553464
-0.50162819687315,1296.18244553464
-0.509851309060351,1296.19244553464
-0.518284809156892,1296.20244553464
-0.527448401552233,1296.21244553464
-0.536914003000648,1296.22244553464
-0.546321883318643,1296.23244553464
-0.553242798778148,1296.24244553464
-0.552413529335258,1296.25244553464
-0.539090294196264,1296.26244553464
-0.505744474285403,1296.27244553464
-0.448033837827498,1296.28244553464
-0.363188651968249,1296.29244553464
-0.252172074868166,1296.30244553464
-0.120233623258852,1296.31244553464
0.0219834992161482,1296.32244553464
0.162589962364912,1296.33244553464
0.292589835269142,1296.34244553464
0.405298784392192,1296.35244553464
0.498385221220574,1296.36244553464
0.571784162633654,1296.37244553464
0.626525770374009,1296.38244553464
0.663716517413218,1296.39244553464
0.68593710757405,1296.40244553464
0.694176822694612,1296.41244553464
0.690233987369444,1296.42244553464
0.676478031800699,1296.43244553464
0.654990341418231,1296.44244553464
0.627546737724529,1296.45244553464
0.596692001327299,1296.46244553464
0.564670654587606,1296.47244553464
0.532529790421552,1296.48244553464
0.502065695854575,1296.49244553464
0.474289209842077,1296.50244553464
0.449253129138975,1296.51244553464
0.426719368992645,1296.52244553464
0.406200093829386,1296.53244553464
0.386165627548314,1296.54244553464
0.365912237228073,1296.55244553464
0.345197951963419,1296.56244553464
0.323082090749544,1296.57244553464
0.300006968423144,1296.58244553464
0.277324918855,1296.59244553464
0.256337696073204,1296.60244553464
0.238330478562032,1296.61244553464
0.224668275880883,1296.62244553464
0.216336265947334,1296.63244553464
0.214436487466757,1296.64244553464
0.217761512516176,1296.65244553464
0.225893037498633,1296.66244553464
0.237885863622222,1296.67244553464
0.252359473254479,1296.68244553464
0.267552412670208,1296.69244553464
0.282545298129349,1296.70244553464
0.296398878706937,1296.71244553464
0.307511151306888,1296.72244553464
0.31540642288643,1296.73244553464
0.319029089158822,1296.74244553464
0.31847451044364,1296.75244553464
0.313093853420429,1296.76244553464
0.304511914428637,1296.77244553464
0.292862396468418,1296.78244553464
0.278615784798161,1296.79244553464
0.263329803645056,1296.80244553464
0.246145479777843,1296.81244553464
0.228011503472136,1296.82244553464
0.208839457477404,1296.83244553464
0.18893561189849,1296.84244553464
0.168901358794103,1296.85244553464
0.148890144962154,1296.86244553464
0.128886302375101,1296.87244553464
0.109361235373325,1296.88244553464
0.0906722383721053,1296.89244553464
0.0722255507728321,1296.90244553464
0.0540379851580972,1296.91244553464
0.0364912664576437,1296.92244553464
0.0182109835763444,1296.93244553464
0.00030353732107563,1296.94244553464
-0.0172005024434803,1296.95244553464
-0.034156356839955,1296.96244553464
-0.0500450939754148,1296.97244553464
-0.0647927385009453,1296.98244553464
-0.0788740493981518,1296.99244553464
-0.0916385556179864,1297.00244553464
-0.103603450645351,1297.01244553464
-0.115634406823165,1297.02244553464
-0.127138731588165,1297.03244553464
-0.138828112511649,1297.04244553464
-0.150407598037764,1297.05244553464
-0.162060605760295,1297.06244553464
-0.173520326307077,1297.07244553464
-0.185159619224515,1297.08244553464
-0.19657547942182,1297.09244553464
-0.208106887117665,1297.10244553464
-0.220041859858111,1297.11244553464
-0.231812553989578,1297.12244553464
-0.2437216204244,1297.13244553464
-0.254865148747048,1297.14244553464
-0.265894278950028,1297.15244553464
-0.276732101579043,1297.16244553464
-0.28743209049072,1297.17244553464
-0.298383320759044,1297.18244553464
-0.309339267694592,1297.19244553464
-0.320400708815397,1297.20244553464
-0.331377794103702,1297.21244553464
-0.342448664243235,1297.22244553464
-0.353627474593493,1297.23244553464
-0.364758124841031,1297.24244553464
-0.375645574665786,1297.25244553464
-0.38603721921244,1297.26244553464
-0.396588245246922,1297.27244553464
-0.407060686126729,1297.28244553464
-0.417109699734382,1297.29244553464
-0.426696290065558,1297.30244553464
-0.436030494627408,1297.31244553464
-0.445384505313578,1297.32244553464
-0.454628915014526,1297.33244553464
-0.463259545623568,1297.34244553464
-0.471022061044993,1297.35244553464
-0.478242808009715,1297.36244553464
-0.486652882417925,1297.37244553464
-0.495522749029359,1297.38244553464
-0.504915633723098,1297.39244553464
-0.514221098046219,1297.40244553464
-0.523883757047257,1297.41244553464
-0.533297064091902,1297.42244553464
-0.542537010204722,1297.43244553464
-0.549499214671921,1297.44244553464
-0.550142198746919,1297.45244553464
-0.538221383272419,1297.46244553464
-0.507037021676172,1297.47244553464
-0.450957731957972,1297.48244553464
-0.36764678220395,1297.49244553464
-0.257359710267257,1297.50244553464
-0.126035492854469,1297.51244553464
0.0163423415608605,1297.52244553464
0.157816345035424,1297.53244553464
0.289413106744276,1297.54244553464
0.403783814607438,1297.55244553464
0.498286317222536,1297.56244553464
0.572556691785876,1297.57244553464
0.627612845103897,1297.58244553464
0.665481248403836,1297.59244553464
0.6871145386969,1297.60244553464
0.695148444085822,1297.61244553464
0.690787181503401,1297.62244553464
0.677136478340994,1297.63244553464
0.655522003813269,1297.64244553464
0.628141544283697,1297.65244553464
0.597866527920721,1297.66244553464
0.566104579265442,1297.67244553464
0.534853600538292,1297.68244553464
0.504920604708905,1297.69244553464
0.477179677726383,1297.70244553464
0.452285846867228,1297.71244553464
0.428886297738446,1297.72244553464
0.407589151890006,1297.73244553464
0.387063274597323,1297.74244553464
0.366126167319098,1297.75244553464
0.344901136412889,1297.76244553464
0.322436618921851,1297.77244553464
0.298513486794386,1297.78244553464
0.27525094939869,1297.79244553464
0.253112178823641,1297.80244553464
0.234585121365369,1297.81244553464
0.220791242590996,1297.82244553464
0.212713860742254,1297.83244553464
0.210973218837533,1297.84244553464
0.215096445661407,1297.85244553464
0.223862918946419,1297.86244553464
0.236601801115138,1297.87244553464
0.251148892211482,1297.88244553464
0.265917721858689,1297.89244553464
0.280401251693589,1297.90244553464
0.293571526073715,1297.91244553464
0.304220961083961,1297.92244553464
0.31184230820633,1297.93244553464
0.316034204172425,1297.94244553464
0.315745269610306,1297.95244553464
0.312016714039233,1297.96244553464
0.303670765430768,1297.97244553464
0.292418394087977,1297.98244553464
0.277805157871446,1297.99244553464
0.261064799595485,1298.00244553464
0.242950166749962,1298.01244553464
0.223629121359232,1298.02244553464
0.203519649275742,1298.03244553464
0.183035694081529,1298.04244553464
0.162437953182388,1298.05244553464
0.142388575537438,1298.06244553464
0.122689772251556,1298.07244553464
0.103172396478484,1298.08244553464
0.0842226241517032,1298.09244553464
0.0656567363650657,1298.10244553464
0.0473116000580006,1298.11244553464
0.0292356633679215,1298.12244553464
0.0118168129198619,1298.13244553464
-0.00501721793530209,1298.14244553464
-0.0209621894547978,1298.15244553464
-0.0365719820836659,1298.16244553464
-0.0513844959243997,1298.17244553464
-0.0659522224815896,1298.18244553464
-0.0800028103484373,1298.19244553464
-0.0935779021746736,1298.20244553464
-0.107194682762365,1298.21244553464
-0.119848961076478,1298.22244553464
-0.131758813647614,1298.23244553464
-0.143403844542731,1298.24244553464
-0.154602036932627,1298.25244553464
-0.166114671363435,1298.26244553464
-0.17695585482743,1298.27244553464
-0.188473939653926,1298.28244553464
-0.199928196398112,1298.29244553464
-0.211453214285487,1298.30244553464
-0.223418659114369,1298.31244553464
-0.235215713354181,1298.32244553464
-0.246756940518127,1298.33244553464
-0.258240968368745,1298.34244553464
-0.269834454332652,1298.35244553464
-0.280754528444325,1298.36244553464
-0.291965366297976,1298.37244553464
-0.303475904443553,1298.38244553464
-0.314185376653214,1298.39244553464
-0.324978279145507,1298.40244553464
-0.335699095407748,1298.41244553464
-0.346682317289125,1298.42244553464
-0.357725550439924,1298.43244553464
-0.368991987152937,1298.44244553464
-0.37981688659526,1298.45244553464
-0.390387331465771,1298.46244553464
-0.400667903385838,1298.47244553464
-0.410006933627235,1298.48244553464
-0.419613192800653,1298.49244553464
-0.427909540245587,1298.50244553464
-0.436483574405988,1298.51244553464
-0.444820386400249,1298.52244553464
-0.453224621516503,1298.53244553464
-0.461870394099104,1298.54244553464
-0.470284749855319,1298.55244553464
-0.478625028192468,1298.56244553464
-0.487536274196863,1298.57244553464
-0.497221413793055,1298.58244553464
-0.507266662895362,1298.59244553464
-0.516764286673079,1298.60244553464
-0.523601596094332,1298.61244553464
-0.52481155675869,1298.62244553464
-0.513831738403769,1298.63244553464
-0.483239424597448,1298.64244553464
-0.428388010812539,1298.65244553464
-0.345853114826659,1298.66244553464
-0.23695734122157,1298.67244553464
-0.106391425209661,1298.68244553464
0.034938966281282,1298.69244553464
0.176173550109362,1298.70244553464
0.307509341203914,1298.71244553464
0.4214760262071,1298.72244553464
0.515450075166123,1298.73244553464
0.588104449171082,1298.74244553464
0.641806026372488,1298.75244553464
0.677934010499206,1298.76244553464
0.698196843068853,1298.77244553464
0.70491623638176,1298.78244553464
0.700034303907416,1298.79244553464
0.684566023203209,1298.80244553464
0.661439379911375,1298.81244553464
0.632655088276836,1298.82244553464
0.600603604660631,1298.83244553464
0.567420960780135,1298.84244553464
0.534815190159772,1298.85244553464
0.504001234141617,1298.86244553464
0.475264609743006,1298.87244553464
0.449224247044483,1298.88244553464
0.425142260587164,1298.89244553464
0.402771865293478,1298.90244553464
0.381276345875601,1298.91244553464
0.35965561832432,1298.92244553464
0.336953354160622,1298.93244553464
0.313445399055235,1298.94244553464
0.289497934289419,1298.95244553464
0.266686999175325,1298.96244553464
0.246274514386467,1298.97244553464
0.229345152674827,1298.98244553464
0.218629506674401,1298.99244553464
0.213732315819957,1299.00244553464
0.215726291458793,1299.01244553464
0.223374368204787,1299.02244553464
0.235412359860781,1299.03244553464
0.250616835887005,1299.04244553464
0.267232239511892,1299.05244553464
0.284120489468025,1299.06244553464
0.300380078457796,1299.07244553464
0.314974435815202,1299.08244553464
0.326410051873466,1299.09244553464
0.334468934677062,1299.10244553464
0.338256151503981,1299.11244553464
0.337192331040378,1299.12244553464
0.332438994051292,1299.13244553464
0.323196443301083,1299.14244553464
0.310559050514584,1299.15244553464
0.295550639697316,1299.16244553464
0.278924876080808,1299.17244553464
0.260944731774287,1299.18244553464
0.241938895744546,1299.19244553464
0.222074333066301,1299.20244553464
