PPG,time
0.00756888257863851,1215.69662006892
0.0105726126656112,1215.70662006892
0.00283050883784377,1215.71662006892
-0.00117686814075616,1215.72662006892
-0.00693412664179505,1215.73662006892
-0.0113945557573644,1215.74662006892
-0.0163956527157326,1215.75662006892
-0.0209854599196528,1215.76662006892
-0.0246004091113085,1215.77662006892
-0.0259583045351925,1215.78662006892
-0.024409674423161,1215.79662006892
-0.0189663556095567,1215.80662006892
-0.0101735439269155,1215.81662006892
0.00152676220473108,1215.82662006892
0.0153015554698916,1215.83662006892
0.0303816832899513,1215.84662006892
0.0465353197762629,1215.85662006892
0.0624433601714534,1215.86662006892
0.0768945710300174,1215.87662006892
0.0899888497208842,1215.88662006892
0.101455232495242,1215.89662006892
0.11002633659476,1215.90662006892
0.116433100709488,1215.91662006892
0.12110959944617,1215.92662006892
0.123938567696765,1215.93662006892
0.125797138515909,1215.94662006892
0.127530827504823,1215.95662006892
0.128858468878915,1215.96662006892
0.13042042047616,1215.97662006892
0.131615704994662,1215.98662006892
0.132938800591634,1215.99662006892
0.134338431099966,1216.00662006892
0.135533757070486,1216.01662006892
0.136267817702683,1216.02662006892
0.137090278313852,1216.03662006892
0.137546263750642,1216.04662006892
0.137138098892905,1216.05662006892
0.136105940363064,1216.06662006892
0.134995115207452,1216.07662006892
0.133320318423089,1216.08662006892
0.131828595118548,1216.09662006892
0.130409579943602,1216.10662006892
0.129605939521008,1216.11662006892
0.129012743921014,1216.12662006892
0.12888537237992,1216.13662006892
0.128869156443144,1216.14662006892
0.12845725401837,1216.15662006892
0.128172487187322,1216.16662006892
0.127830605517141,1216.17662006892
0.127638886013994,1216.18662006892
0.127723180136598,1216.19662006892
0.127518356278587,1216.20662006892
0.126630386745652,1216.21662006892
0.125519962909258,1216.22662006892
0.123662144893242,1216.23662006892
0.121631047009597,1216.24662006892
0.118749572244126,1216.25662006892
0.115428097502101,1216.26662006892
0.112236149688827,1216.27662006892
0.109421442527608,1216.28662006892
0.106126916405346,1216.29662006892
0.102950418247109,1216.30662006892
0.100271709785097,1216.31662006892
0.0974315224814303,1216.32662006892
0.0941169206606723,1216.33662006892
0.0906613684378871,1216.34662006892
0.0861588213309568,1216.35662006892
0.0812089504644225,1216.36662006892
0.0763320250889439,1216.37662006892
0.0715718961740937,1216.38662006892
0.0670759182625771,1216.39662006892
0.0631636210087798,1216.40662006892
0.0587901708071228,1216.41662006892
0.0541786899514318,1216.42662006892
0.0487811343270528,1216.43662006892
0.0433122526765658,1216.44662006892
0.0375623348010053,1216.45662006892
0.0318531140671216,1216.46662006892
0.0264161886113606,1216.47662006892
0.0212175059060438,1216.48662006892
0.0160943404822209,1216.49662006892
0.0113571137804804,1216.50662006892
0.006427428107937,1216.51662006892
0.00182982973634643,1216.52662006892
-0.00256469326397497,1216.53662006892
-0.0069287188942301,1216.54662006892
-0.0116985927876107,1216.55662006892
-0.0162583289087958,1216.56662006892
-0.021089839519869,1216.57662006892
-0.0251662461657464,1216.58662006892
-0.0282952543947156,1216.59662006892
-0.0296882484867743,1216.60662006892
-0.02884081561516,1216.61662006892
-0.0246886968881778,1216.62662006892
-0.0166366005178008,1216.63662006892
-0.00535937638190881,1216.64662006892
0.00859610491569773,1216.65662006892
0.0249663016832873,1216.66662006892
0.0426345919010975,1216.67662006892
0.0602825735025472,1216.68662006892
0.0776028893621108,1216.69662006892
0.0933296556609286,1216.70662006892
0.106870209191215,1216.71662006892
0.117617119232903,1216.72662006892
0.125619178818307,1216.73662006892
0.131156897663965,1216.74662006892
0.135223950710242,1216.75662006892
0.137853615776418,1216.76662006892
0.140184003311721,1216.77662006892
0.141929519497364,1216.78662006892
0.143814766367877,1216.79662006892
0.145629314394466,1216.80662006892
0.147750289582807,1216.81662006892
0.149926126101771,1216.82662006892
0.151970826216936,1216.83662006892
0.153957838998276,1216.84662006892
0.155735386404228,1216.85662006892
0.157038528870729,1216.86662006892
0.158005575618477,1216.87662006892
0.158485289475945,1216.88662006892
0.158629114110093,1216.89662006892
0.157875063006126,1216.90662006892
0.156366024572249,1216.91662006892
0.154502759344483,1216.92662006892
0.152920547164188,1216.93662006892
0.151428172521665,1216.94662006892
0.150820507227952,1216.95662006892
0.15145886834158,1216.96662006892
0.152417045667732,1216.97662006892
0.153566249840766,1216.98662006892
0.154339750660107,1216.99662006892
0.154225886307494,1217.00662006892
0.153959028040711,1217.01662006892
0.15300686506838,1217.02662006892
0.151779206012965,1217.03662006892
0.150619059850204,1217.04662006892
0.149173160416962,1217.05662006892
0.147164205629078,1217.06662006892
0.144372064482873,1217.07662006892
0.140697898186941,1217.08662006892
0.137084132710042,1217.09662006892
0.132974669314359,1217.10662006892
0.129410883504169,1217.11662006892
0.125813746512761,1217.12662006892
0.121791480514881,1217.13662006892
0.117717277399369,1217.14662006892
0.113628385883097,1217.15662006892
0.110084800410307,1217.16662006892
0.107029282381711,1217.17662006892
0.103955533328088,1217.18662006892
0.100671025947585,1217.19662006892
0.0973408476358012,1217.20662006892
0.0927872436672217,1217.21662006892
0.0884685315106782,1217.22662006892
0.0834071489303693,1217.23662006892
0.0785918817106558,1217.24662006892
0.0731104570104208,1217.25662006892
0.0675125495035616,1217.26662006892
0.0623199975716704,1217.27662006892
0.0565025346207586,1217.28662006892
0.0513747820005055,1217.29662006892
0.046094140071018,1217.30662006892
0.041139543160105,1217.31662006892
0.0356246807104891,1217.32662006892
0.0301178641241411,1217.33662006892
0.0245985692949757,1217.34662006892
0.0189615682836889,1217.35662006892
0.0133011929206861,1217.36662006892
0.00806190384075921,1217.37662006892
0.00326668123601004,1217.38662006892
-0.00147897438053655,1217.39662006892
-0.00614355381824897,1217.40662006892
-0.0109171873462554,1217.41662006892
-0.0158881791730165,1217.42662006892
-0.0213067248654333,1217.43662006892
-0.0263742877898401,1217.44662006892
-0.0310414805163494,1217.45662006892
-0.0346611426537508,1217.46662006892
-0.0358958307514735,1217.47662006892
-0.0334185550456239,1217.48662006892
-0.0269781232466911,1217.49662006892
-0.0165545725383971,1217.50662006892
-0.00286498886650372,1217.51662006892
0.0133020013312012,1217.52662006892
0.0308138572217821,1217.53662006892
0.0492634475463553,1217.54662006892
0.0677257898712349,1217.55662006892
0.0851879454887199,1217.56662006892
0.101286261432704,1217.57662006892
0.115394289254783,1217.58662006892
0.126765486978482,1217.59662006892
0.135570092449328,1217.60662006892
0.142476308629262,1217.61662006892
0.147803288108348,1217.62662006892
0.151490524053737,1217.63662006892
0.155194908493181,1217.64662006892
0.158518165658296,1217.65662006892
0.161315564296048,1217.66662006892
0.164389851959032,1217.67662006892
0.16700368436847,1217.68662006892
0.1689611756991,1217.69662006892
0.170944802608177,1217.70662006892
0.172909012294109,1217.71662006892
0.174495282664584,1217.72662006892
0.176045263175943,1217.73662006892
0.177152970222674,1217.74662006892
0.177189329987863,1217.75662006892
0.176744146767651,1217.76662006892
0.176221960739097,1217.77662006892
0.175344721491754,1217.78662006892
0.174898183014539,1217.79662006892
0.174195465496326,1217.80662006892
0.173619731656514,1217.81662006892
0.173994021614732,1217.82662006892
0.174485381082568,1217.83662006892
0.175268847116677,1217.84662006892
0.176119456400185,1217.85662006892
0.177312464380877,1217.86662006892
0.177897141780263,1217.87662006892
0.178046260533126,1217.88662006892
0.178343035070988,1217.89662006892
0.178406261486723,1217.90662006892
0.178722763044993,1217.91662006892
0.17829566894311,1217.92662006892
0.177712196375226,1217.93662006892
0.176640298134391,1217.94662006892
0.174675172104179,1217.95662006892
0.172231843512815,1217.96662006892
0.169187844166771,1217.97662006892
0.165820426703356,1217.98662006892
0.162274636966002,1217.99662006892
0.159096233471267,1218.00662006892
0.156359495804872,1218.01662006892
0.153367516658177,1218.02662006892
0.150571773636421,1218.03662006892
0.14660633131139,1218.04662006892
0.142757353482684,1218.05662006892
0.13831950334577,1218.06662006892
0.133324169033597,1218.07662006892
0.128477045966437,1218.08662006892
0.123783701332936,1218.09662006892
0.119336489304055,1218.10662006892
0.115184952070886,1218.11662006892
0.111490115437646,1218.12662006892
0.107271943258274,1218.13662006892
0.102715260793606,1218.14662006892
0.0976230352564165,1218.15662006892
0.0923126897412796,1218.16662006892
0.0873401924167257,1218.17662006892
0.0825358242672607,1218.18662006892
0.0781005581397152,1218.19662006892
0.0744663521143924,1218.20662006892
0.0706964179133378,1218.21662006892
0.0668425309989188,1218.22662006892
0.0625791126437877,1218.23662006892
0.0572825294027343,1218.24662006892
0.0521208219066051,1218.25662006892
0.0479321904972009,1218.26662006892
0.0450420038631143,1218.27662006892
0.0440152325330914,1218.28662006892
0.046122463762787,1218.29662006892
0.0518494171141126,1218.30662006892
0.0615335566774371,1218.31662006892
0.0754139555323621,1218.32662006892
0.0923195223780964,1218.33662006892
0.110981719383335,1218.34662006892
0.130363808367331,1218.35662006892
0.148629465480074,1218.36662006892
0.166514828291941,1218.37662006892
0.18235233460184,1218.38662006892
0.196091069253242,1218.39662006892
0.20754759504167,1218.40662006892
0.216905062066314,1218.41662006892
0.224064783487846,1218.42662006892
0.229021577338203,1218.43662006892
0.232490223907411,1218.44662006892
0.234930594325276,1218.45662006892
0.236526776860187,1218.46662006892
0.238082223898298,1218.47662006892
0.23959404696349,1218.48662006892
0.240806678639943,1218.49662006892
0.241970341486142,1218.50662006892
0.242847701091576,1218.51662006892
0.243347947301911,1218.52662006892
0.243792941012133,1218.53662006892
0.243373381475311,1218.54662006892
0.243124427213454,1218.55662006892
0.242379057702063,1218.56662006892
0.241526852174715,1218.57662006892
0.240920280813217,1218.58662006892
0.239897749404518,1218.59662006892
0.238474707167871,1218.60662006892
0.237485916578932,1218.61662006892
0.236422957021179,1218.62662006892
0.23565707848346,1218.63662006892
0.235423241800059,1218.64662006892
0.236092958920195,1218.65662006892
0.237807928691274,1218.66662006892
0.239864738644658,1218.67662006892
0.241972037260707,1218.68662006892
0.243320686553237,1218.69662006892
0.243279093190447,1218.70662006892
0.242222058669086,1218.71662006892
0.240957691887132,1218.72662006892
0.238540311207756,1218.73662006892
0.235774964832159,1218.74662006892
0.232424265440394,1218.75662006892
0.229279591735588,1218.76662006892
0.225581023160805,1218.77662006892
0.221785420119696,1218.78662006892
0.216968522698541,1218.79662006892
0.211868836993433,1218.80662006892
0.207117531622005,1218.81662006892
0.202365967092491,1218.82662006892
0.197277387824721,1218.83662006892
0.192013019804561,1218.84662006892
0.186592583140115,1218.85662006892
0.181159115960565,1218.86662006892
0.175523356735424,1218.87662006892
0.170395908176474,1218.88662006892
0.16481376644873,1218.89662006892
0.159418742025741,1218.90662006892
0.153438884717603,1218.91662006892
0.147400301043159,1218.92662006892
0.141489903982167,1218.93662006892
0.135822816364761,1218.94662006892
0.1305062980841,1218.95662006892
0.125080246104688,1218.96662006892
0.119509150004123,1218.97662006892
0.113384671030233,1218.98662006892
0.107169606078349,1218.99662006892
0.100797460625815,1219.00662006892
0.0944631997211288,1219.01662006892
0.0884559083948173,1219.02662006892
0.0824941463293689,1219.03662006892
0.0768368291932186,1219.04662006892
0.072357224017702,1219.05662006892
0.0703163621150716,1219.06662006892
0.0717953889574161,1219.07662006892
0.0781479410709548,1219.08662006892
0.0885625019910591,1219.09662006892
0.103194958404673,1219.10662006892
0.120732311231489,1219.11662006892
0.140282658447212,1219.12662006892
0.160781824488244,1219.13662006892
0.180857702844198,1219.14662006892
0.199975502177759,1219.15662006892
0.21697658875123,1219.16662006892
0.231488130424029,1219.17662006892
0.24349660602855,1219.18662006892
0.253040119158175,1219.19662006892
0.259931463098991,1219.20662006892
0.264105188860989,1219.21662006892
0.267021327175864,1219.22662006892
0.269167411976982,1219.23662006892
0.271043740940676,1219.24662006892
0.272915648814852,1219.25662006892
0.274858816936688,1219.26662006892
0.276099514174884,1219.27662006892
0.27762581917873,1219.28662006892
0.279031447682322,1219.29662006892
0.28026083934662,1219.30662006892
0.281362825500589,1219.31662006892
0.282305086802794,1219.32662006892
0.28250691370535,1219.33662006892
0.281361082404428,1219.34662006892
0.279468489901599,1219.35662006892
0.27674527865891,1219.36662006892
0.274003636401598,1219.37662006892
0.271178760219277,1219.38662006892
0.26911625530632,1219.39662006892
0.267903133556537,1219.40662006892
0.267086654360799,1219.41662006892
0.267378363641057,1219.42662006892
0.267677672785914,1219.43662006892
0.268321759444737,1219.44662006892
0.268876903443556,1219.45662006892
0.268498223060085,1219.46662006892
0.268077025790633,1219.47662006892
0.266955907043035,1219.48662006892
0.265695444823793,1219.49662006892
0.263432232011893,1219.50662006892
0.260472750035903,1219.51662006892
0.257561605053757,1219.52662006892
0.254125278149337,1219.53662006892
0.250454673986416,1219.54662006892
0.246458469662044,1219.55662006892
0.242644721742212,1219.56662006892
0.238281484582864,1219.57662006892
0.23350265011659,1219.58662006892
0.228547671829492,1219.59662006892
0.223878572823208,1219.60662006892
0.219354061943353,1219.61662006892
0.214648744450261,1219.62662006892
0.210191964219975,1219.63662006892
0.204957035547468,1219.64662006892
0.199041692193015,1219.65662006892
0.193133854209445,1219.66662006892
0.186391373377306,1219.67662006892
0.179495607581133,1219.68662006892
0.172913446198495,1219.69662006892
0.166576838799873,1219.70662006892
0.160169215980748,1219.71662006892
0.153695532352785,1219.72662006892
0.146837607673244,1219.73662006892
0.139762455503265,1219.74662006892
0.132871913181442,1219.75662006892
0.125829429779586,1219.76662006892
0.118390594615503,1219.77662006892
0.11075946034979,1219.78662006892
0.103302527929385,1219.79662006892
0.0955878944502839,1219.80662006892
0.0879151175642387,1219.81662006892
0.0806918194868852,1219.82662006892
0.0739917506793464,1219.83662006892
0.0667522986343194,1219.84662006892
0.0603096290079214,1219.85662006892
0.0540229626175544,1219.86662006892
0.0480591677130578,1219.87662006892
0.0429484641264181,1219.88662006892
0.0399380321912536,1219.89662006892
0.0405695751892464,1219.90662006892
0.0459332510007539,1219.91662006892
0.0575125832700416,1219.92662006892
0.0729793956435733,1219.93662006892
0.0918683569438222,1219.94662006892
0.112923076118914,1219.95662006892
0.134580773125513,1219.96662006892
0.156895906498329,1219.97662006892
0.178204236484712,1219.98662006892
0.197934635901665,1219.99662006892
0.215146659005381,1220.00662006892
0.229693939787553,1220.01662006892
0.241305184865313,1220.02662006892
0.250186111618218,1220.03662006892
0.256610775088905,1220.04662006892
0.261213250698373,1220.05662006892
0.264955621858813,1220.06662006892
0.268408664054698,1220.07662006892
0.271618574913598,1220.08662006892
0.274577192878626,1220.09662006892
0.27683305159803,1220.10662006892
0.27917124982867,1220.11662006892
0.281386898330653,1220.12662006892
0.283298110222084,1220.13662006892
0.284665809449259,1220.14662006892
0.285066053736575,1220.15662006892
0.285197879480002,1220.16662006892
0.284191904945531,1220.17662006892
0.282585949361293,1220.18662006892
0.280526952286051,1220.19662006892
0.279304413894741,1220.20662006892
0.277961045232606,1220.21662006892
0.277243928759599,1220.22662006892
0.276993305193471,1220.23662006892
0.276385519690658,1220.24662006892
0.2757573763663,1220.25662006892
0.275587447197088,1220.26662006892
0.27585268504574,1220.27662006892
0.276277187216787,1220.28662006892
0.277045751771401,1220.29662006892
0.277386153428777,1220.30662006892
0.27703115263555,1220.31662006892
0.27581168867418,1220.32662006892
0.274029544183221,1220.33662006892
0.271179450557577,1220.34662006892
0.268096968929353,1220.35662006892
0.264768802599214,1220.36662006892
0.261073480658523,1220.37662006892
0.257390916587856,1220.38662006892
0.253245614969607,1220.39662006892
0.248975912416986,1220.40662006892
0.244339601092948,1220.41662006892
0.239453679225618,1220.42662006892
0.234275506089508,1220.43662006892
0.22880935444891,1220.44662006892
0.223275311875252,1220.45662006892
0.217566002453091,1220.46662006892
0.211399018359357,1220.47662006892
0.204928044989529,1220.48662006892
0.198378627098978,1220.49662006892
0.191350425846252,1220.50662006892
0.185080171425886,1220.51662006892
0.178468998962296,1220.52662006892
0.171445930888609,1220.53662006892
0.164305760689047,1220.54662006892
0.156805051549276,1220.55662006892
0.148919743391335,1220.56662006892
0.141209744026569,1220.57662006892
0.134023400210578,1220.58662006892
0.127068834191626,1220.59662006892
0.120440840861621,1220.60662006892
0.113682576877024,1220.61662006892
0.10754817827055,1220.62662006892
0.101011375187106,1220.63662006892
0.0939708896660334,1220.64662006892
0.0866804643174345,1220.65662006892
0.0795063468487169,1220.66662006892
0.0720210071285097,1220.67662006892
0.0645418484819749,1220.68662006892
0.0576251085840131,1220.69662006892
0.0502824740478927,1220.70662006892
0.0437512046961966,1220.71662006892
0.0369799119778631,1220.72662006892
0.0305876743600268,1220.73662006892
0.0241588515473675,1220.74662006892
0.018289712829283,1220.75662006892
0.0132537860125427,1220.76662006892
0.011073085071087,1220.77662006892
0.0130217192507154,1220.78662006892
0.0200941673635026,1220.79662006892
0.0327168635451067,1220.80662006892
0.0506677372505875,1220.81662006892
0.0720809466699328,1220.82662006892
0.0951953438375162,1220.83662006892
0.119271683933847,1220.84662006892
0.143013378233621,1220.85662006892
0.164845990321159,1220.86662006892
0.184515433612697,1220.87662006892
0.201210735938514,1220.88662006892
0.215271064700052,1220.89662006892
0.226537140647944,1220.90662006892
0.235299882695797,1220.91662006892
0.241851911000829,1220.92662006892
0.247023591966229,1220.93662006892
0.250343769953927,1220.94662006892
0.253276861912808,1220.95662006892
0.256058300309151,1220.96662006892
0.258196327081092,1220.97662006892
0.26057108104563,1220.98662006892
0.262419994674126,1220.99662006892
0.264489631251569,1221.00662006892
0.266353803294758,1221.01662006892
0.268524926997963,1221.02662006892
0.270309931884526,1221.03662006892
0.271457155608436,1221.04662006892
0.271268949887219,1221.05662006892
0.270240116646093,1221.06662006892
0.268003774227929,1221.07662006892
0.265405152592948,1221.08662006892
0.263100931855139,1221.09662006892
0.261109752297904,1221.10662006892
0.259830985592104,1221.11662006892
0.258975122655936,1221.12662006892
0.25884750388763,1221.13662006892
0.259331852054117,1221.14662006892
0.259968166287914,1221.15662006892
0.261111951678575,1221.16662006892
0.261818717504926,1221.17662006892
0.261870521891279,1221.18662006892
0.260900256445996,1221.19662006892
0.259092400212456,1221.20662006892
0.256615668642883,1221.21662006892
0.253721891139888,1221.22662006892
0.251261519626307,1221.23662006892
0.248340997775157,1221.24662006892
0.245272453497862,1221.25662006892
0.24148572509525,1221.26662006892
0.237517249659408,1221.27662006892
0.233447243485864,1221.28662006892
0.229490076532179,1221.29662006892
0.225472065406706,1221.30662006892
0.220455956976129,1221.31662006892
0.215780229211016,1221.32662006892
0.210566076659639,1221.33662006892
0.204851517842208,1221.34662006892
0.198756079520261,1221.35662006892
0.192130528360365,1221.36662006892
0.186061662014139,1221.37662006892
0.179774385295827,1221.38662006892
0.173545739968187,1221.39662006892
0.16737231262312,1221.40662006892
0.161774639010627,1221.41662006892
0.155785812957115,1221.42662006892
0.149330579784586,1221.43662006892
0.142771650565489,1221.44662006892
0.135807421415351,1221.45662006892
0.128916298499482,1221.46662006892
0.121827823154213,1221.47662006892
0.11449210046749,1221.48662006892
0.106681144858525,1221.49662006892
0.0987163782545246,1221.50662006892
0.0913050748424483,1221.51662006892
0.0844598954312948,1221.52662006892
0.0778821488875608,1221.53662006892
0.071358712959317,1221.54662006892
0.0649789733414679,1221.55662006892
0.0588376541577956,1221.56662006892
0.0530007888198926,1221.57662006892
0.0462308482506708,1221.58662006892
0.0391004879863499,1221.59662006892
0.0315880810414847,1221.60662006892
0.0245546889488218,1221.61662006892
0.0173766748185707,1221.62662006892
0.0104752667466414,1221.63662006892
0.00372673625924229,1221.64662006892
-0.00309577658445471,1221.65662006892
-0.00857929891038087,1221.66662006892
-0.0126204988367857,1221.67662006892
-0.0138838574195604,1221.68662006892
-0.010500973320468,1221.69662006892
-0.00178488535758965,1221.70662006892
0.0126781817516195,1221.71662006892
0.0318634765032199,1221.72662006892
0.0549180903899753,1221.73662006892
0.0793026909139807,1221.74662006892
0.10368561097848,1221.75662006892
0.127675646088216,1221.76662006892
0.149939023184801,1221.77662006892
0.169591817113494,1221.78662006892
0.186321567793538,1221.79662006892
0.200321928247479,1221.80662006892
0.212048266204847,1221.81662006892
0.221558127335848,1221.82662006892
0.228818420569494,1221.83662006892
0.234607155712935,1221.84662006892
0.238836521861815,1221.85662006892
0.241952667094383,1221.86662006892
0.244114100920426,1221.87662006892
0.246253062394436,1221.88662006892
0.248412055078381,1221.89662006892
0.250739719000143,1221.90662006892
0.25369056544478,1221.91662006892
0.256572003046356,1221.92662006892
0.258937389048755,1221.93662006892
0.260288172855616,1221.94662006892
0.260780754174536,1221.95662006892
0.260499631734844,1221.96662006892
0.259884054894263,1221.97662006892
0.258868655673851,1221.98662006892
0.258044046196681,1221.99662006892
0.257253417004478,1222.00662006892
0.256601096089353,1222.01662006892
0.255959945428743,1222.02662006892
0.255942790254397,1222.03662006892
0.256595005017961,1222.04662006892
0.258248599465478,1222.05662006892
0.260332717650892,1222.06662006892
0.262194056720944,1222.07662006892
0.264323015822249,1222.08662006892
0.265705094851559,1222.09662006892
0.266337438714649,1222.10662006892
0.266378940602636,1222.11662006892
0.26558544770943,1222.12662006892
0.264096882318395,1222.13662006892
0.261608286184818,1222.14662006892
0.259205987882846,1222.15662006892
0.256316060326066,1222.16662006892
0.253270279419544,1222.17662006892
0.250322558199185,1222.18662006892
0.247342503399167,1222.19662006892
0.243799881462964,1222.20662006892
0.240761189689848,1222.21662006892
0.23764719970219,1222.22662006892
0.234151231329895,1222.23662006892
0.230035410072897,1222.24662006892
0.225514577614334,1222.25662006892
0.220959447506277,1222.26662006892
0.215993287523052,1222.27662006892
0.210549000024215,1222.28662006892
0.205063389593047,1222.29662006892
0.199245852371248,1222.30662006892
0.193594507400607,1222.31662006892
0.187738710359536,1222.32662006892
0.181198138775106,1222.33662006892
0.174299155375247,1222.34662006892
0.167209400446395,1222.35662006892
0.159907321338904,1222.36662006892
0.153169956819218,1222.37662006892
0.146749132777933,1222.38662006892
0.140473428145499,1222.39662006892
0.13450921592596,1222.40662006892
0.128361763193907,1222.41662006892
0.121714167406295,1222.42662006892
0.115088091230123,1222.43662006892
0.107973792663057,1222.44662006892
0.100044849374034,1222.45662006892
0.0913530002969643,1222.46662006892
0.0827589246824255,1222.47662006892
0.0745404441919324,1222.48662006892
0.066290014749539,1222.49662006892
0.0593113352043957,1222.50662006892
0.0545553730995703,1222.51662006892
0.0535649819892587,1222.52662006892
0.0579367538325136,1222.53662006892
0.0680477578037992,1222.54662006892
0.0830831587637405,1222.55662006892
0.101878171755011,1222.56662006892
0.12332517306762,1222.57662006892
0.14630852347299,1222.58662006892
0.169503570867239,1222.59662006892
0.191885244460483,1222.60662006892
0.212604009656906,1222.61662006892
0.231527439217581,1222.62662006892
0.246758665448506,1222.63662006892
0.259136696917613,1222.64662006892
0.26819070909284,1222.65662006892
0.274968456784877,1222.66662006892
0.279402767946494,1222.67662006892
0.282396933871304,1222.68662006892
0.284788507217959,1222.69662006892
0.286380127738432,1222.70662006892
0.287938714855079,1222.71662006892
0.289220300992764,1222.72662006892
0.289909186432758,1222.73662006892
0.290861129883278,1222.74662006892
0.291236199328944,1222.75662006892
0.290523557305563,1222.76662006892
0.289592171438311,1222.77662006892
0.287362643405633,1222.78662006892
0.284747820891123,1222.79662006892
0.281004725603019,1222.80662006892
0.276791308897103,1222.81662006892
0.272546622287455,1222.82662006892
0.268875458521783,1222.83662006892
0.26598275769448,1222.84662006892
0.263910688566411,1222.85662006892
0.263141290981135,1222.86662006892
0.263276498952526,1222.87662006892
0.264211266870853,1222.88662006892
0.26508961347346,1222.89662006892
0.265991742376206,1222.90662006892
0.266328436967961,1222.91662006892
0.26587525731462,1222.92662006892
0.265002475360189,1222.93662006892
0.263265550662314,1222.94662006892
0.261267122079889,1222.95662006892
0.258650300790864,1222.96662006892
0.255183421012347,1222.97662006892
0.251358651941107,1222.98662006892
0.246816171591941,1222.99662006892
0.241596342076014,1223.00662006892
0.236389222516847,1223.01662006892
0.231197314472833,1223.02662006892
0.226029134198447,1223.03662006892
0.219994703360499,1223.04662006892
0.213762910286802,1223.05662006892
0.207299387470096,1223.06662006892
0.200766273237603,1223.07662006892
0.194505604834034,1223.08662006892
0.187738585261574,1223.09662006892
0.180960885438417,1223.10662006892
0.173933067145642,1223.11662006892
0.166327714402461,1223.12662006892
0.15847978612858,1223.13662006892
0.150470451437055,1223.14662006892
0.142045377548448,1223.15662006892
0.133436870896761,1223.16662006892
0.124638122251303,1223.17662006892
0.115881432129634,1223.18662006892
0.107373455843986,1223.19662006892
0.0994840236905218,1223.20662006892
0.0918652952473497,1223.21662006892
0.0846125360077697,1223.22662006892
0.0779255422473472,1223.23662006892
0.0706848064675907,1223.24662006892
0.0635576357173714,1223.25662006892
0.0557320415560249,1223.26662006892
0.0468581980365918,1223.27662006892
0.0381419275952133,1223.28662006892
0.0294167902767197,1223.29662006892
0.0210010641492124,1223.30662006892
0.0130545681184869,1223.31662006892
0.00584527685064687,1223.32662006892
7.14730972407168e-05,1223.33662006892
-0.00283983606307023,1223.34662006892
-0.00114512323176627,1223.35662006892
0.00517518888003073,1223.36662006892
0.0177085558432055,1223.37662006892
0.0359118901618663,1223.38662006892
0.057820872884672,1223.39662006892
0.0830717845206586,1223.40662006892
0.109077105424679,1223.41662006892
0.135183822980774,1223.42662006892
0.159868947877958,1223.43662006892
0.18210208681171,1223.44662006892
0.201524680781067,1223.45662006892
0.217952612929937,1223.46662006892
0.231618385686548,1223.47662006892
0.242884165328497,1223.48662006892
0.251827227149942,1223.49662006892
0.258806148588327,1223.50662006892
0.264120167222205,1223.51662006892
0.268444516201602,1223.52662006892
0.271766552681188,1223.53662006892
0.274587591877313,1223.54662006892
0.27636034217756,1223.55662006892
0.27777175704741,1223.56662006892
0.279303716448348,1223.57662006892
0.280520010776604,1223.58662006892
0.281866117781207,1223.59662006892
0.282763232491725,1223.60662006892
0.283262842559254,1223.61662006892
0.283128683063158,1223.62662006892
0.28210939760279,1223.63662006892
0.280847301671197,1223.64662006892
0.278575634063413,1223.65662006892
0.275609687316079,1223.66662006892
0.272460522170116,1223.67662006892
0.269274331135876,1223.68662006892
0.267182587648792,1223.69662006892
0.265802284331608,1223.70662006892
0.265994151672819,1223.71662006892
0.267427713850499,1223.72662006892
0.268735318510842,1223.73662006892
0.26984352014573,1223.74662006892
0.270165081217094,1223.75662006892
0.270056350933715,1223.76662006892
0.269114338033043,1223.77662006892
0.26749066275555,1223.78662006892
0.265943604759817,1223.79662006892
0.26392208120345,1223.80662006892
0.261111863093122,1223.81662006892
0.257724690214891,1223.82662006892
0.253325495083694,1223.83662006892
0.248437867432759,1223.84662006892
0.243085502599755,1223.85662006892
0.237447333769712,1223.86662006892
0.231389885517543,1223.87662006892
0.225351074416503,1223.88662006892
0.218957002025522,1223.89662006892
0.212820093641931,1223.90662006892
0.206656497023997,1223.91662006892
0.200455671667017,1223.92662006892
0.194132434531706,1223.93662006892
0.18742686827596,1223.94662006892
0.180105866413554,1223.95662006892
0.172412057827458,1223.96662006892
0.164154682749426,1223.97662006892
0.155839235029677,1223.98662006892
0.147863154621749,1223.99662006892
0.139334033762732,1224.00662006892
0.130839695940301,1224.01662006892
0.122303907457655,1224.02662006892
0.113582378491436,1224.03662006892
0.105010967957988,1224.04662006892
0.096130607060692,1224.05662006892
0.0873078288761662,1224.06662006892
0.0789770139711785,1224.07662006892
0.07107550413029,1224.08662006892
0.0628947135969096,1224.09662006892
0.0550377138792293,1224.10662006892
0.0470502881165903,1224.11662006892
0.0388453791324626,1224.12662006892
0.0310667525784423,1224.13662006892
0.0232774997108259,1224.14662006892
0.0158643151706776,1224.15662006892
0.00869083529880701,1224.16662006892
0.00107067364513207,1224.17662006892
-0.00677800745855194,1224.18662006892
-0.0146653673938379,1224.19662006892
-0.0220701508835443,1224.20662006892
-0.0272349632022085,1224.21662006892
-0.0283009393524842,1224.22662006892
-0.0242538137320534,1224.23662006892
-0.0135383000897665,1224.24662006892
0.00344468028740758,1224.25662006892
0.0258931590343389,1224.26662006892
0.0518970140279983,1224.27662006892
0.0798484177045365,1224.28662006892
0.108063715728311,1224.29662006892
0.135227989503567,1224.30662006892
0.16085310688292,1224.31662006892
0.183074635471125,1224.32662006892
0.202292467102433,1224.33662006892
0.217771853516592,1224.34662006892
0.230060109347457,1224.35662006892
0.239806443593416,1224.36662006892
0.24715674808807,1224.37662006892
0.253169509011819,1224.38662006892
0.258371728876079,1224.39662006892
0.262768649942783,1224.40662006892
0.266567476343948,1224.41662006892
0.270169568019448,1224.42662006892
0.273000834776931,1224.43662006892
0.275419401768071,1224.44662006892
0.277565895608089,1224.45662006892
0.279188763014254,1224.46662006892
0.280789350029998,1224.47662006892
0.281005601804006,1224.48662006892
0.28053784068255,1224.49662006892
0.278967055844874,1224.50662006892
0.276424338817329,1224.51662006892
0.273852536360833,1224.52662006892
0.271050879568952,1224.53662006892
0.268644938361736,1224.54662006892
0.266678828509145,1224.55662006892
0.265652047375037,1224.56662006892
0.265139315473936,1224.57662006892
0.265312551951569,1224.58662006892
0.265560752547514,1224.59662006892
0.266013029323397,1224.60662006892
0.266172436725976,1224.61662006892
0.265791657663581,1224.62662006892
0.265664109440282,1224.63662006892
0.265009452131428,1224.64662006892
0.263762842651134,1224.65662006892
0.261797113905776,1224.66662006892
0.25956818010754,1224.67662006892
0.256262850059918,1224.68662006892
0.252672345187433,1224.69662006892
0.24845178204749,1224.70662006892
0.244026644851969,1224.71662006892
0.238965182826224,1224.72662006892
0.23319863035423,1224.73662006892
0.227622296508146,1224.74662006892
0.22236391167057,1224.75662006892
0.217018324949915,1224.76662006892
0.211612060134808,1224.77662006892
0.20591319389995,1224.78662006892
0.200337319599012,1224.79662006892
0.193947694989547,1224.80662006892
0.187294940278665,1224.81662006892
0.180341793719341,1224.82662006892
0.172892648959406,1224.83662006892
0.165353428158688,1224.84662006892
0.157307346259076,1224.85662006892
0.149140407313916,1224.86662006892
0.140804126908055,1224.87662006892
0.132521451699098,1224.88662006892
0.124304127204854,1224.89662006892
0.115770649739433,1224.90662006892
0.107386337200869,1224.91662006892
0.0987577842383004,1224.92662006892
0.0903150618055387,1224.93662006892
0.0825016327392628,1224.94662006892
0.0742241006461208,1224.95662006892
0.0659670640511017,1224.96662006892
0.0574533104287753,1224.97662006892
0.0492429787743598,1224.98662006892
0.0410747085548374,1224.99662006892
0.0330799326802897,1225.00662006892
0.0251005918498835,1225.01662006892
0.0175061305380782,1225.02662006892
0.00962404738277289,1225.03662006892
0.00177903034340906,1225.04662006892
-0.0057881912550163,1225.05662006892
-0.0127690068034589,1225.06662006892
-0.0184607223326708,1225.07662006892
-0.0220017615016414,1225.08662006892
-0.0208658569797629,1225.09662006892
-0.0144585941172449,1225.10662006892
-0.00168312783780583,1225.11662006892
0.01811699714322,1225.12662006892
0.0426355873533222,1225.13662006892
0.0706851491228352,1225.14662006892
0.0992485464657604,1225.15662006892
0.127800343741793,1225.16662006892
0.154602543869518,1225.17662006892
0.178935121730215,1225.18662006892
0.199976699729271,1225.19662006892
0.217710831528175,1225.20662006892
0.232574721978296,1225.21662006892
0.243815011061511,1225.22662006892
0.252436664873437,1225.23662006892
0.258727253455407,1225.24662006892
0.263725070801215,1225.25662006892
0.267837514071828,1225.26662006892
0.271459882113215,1225.27662006892
0.274980434107181,1225.28662006892
0.278591532040745,1225.29662006892
0.281938172752265,1225.30662006892
0.285324604058226,1225.31662006892
0.28808619856997,1225.32662006892
0.29051043861125,1225.33662006892
0.292778342958217,1225.34662006892
0.294481737345268,1225.35662006892
0.295273339282837,1225.36662006892
0.295372067523834,1225.37662006892
0.294194550623239,1225.38662006892
0.291780282344607,1225.39662006892
0.28932506194668,1225.40662006892
0.286794468886764,1225.41662006892
0.284431654081295,1225.42662006892
0.282560302312644,1225.43662006892
0.281857185056957,1225.44662006892
0.281789076977049,1225.45662006892
0.283246617336155,1225.46662006892
0.284547977527063,1225.47662006892
0.286264517184387,1225.48662006892
0.288183525720015,1225.49662006892
0.289352273573775,1225.50662006892
0.289632432065959,1225.51662006892
0.288523629020148,1225.52662006892
0.286147747137971,1225.53662006892
0.283121531978585,1225.54662006892
0.280084514824877,1225.55662006892
0.276939952813387,1225.56662006892
0.27355499250943,1225.57662006892
0.269903604001958,1225.58662006892
0.265776803031623,1225.59662006892
0.261607368967418,1225.60662006892
0.256687301420878,1225.61662006892
0.251389759135887,1225.62662006892
0.245154230236094,1225.63662006892
0.238531823343109,1225.64662006892
0.231358470574279,1225.65662006892
0.224611561876844,1225.66662006892
0.218141939030331,1225.67662006892
0.211297327513144,1225.68662006892
0.204135324716177,1225.69662006892
0.196554641243302,1225.70662006892
0.189075538070301,1225.71662006892
0.180893206046913,1225.72662006892
0.172932848924796,1225.73662006892
0.164635243816717,1225.74662006892
0.156305840278911,1225.75662006892
0.148595922208329,1225.76662006892
0.141728072698337,1225.77662006892
0.134805402815687,1225.78662006892
0.127859187575496,1225.79662006892
0.120476930293355,1225.80662006892
0.113334371088607,1225.81662006892
0.106026961194249,1225.82662006892
0.0985331847869973,1225.83662006892
0.0908704186791717,1225.84662006892
0.0831958714367574,1225.85662006892
0.0753748510053153,1225.86662006892
0.0672138206313459,1225.87662006892
0.0594015165130665,1225.88662006892
0.0521740991525104,1225.89662006892
0.0475760300103192,1225.90662006892
0.0465889811955794,1225.91662006892
0.0508231738931467,1225.92662006892
0.0609467210017408,1225.93662006892
0.0767468023402755,1225.94662006892
0.0978750086342189,1225.95662006892
0.123003088872024,1225.96662006892
0.150118380585756,1225.97662006892
0.178439576685691,1225.98662006892
0.205799652396625,1225.99662006892
0.231193503858902,1226.00662006892
0.253896269199366,1226.01662006892
0.273267453852072,1226.02662006892
0.28951442433669,1226.03662006892
0.301865582540012,1226.04662006892
0.311260225382601,1226.05662006892
0.317982354936414,1226.06662006892
0.322481102444775,1226.07662006892
0.326008121445314,1226.08662006892
0.328594988965454,1226.09662006892
0.330747406633773,1226.10662006892
0.332541649720659,1226.11662006892
0.334302601814893,1226.12662006892
0.335689053796194,1226.13662006892
0.336897888389185,1226.14662006892
0.337675921803234,1226.15662006892
0.337509276488503,1226.16662006892
0.336523030800343,1226.17662006892
0.334338806903231,1226.18662006892
0.331413002813747,1226.19662006892
0.32791545956548,1226.20662006892
0.324369497554356,1226.21662006892
0.320857654185519,1226.22662006892
0.318272305719161,1226.23662006892
0.316429782987862,1226.24662006892
0.315670087144206,1226.25662006892
0.315681769601462,1226.26662006892
0.316745567833492,1226.27662006892
0.318707391861824,1226.28662006892
0.320396464350963,1226.29662006892
0.322066558537306,1226.30662006892
0.323251515788584,1226.31662006892
0.323166426172785,1226.32662006892
0.322422549295935,1226.33662006892
0.320359318166598,1226.34662006892
0.317555795712093,1226.35662006892
0.313938805191158,1226.36662006892
0.30954249516582,1226.37662006892
0.304318892296587,1226.38662006892
0.298551385041067,1226.39662006892
0.292419262618844,1226.40662006892
0.285987963393128,1226.41662006892
0.279796490417232,1226.42662006892
0.273102739080785,1226.43662006892
0.26683251451287,1226.44662006892
0.260628104835155,1226.45662006892
0.253782615112853,1226.46662006892
0.246754841573718,1226.47662006892
0.239466132325193,1226.48662006892
0.231590266555904,1226.49662006892
0.223263559841761,1226.50662006892
0.214747582689982,1226.51662006892
0.206460269975717,1226.52662006892
0.198183661431758,1226.53662006892
0.189834947228304,1226.54662006892
0.181381292610177,1226.55662006892
0.172739862531906,1226.56662006892
0.163416963919876,1226.57662006892
0.153830983114731,1226.58662006892
0.14473132549971,1226.59662006892
0.135978065461119,1226.60662006892
0.12692580347916,1226.61662006892
0.118091556524377,1226.62662006892
0.109065900867164,1226.63662006892
0.10021230765946,1226.64662006892
0.0908161625853443,1226.65662006892
0.0821336783912223,1226.66662006892
0.073470972975802,1226.67662006892
0.0647473281251062,1226.68662006892
0.0572433469126257,1226.69662006892
0.052462884591022,1226.70662006892
0.0520973887231138,1226.71662006892
0.0574565878997598,1226.72662006892
0.068932346269051,1226.73662006892
0.0863974445066728,1226.74662006892
0.108866928414294,1226.75662006892
0.135544358115205,1226.76662006892
0.164381686149085,1226.77662006892
0.193089777792339,1226.78662006892
0.22027353178224,1226.79662006892
0.24462362485089,1226.80662006892
0.26554975417955,1226.81662006892
0.282533928451905,1226.82662006892
0.295917291392759,1226.83662006892
0.306125578700749,1226.84662006892
0.31416684515953,1226.85662006892
0.320818628886631,1226.86662006892
0.325874085915654,1226.87662006892
0.329388869910319,1226.88662006892
0.332127824935058,1226.89662006892
0.334160599472909,1226.90662006892
0.335331046557034,1226.91662006892
0.336466832195606,1226.92662006892
0.337858736038417,1226.93662006892
0.338643639473394,1226.94662006892
0.339045402834055,1226.95662006892
0.338698010668705,1226.96662006892
0.337067009947759,1226.97662006892
0.334225719646125,1226.98662006892
0.330531971729452,1226.99662006892
0.326338635834141,1227.00662006892
0.32164848905257,1227.01662006892
0.31782786592911,1227.02662006892
0.314302705336678,1227.03662006892
0.311828411078835,1227.04662006892
0.310098988715622,1227.05662006892
0.309317997498743,1227.06662006892
0.309614390580036,1227.07662006892
0.310286327265875,1227.08662006892
0.311324931457816,1227.09662006892
0.311783106366592,1227.10662006892
0.311724398752147,1227.11662006892
0.310164996399232,1227.12662006892
0.30781657336375,1227.13662006892
0.304414272636704,1227.14662006892
0.300206695982823,1227.15662006892
0.295328946498586,1227.16662006892
0.289954145178575,1227.17662006892
0.283518024819528,1227.18662006892
0.277740614960967,1227.19662006892
0.271628300716063,1227.20662006892
0.265399686758572,1227.21662006892
0.258870749470667,1227.22662006892
0.252360616382995,1227.23662006892
0.245377021163014,1227.24662006892
0.237702945870053,1227.25662006892
0.229661928197035,1227.26662006892
0.221330380772278,1227.27662006892
0.212947274121276,1227.28662006892
0.20455795745163,1227.29662006892
0.195537599237712,1227.30662006892
0.186585849264961,1227.31662006892
0.177549704484559,1227.32662006892
0.168340571486257,1227.33662006892
0.159347333033195,1227.34662006892
0.149614408141229,1227.35662006892
0.13980582406174,1227.36662006892
0.129651355405144,1227.37662006892
0.119017182350425,1227.38662006892
0.109014404600582,1227.39662006892
0.0991894930851089,1227.40662006892
0.0899135249985246,1227.41662006892
0.0814560298061662,1227.42662006892
0.0727870874922432,1227.43662006892
0.0638044457839912,1227.44662006892
0.0549478655347774,1227.45662006892
0.0455724960697236,1227.46662006892
0.0360425997340906,1227.47662006892
0.0269974583424253,1227.48662006892
0.0179540548081922,1227.49662006892
0.00921817291660613,1227.50662006892
0.00145772638907651,1227.51662006892
-0.00461673392556751,1227.52662006892
-0.00696822441553645,1227.53662006892
-0.00391611043571152,1227.54662006892
0.00550304347974588,1227.55662006892
0.0221583976942297,1227.56662006892
0.0448191490654325,1227.57662006892
0.071698770087592,1227.58662006892
0.100594018854437,1227.59662006892
0.130059564467777,1227.60662006892
0.15939443547855,1227.61662006892
0.186849699752205,1227.62662006892
0.211511153124459,1227.63662006892
0.232634149288766,1227.64662006892
0.249701232397303,1227.65662006892
0.263140712665708,1227.66662006892
0.273372801984252,1227.67662006892
0.280809927604114,1227.68662006892
0.286631653147232,1227.69662006892
0.291164676981594,1227.70662006892
0.295034967778622,1227.71662006892
0.298531341891186,1227.72662006892
0.30194485614491,1227.73662006892
0.304476203768943,1227.74662006892
0.305715260709862,1227.75662006892
0.307298833102268,1227.76662006892
0.308079867258099,1227.77662006892
0.308656718927807,1227.78662006892
0.309011499074572,1227.79662006892
0.308802535851735,1227.80662006892
0.308112145056703,1227.81662006892
0.306473961139734,1227.82662006892
0.304522753928893,1227.83662006892
0.301769919454609,1227.84662006892
0.29924103363393,1227.85662006892
0.296396386971719,1227.86662006892
0.293751735586076,1227.87662006892
0.291278592140988,1227.88662006892
0.289655532123701,1227.89662006892
0.288832675666151,1227.90662006892
0.288337551900073,1227.91662006892
0.288576584676737,1227.92662006892
0.288509415842794,1227.93662006892
0.288472916924528,1227.94662006892
0.287700241848401,1227.95662006892
0.286199087775893,1227.96662006892
0.283901117741358,1227.97662006892
0.28001674207393,1227.98662006892
0.275911579532349,1227.99662006892
0.271570933187333,1228.00662006892
0.266521242076121,1228.01662006892
0.261677551151133,1228.02662006892
0.256548705344767,1228.03662006892
0.250040227639951,1228.04662006892
0.242822267751958,1228.05662006892
0.235369127200605,1228.06662006892
0.226941378221321,1228.07662006892
0.219035256299922,1228.08662006892
0.210899145330242,1228.09662006892
0.202711630829705,1228.10662006892
0.194488228376475,1228.11662006892
0.185886473245488,1228.12662006892
0.176930723628592,1228.13662006892
0.167719456144874,1228.14662006892
0.158437938625811,1228.15662006892
0.149511953619289,1228.16662006892
0.140781713736031,1228.17662006892
0.132293436164758,1228.18662006892
0.123873443932075,1228.19662006892
0.115151649144679,1228.20662006892
0.105856808857867,1228.21662006892
0.0966079102843942,1228.22662006892
0.087181911039825,1228.23662006892
0.0782930164883598,1228.24662006892
0.0691422685878691,1228.25662006892
0.0595524062805131,1228.26662006892
0.0501945215423609,1228.27662006892
0.0412085320859785,1228.28662006892
0.0318579999838706,1228.29662006892
0.0222895108861518,1228.30662006892
0.0126718758995969,1228.31662006892
0.00335729263390821,1228.32662006892
-0.00587748925392063,1228.33662006892
-0.0144927649993222,1228.34662006892
-0.021521149072304,1228.35662006892
-0.0261400867690342,1228.36662006892
-0.0261001014281094,1228.37662006892
-0.0206080788187156,1228.38662006892
-0.00840868665031658,1228.39662006892
0.00995804042943856,1228.40662006892
0.0341157584963898,1228.41662006892
0.0615890598752955,1228.42662006892
0.0908556680729466,1228.43662006892
0.120227866813512,1228.44662006892
0.148300940812408,1228.45662006892
0.174063955263597,1228.46662006892
0.196441621901866,1228.47662006892
0.215004621929844,1228.48662006892
0.23023023072448,1228.49662006892
0.242826208021071,1228.50662006892
0.252003605550536,1228.51662006892
0.259090097988168,1228.52662006892
0.263859622379793,1228.53662006892
0.267312897563139,1228.54662006892
0.270029271551675,1228.55662006892
0.271533260046255,1228.56662006892
0.272818121105287,1228.57662006892
0.273432412050517,1228.58662006892
0.273959115029973,1228.59662006892
0.27457275262507,1228.60662006892
0.274845515736218,1228.61662006892
0.275439720733095,1228.62662006892
0.276044957609268,1228.63662006892
0.276417528573476,1228.64662006892
0.275869097196309,1228.65662006892
0.274333198451422,1228.66662006892
0.271851243303375,1228.67662006892
0.268588036192413,1228.68662006892
0.265279968941071,1228.69662006892
0.262240345341356,1228.70662006892
0.259467928983335,1228.71662006892
0.25702135665165,1228.72662006892
0.255877988813813,1228.73662006892
0.255072288689763,1228.74662006892
0.254629278770692,1228.75662006892
0.254684444726146,1228.76662006892
0.254473465681209,1228.77662006892
0.253463730075322,1228.78662006892
0.252295524547489,1228.79662006892
0.250296723878866,1228.80662006892
0.247526272705069,1228.81662006892
0.244051837769263,1228.82662006892
0.240367298162861,1228.83662006892
0.236179688059712,1228.84662006892
0.231446035975365,1228.85662006892
0.226875069558099,1228.86662006892
0.221827769586684,1228.87662006892
0.216298912966601,1228.88662006892
0.210104214179107,1228.89662006892
0.203291179486232,1228.90662006892
0.195500878510757,1228.91662006892
0.187380386607847,1228.92662006892
0.178865590316307,1228.93662006892
0.170321563338119,1228.94662006892
0.16226069650163,1228.95662006892
0.154373945256212,1228.96662006892
0.146387017176684,1228.97662006892
0.138381098120416,1228.98662006892
0.129898465643923,1228.99662006892
0.120965836383524,1229.00662006892
0.111613737395255,1229.01662006892
0.102487615298058,1229.02662006892
0.0930008752824182,1229.03662006892
0.0835509327552834,1229.04662006892
0.074413263897939,1229.05662006892
0.0654810964275819,1229.06662006892
0.0568748306022371,1229.07662006892
0.0483144609789268,1229.08662006892
0.0394001706119505,1229.09662006892
0.0299543957932481,1229.10662006892
0.0207761043742654,1229.11662006892
0.0113855775252309,1229.12662006892
0.00200755715330287,1229.13662006892
-0.0067067196290397,1229.14662006892
-0.0152009678989494,1229.15662006892
-0.02397349711718,1229.16662006892
-0.0321572293234106,1229.17662006892
-0.0396104494182774,1229.18662006892
-0.0463207601733677,1229.19662006892
-0.0500089867758749,1229.20662006892
-0.0495104654452492,1229.21662006892
-0.0429635044464333,1229.22662006892
-0.0306092965721003,1229.23662006892
-0.012628076551775,1229.24662006892
0.00941591698243606,1229.25662006892
0.0337971909665454,1229.26662006892
0.059197900355682,1229.27662006892
0.0838496876767969,1229.28662006892
0.106440312319634,1229.29662006892
0.126541438940482,1229.30662006892
0.143603867062054,1229.31662006892
0.157398374345284,1229.32662006892
0.167825949012784,1229.33662006892
0.175525181039653,1229.34662006892
0.179647821738552,1229.35662006892
0.181611492243171,1229.36662006892
0.182282615295072,1229.37662006892
0.182523930519348,1229.38662006892
0.18229042765426,1229.39662006892
0.181590104324375,1229.40662006892
0.181223240158663,1229.41662006892
0.180792587709664,1229.42662006892
0.180856782803511,1229.43662006892
0.181318315390835,1229.44662006892
0.181182460020541,1229.45662006892
0.180388963312902,1229.46662006892
0.178924764217658,1229.47662006892
0.176359358699208,1229.48662006892
0.172918333902091,1229.49662006892
0.168802605742655,1229.50662006892
0.164617342076542,1229.51662006892
0.160929034274881,1229.52662006892
0.158761552408716,1229.53662006892
0.157132488897082,1229.54662006892
0.1568941514521,1229.55662006892
0.15710064893761,1229.56662006892
0.157455745794775,1229.57662006892
0.157910794894578,1229.58662006892
0.157941098703287,1229.59662006892
0.157557231940486,1229.60662006892
0.156631843416604,1229.61662006892
0.154869043537872,1229.62662006892
0.152660298706985,1229.63662006892
0.14994960993052,1229.64662006892
0.14616076694026,1229.65662006892
0.142370737491274,1229.66662006892
0.137553178424797,1229.67662006892
0.132637644123179,1229.68662006892
0.126797738658805,1229.69662006892
0.120871162444748,1229.70662006892
0.114863041317266,1229.71662006892
0.10926779563723,1229.72662006892
0.103776075932242,1229.73662006892
0.0975535495285171,1229.74662006892
0.0910162424915535,1229.75662006892
0.0842198738046891,1229.76662006892
0.0778417303319769,1229.77662006892
0.0713491987498131,1229.78662006892
0.0647445177560166,1229.79662006892
0.0581786213449795,1229.80662006892
0.0509964711215799,1229.81662006892
0.0435244099066793,1229.82662006892
0.0357497002384625,1229.83662006892
0.0275274989461952,1229.84662006892
0.019241661737948,1229.85662006892
0.0106213324116584,1229.86662006892
0.00212140838389522,1229.87662006892
-0.00652106635459906,1229.88662006892
-0.0151207413300618,1229.89662006892
-0.0235778101064287,1229.90662006892
-0.0319947281888142,1229.91662006892
-0.0400537440238091,1229.92662006892
-0.0482452293521838,1229.93662006892
-0.0565410149726594,1229.94662006892
-0.0646769630561156,1229.95662006892
-0.0728258625976348,1229.96662006892
-0.0804464561119137,1229.97662006892
-0.0865625009514958,1229.98662006892
-0.0899976053832113,1229.99662006892
-0.0897818880595205,1230.00662006892
-0.0850068672554857,1230.01662006892
-0.0758952551056483,1230.02662006892
-0.0631605845797148,1230.03662006892
-0.0482107489324177,1230.04662006892
-0.031368387168613,1230.05662006892
-0.0136319667777998,1230.06662006892
0.0033553358854502,1230.07662006892
0.0191049159413836,1230.08662006892
0.0323552854119508,1230.09662006892
0.043320154821683,1230.10662006892
0.0517953459166401,1230.11662006892
0.0569444515577625,1230.12662006892
0.0598908586475985,1230.13662006892
0.0606326962308746,1230.14662006892
0.0602051226744548,1230.15662006892
0.0583944698980066,1230.16662006892
0.0565012052978871,1230.17662006892
0.0542439118794646,1230.18662006892
0.0522313612520051,1230.19662006892
0.0502728845148479,1230.20662006892
0.0479339125233278,1230.21662006892
0.0454521271753378,1230.22662006892
0.042315958104367,1230.23662006892
0.0379158146406175,1230.24662006892
0.0333297990820052,1230.25662006892
0.0284660639180314,1230.26662006892
0.0232864943669488,1230.27662006892
0.0177671134206784,1230.28662006892
0.0122788421978902,1230.29662006892
0.00691581628989118,1230.30662006892
0.00205410075330761,1230.31662006892
-0.00158702638077246,1230.32662006892
-0.00477543840137806,1230.33662006892
-0.00702530811153893,1230.34662006892
-0.0083323599950187,1230.35662006892
-0.00927064025269707,1230.36662006892
-0.00963260083728374,1230.37662006892
-0.00998069457971688,1230.38662006892
-0.0106614431684457,1230.39662006892
-0.0124896862243592,1230.40662006892
-0.0152177479439275,1230.41662006892
-0.0183943872537228,1230.42662006892
-0.0228516966366211,1230.43662006892
-0.0277374088785126,1230.44662006892
-0.0327427560768464,1230.45662006892
-0.0382944164335706,1230.46662006892
-0.0443637530216568,1230.47662006892
-0.0500863826731517,1230.48662006892
-0.0560667331482236,1230.49662006892
-0.062493628867917,1230.50662006892
-0.0693264007179333,1230.51662006892
-0.0764426731633693,1230.52662006892
-0.0837824730991224,1230.53662006892
-0.091251383339129,1230.54662006892
-0.0981405515667252,1230.55662006892
-0.105317747276962,1230.56662006892
-0.112657745351869,1230.57662006892
-0.120360098519271,1230.58662006892
-0.127914699649702,1230.59662006892
-0.135621931690321,1230.60662006892
-0.143172331865531,1230.61662006892
-0.150935050520024,1230.62662006892
-0.159020028200477,1230.63662006892
-0.167206925265476,1230.64662006892
-0.175617923425444,1230.65662006892
-0.183957863032679,1230.66662006892
-0.191294500036565,1230.67662006892
-0.1982739932179,1230.68662006892
-0.204761778423396,1230.69662006892
-0.210728720191263,1230.70662006892
-0.217100803966585,1230.71662006892
-0.223414175741507,1230.72662006892
-0.23000580812151,1230.73662006892
-0.236910808122429,1230.74662006892
-0.243597066575692,1230.75662006892
-0.249804122783965,1230.76662006892
-0.254687725004884,1230.77662006892
-0.257239378354298,1230.78662006892
-0.256213287459713,1230.79662006892
-0.251602854217094,1230.80662006892
-0.242977644526226,1230.81662006892
-0.231310310087547,1230.82662006892
-0.217914006318578,1230.83662006892
-0.203045896100703,1230.84662006892
-0.188510393396187,1230.85662006892
-0.174289414460757,1230.86662006892
-0.161649832550097,1230.87662006892
-0.150600456701835,1230.88662006892
-0.141764549108571,1230.89662006892
-0.135141908698088,1230.90662006892
-0.130429131580294,1230.91662006892
-0.12701708209759,1230.92662006892
-0.125353412366284,1230.93662006892
-0.124855341864605,1230.94662006892
-0.125069530998403,1230.95662006892
-0.125455684673077,1230.96662006892
-0.125952034454229,1230.97662006892
-0.126321942212279,1230.98662006892
-0.126685032785945,1230.99662006892
-0.127311225270655,1231.00662006892
-0.128061543969928,1231.01662006892
-0.129564542834442,1231.02662006892
-0.131201478334339,1231.03662006892
-0.133312970265879,1231.04662006892
-0.135703178803014,1231.05662006892
-0.138084073717287,1231.06662006892
-0.13989245626164,1231.07662006892
-0.14167152866989,1231.08662006892
-0.143886339983346,1231.09662006892
-0.146039344898668,1231.10662006892
-0.148949937400736,1231.11662006892
-0.151621880351348,1231.12662006892
-0.15416634426684,1231.13662006892
-0.155763009590894,1231.14662006892
-0.15683132574392,1231.15662006892
-0.157822122365558,1231.16662006892
-0.158377853870947,1231.17662006892
-0.158748296016544,1231.18662006892
-0.15899859025818,1231.19662006892
-0.159743526100833,1231.20662006892
-0.160557992963404,1231.21662006892
-0.163193281421746,1231.22662006892
-0.166224039446197,1231.23662006892
-0.170027088923581,1231.24662006892
-0.174667778603678,1231.25662006892
-0.179656911328,1231.26662006892
-0.184801416316651,1231.27662006892
-0.18959951490069,1231.28662006892
-0.193979324636205,1231.29662006892
-0.198745448759307,1231.30662006892
-0.203357812376868,1231.31662006892
-0.207506337870299,1231.32662006892
-0.211842269617319,1231.33662006892
-0.215934408703085,1231.34662006892
-0.219772877601252,1231.35662006892
-0.224185946379244,1231.36662006892
-0.228806620432126,1231.37662006892
-0.233580439375697,1231.38662006892
-0.238741420050931,1231.39662006892
-0.243424586052806,1231.40662006892
-0.248211200009224,1231.41662006892
-0.253071945194742,1231.42662006892
-0.257924196199001,1231.43662006892
-0.262584090562439,1231.44662006892
-0.267345361955585,1231.45662006892
-0.272719626775121,1231.46662006892
-0.277727509841794,1231.47662006892
-0.282333567452003,1231.48662006892
-0.286775811551838,1231.49662006892
-0.291439948575531,1231.50662006892
-0.296446272997833,1231.51662006892
-0.3019030556473,1231.52662006892
-0.307431327036974,1231.53662006892
-0.313135019786064,1231.54662006892
-0.318222558218939,1231.55662006892
-0.32170784840308,1231.56662006892
-0.322855558395994,1231.57662006892
-0.321086423888067,1231.58662006892
-0.31561395995499,1231.59662006892
-0.30743798294548,1231.60662006892
-0.297054282083486,1231.61662006892
-0.285350910351855,1231.62662006892
-0.272736231273088,1231.63662006892
-0.260702518764867,1231.64662006892
-0.249072456283695,1231.65662006892
-0.238724637497736,1231.66662006892
-0.230379011216329,1231.67662006892
-0.224047354949675,1231.68662006892
-0.219392546680991,1231.69662006892
-0.216234312536972,1231.70662006892
-0.21367443627054,1231.71662006892
-0.211855986161847,1231.72662006892
-0.210056312020554,1231.73662006892
-0.208466639386798,1231.74662006892
-0.207073886118131,1231.75662006892
-0.205309295182802,1231.76662006892
-0.204356739937378,1231.77662006892
-0.203916628564987,1231.78662006892
-0.203384261402185,1231.79662006892
-0.203445276826557,1231.80662006892
-0.204056582264198,1231.81662006892
-0.204519681800007,1231.82662006892
-0.206036828047412,1231.83662006892
-0.207267759186871,1231.84662006892
-0.209278355943836,1231.85662006892
-0.211396992494816,1231.86662006892
-0.213097953208353,1231.87662006892
-0.215260637628531,1231.88662006892
-0.217433370372311,1231.89662006892
-0.219335128503596,1231.90662006892
-0.220861229996926,1231.91662006892
-0.222097809722466,1231.92662006892
-0.222917780194507,1231.93662006892
-0.223709893751543,1231.94662006892
-0.225282190498417,1231.95662006892
-0.226544781453278,1231.96662006892
-0.227304923107777,1231.97662006892
-0.22831634657847,1231.98662006892
-0.229520079888301,1231.99662006892
-0.230895807093515,1232.00662006892
-0.232170254060338,1232.01662006892
-0.23384259462604,1232.02662006892
-0.235755193718535,1232.03662006892
-0.238242850253598,1232.04662006892
-0.240400148303626,1232.05662006892
-0.242624675948445,1232.06662006892
-0.245402543026141,1232.07662006892
-0.247763474175048,1232.08662006892
-0.250515311844058,1232.09662006892
-0.253923497603769,1232.10662006892
-0.25766124171423,1232.11662006892
-0.26116815512165,1232.12662006892
-0.265557573487746,1232.13662006892
-0.270027153861457,1232.14662006892
-0.274507449091372,1232.15662006892
-0.279344313137622,1232.16662006892
-0.284270483605087,1232.17662006892
-0.288843162693146,1232.18662006892
-0.292736205010571,1232.19662006892
-0.296475746456792,1232.20662006892
-0.300130272982947,1232.21662006892
-0.303478857186276,1232.22662006892
-0.307321691085744,1232.23662006892
-0.310954333395252,1232.24662006892
-0.314235350593297,1232.25662006892
-0.318050084760615,1232.26662006892
-0.321625807519349,1232.27662006892
-0.326186951618042,1232.28662006892
-0.33020814263002,1232.29662006892
-0.333933996181944,1232.30662006892
-0.3378124412602,1232.31662006892
-0.341178743062336,1232.32662006892
-0.344967416041531,1232.33662006892
-0.348800923465231,1232.34662006892
-0.352841792805317,1232.35662006892
-0.35614409561621,1232.36662006892
-0.35846467305129,1232.37662006892
-0.358655141785358,1232.38662006892
-0.355460206376652,1232.39662006892
-0.349776573107329,1232.40662006892
-0.341802108861999,1232.41662006892
-0.332233745978584,1232.42662006892
-0.321999423969215,1232.43662006892
-0.312196344275969,1232.44662006892
-0.303104766200638,1232.45662006892
-0.29513013777616,1232.46662006892
-0.2881381905999,1232.47662006892
-0.282191425233096,1232.48662006892
-0.278281772919061,1232.49662006892
-0.275403088307257,1232.50662006892
-0.273508758331278,1232.51662006892
-0.273150224901006,1232.52662006892
-0.273575482343435,1232.53662006892
-0.274867853548974,1232.54662006892
-0.275982958817664,1232.55662006892
-0.276610621796846,1232.56662006892
-0.276438402322956,1232.57662006892
-0.276088950140187,1232.58662006892
-0.27566325088486,1232.59662006892
-0.275290430136251,1232.60662006892
-0.275149084400494,1232.61662006892
-0.275467520423115,1232.62662006892
-0.275972205291456,1232.63662006892
-0.276945055570791,1232.64662006892
-0.27856217966704,1232.65662006892
-0.280924807969525,1232.66662006892
-0.283735198546327,1232.67662006892
-0.286423922137404,1232.68662006892
-0.288570585185202,1232.69662006892
-0.290339714886192,1232.70662006892
-0.291926275647244,1232.71662006892
-0.293326964682547,1232.72662006892
-0.294279332142679,1232.73662006892
-0.293535494386607,1232.74662006892
-0.292947103254212,1232.75662006892
-0.292110823145819,1232.76662006892
-0.291551159906803,1232.77662006892
-0.291263669426941,1232.78662006892
-0.291901161995052,1232.79662006892
-0.292352548388288,1232.80662006892
-0.294196720199424,1232.81662006892
-0.295920975423511,1232.82662006892
-0.297471263093458,1232.83662006892
-0.299632053754775,1232.84662006892
-0.30114572112289,1232.85662006892
-0.302897235229704,1232.86662006892
-0.304548216697366,1232.87662006892
-0.306232742299439,1232.88662006892
-0.307620896593187,1232.89662006892
-0.308910899468382,1232.90662006892
-0.310903866620781,1232.91662006892
-0.313243918958075,1232.92662006892
-0.315768565063845,1232.93662006892
-0.318581090443747,1232.94662006892
-0.321695977597459,1232.95662006892
-0.324691145915875,1232.96662006892
-0.328090593492884,1232.97662006892
-0.330649118511119,1232.98662006892
-0.333516534735485,1232.99662006892
-0.335804322089558,1233.00662006892
-0.33799817866341,1233.01662006892
-0.340314221899735,1233.02662006892
-0.342163488407239,1233.03662006892
-0.344062403851786,1233.04662006892
-0.346166091303079,1233.05662006892
-0.348345861096496,1233.06662006892
-0.350801631130295,1233.07662006892
-0.353879750472743,1233.08662006892
-0.356923347309558,1233.09662006892
-0.360291275685198,1233.10662006892
-0.363585955529684,1233.11662006892
-0.366348620463713,1233.12662006892
-0.367979139273448,1233.13662006892
-0.368935721195273,1233.14662006892
-0.368198290872327,1233.15662006892
-0.365123426802184,1233.16662006892
-0.36040768492607,1233.17662006892
-0.354371275878965,1233.18662006892
-0.34721571331678,1233.19662006892
-0.340159041860551,1233.20662006892
-0.332813508757251,1233.21662006892
-0.325616729323147,1233.22662006892
-0.3195530645105,1233.23662006892
-0.314241453821191,1233.24662006892
-0.310459889531123,1233.25662006892
-0.308340390828446,1233.26662006892
-0.307079090630903,1233.27662006892
-0.306385177873107,1233.28662006892
-0.305870365099941,1233.29662006892
-0.305779145340905,1233.30662006892
-0.305697908585478,1233.31662006892
-0.306276847875929,1233.32662006892
-0.30689512426552,1233.33662006892
-0.308147664534646,1233.34662006892
-0.308647017362547,1233.35662006892
-0.308981899828294,1233.36662006892
-0.30945966588073,1233.37662006892
-0.310220876166631,1233.38662006892
-0.311408501448133,1233.39662006892
-0.312700164945546,1233.40662006892
-0.314020450387445,1233.41662006892
-0.315180766848677,1233.42662006892
-0.315992244849957,1233.43662006892
-0.317161049600766,1233.44662006892
-0.317869178886023,1233.45662006892
-0.319387854067579,1233.46662006892
-0.321046793273044,1233.47662006892
-0.322674399754598,1233.48662006892
-0.324142906359457,1233.49662006892
-0.325020587349484,1233.50662006892
-0.325670171599955,1233.51662006892
-0.326305199106256,1233.52662006892
-0.326527944818579,1233.53662006892
-0.326318448614336,1233.54662006892
-0.326191968334762,1233.55662006892
-0.32608045500975,1233.56662006892
-0.326283331796502,1233.57662006892
-0.327069010354752,1233.58662006892
-0.328947792364905,1233.59662006892
-0.33046789724119,1233.60662006892
-0.332436660995936,1233.61662006892
-0.334499635261097,1233.62662006892
-0.336807000530119,1233.63662006892
-0.339338465544248,1233.64662006892
-0.342356889355155,1233.65662006892
-0.344928734536583,1233.66662006892
-0.346926934869198,1233.67662006892
-0.349083800092239,1233.68662006892
-0.351031806125776,1233.69662006892
-0.353294660448135,1233.70662006892
-0.35513496720415,1233.71662006892
-0.35724151969136,1233.72662006892
-0.359493960017527,1233.73662006892
-0.361695346448238,1233.74662006892
-0.364356423835525,1233.75662006892
-0.367215794069314,1233.76662006892
-0.370066025558096,1233.77662006892
-0.372788652378371,1233.78662006892
-0.374711730828059,1233.79662006892
-0.377020692652292,1233.80662006892
-0.378783485556589,1233.81662006892
-0.380303212704704,1233.82662006892
-0.382557650681686,1233.83662006892
-0.384663932318385,1233.84662006892
-0.387354800658351,1233.85662006892
-0.390315473536747,1233.86662006892
-0.393887901775857,1233.87662006892
-0.397123976300291,1233.88662006892
-0.399682440192371,1233.89662006892
-0.401471817920862,1233.90662006892
-0.401843020836521,1233.91662006892
-0.399986612679518,1233.92662006892
-0.395947969142573,1233.93662006892
-0.389663651087558,1233.94662006892
-0.382399966923223,1233.95662006892
-0.375100342466689,1233.96662006892
-0.36834277768513,1233.97662006892
-0.361800347844127,1233.98662006892
-0.356135712444582,1233.99662006892
-0.351606218277536,1234.00662006892
-0.348284623263347,1234.01662006892
-0.346719904866256,1234.02662006892
-0.346891610205479,1234.03662006892
-0.347745398012985,1234.04662006892
-0.348683060068116,1234.05662006892
-0.349670727945874,1234.06662006892
-0.350534412086807,1234.07662006892
-0.351487765674949,1234.08662006892
-0.351896990476395,1234.09662006892
-0.352202152314442,1234.10662006892
-0.352218082841599,1234.11662006892
-0.352250734960891,1234.12662006892
-0.352542602278786,1234.13662006892
-0.352799301847227,1234.14662006892
-0.353152196791054,1234.15662006892
-0.353928879892014,1234.16662006892
-0.355236956744413,1234.17662006892
-0.356827634092064,1234.18662006892
-0.358757092663357,1234.19662006892
-0.360517139512678,1234.20662006892
-0.361586260588393,1234.21662006892
-0.361808223786911,1234.22662006892
-0.36152870923876,1234.23662006892
-0.361216628809954,1234.24662006892
-0.360614011043112,1234.25662006892
-0.360297320730746,1234.26662006892
-0.359894193283833,1234.27662006892
-0.359473009206488,1234.28662006892
-0.359388604747257,1234.29662006892
-0.358777373132343,1234.30662006892
-0.359003926071972,1234.31662006892
-0.359438488642409,1234.32662006892
-0.360176299258478,1234.33662006892
-0.361149673283931,1234.34662006892
-0.36254936673582,1234.35662006892
-0.363906446418074,1234.36662006892
-0.365259482587567,1234.37662006892
-0.366299151887224,1234.38662006892
-0.36807878646268,1234.39662006892
-0.369571446437307,1234.40662006892
-0.371541171491028,1234.41662006892
-0.372918295754646,1234.42662006892
-0.374143447145924,1234.43662006892
-0.375234188285134,1234.44662006892
-0.376138477037549,1234.45662006892
-0.377448341071529,1234.46662006892
-0.378734337457878,1234.47662006892
-0.379797483459701,1234.48662006892
-0.380877089326504,1234.49662006892
-0.382688905043802,1234.50662006892
-0.384174082012754,1234.51662006892
-0.386459788258008,1234.52662006892
-0.388223566808758,1234.53662006892
-0.390107138487581,1234.54662006892
-0.391857610132024,1234.55662006892
-0.39324446323596,1234.56662006892
-0.394211676929374,1234.57662006892
-0.395149692161856,1234.58662006892
-0.395996027857693,1234.59662006892
-0.397232722366812,1234.60662006892
-0.398602857901854,1234.61662006892
-0.400334561812427,1234.62662006892
-0.402334683048059,1234.63662006892
-0.404372392701181,1234.64662006892
-0.407114063085363,1234.65662006892
-0.409541468081074,1234.66662006892
-0.412829590507853,1234.67662006892
-0.415700968548378,1234.68662006892
-0.418141747449677,1234.69662006892
-0.419406909445459,1234.70662006892
-0.419581650370772,1234.71662006892
-0.417418235988148,1234.72662006892
-0.413518847226755,1234.73662006892
-0.408246074336321,1234.74662006892
-0.401677552954498,1234.75662006892
-0.394218832688715,1234.76662006892
-0.387110461644857,1234.77662006892
-0.380394661590395,1234.78662006892
-0.374627641891114,1234.79662006892
-0.370024163537306,1234.80662006892
-0.366439053006072,1234.81662006892
-0.364098497764053,1234.82662006892
-0.363341590765377,1234.83662006892
-0.363450571450419,1234.84662006892
-0.364150497025102,1234.85662006892
-0.364720774698147,1234.86662006892
-0.365109995341777,1234.87662006892
-0.364969412904666,1234.88662006892
-0.364499774865795,1234.89662006892
-0.364119173699917,1234.90662006892
-0.363429604305966,1234.91662006892
-0.362881303210181,1234.92662006892
-0.362243336331132,1234.93662006892
-0.361906046072447,1234.94662006892
-0.361616698489558,1234.95662006892
-0.361712112674006,1234.96662006892
-0.361835224053124,1234.97662006892
-0.362333229690078,1234.98662006892
-0.362013022202224,1234.99662006892
-0.361483347795839,1235.00662006892
-0.360900468131401,1235.01662006892
-0.360445935395386,1235.02662006892
-0.360102144080064,1235.03662006892
-0.359734831330705,1235.04662006892
-0.359734919237767,1235.05662006892
-0.359982908622178,1235.06662006892
-0.359331098421391,1235.07662006892
-0.358616615655957,1235.08662006892
-0.357618851908842,1235.09662006892
-0.356629045752436,1235.10662006892
-0.355473525144195,1235.11662006892
-0.35456264893347,1235.12662006892
-0.35404469029531,1235.13662006892
-0.353757406495237,1235.14662006892
-0.353948701769188,1235.15662006892
-0.354886235872046,1235.16662006892
-0.355814903765034,1235.17662006892
-0.356839560515022,1235.18662006892
-0.357668099812792,1235.19662006892
-0.358153456142534,1235.20662006892
-0.358552428234194,1235.21662006892
-0.358984432721176,1235.22662006892
-0.359700201427284,1235.23662006892
-0.360452882585341,1235.24662006892
-0.361274278673419,1235.25662006892
-0.362155522673249,1235.26662006892
-0.362674959766714,1235.27662006892
-0.363988970839765,1235.28662006892
-0.365366163808364,1235.29662006892
-0.366794290223588,1235.30662006892
-0.368919366258435,1235.31662006892
-0.370399516551733,1235.32662006892
-0.371684197311492,1235.33662006892
-0.372559409594532,1235.34662006892
-0.373220374777548,1235.35662006892
-0.373920271514366,1235.36662006892
-0.374984639701135,1235.37662006892
-0.376418693003695,1235.38662006892
-0.377897758326498,1235.39662006892
-0.379142509533577,1235.40662006892
-0.379991153512797,1235.41662006892
-0.38056783981419,1235.42662006892
-0.381533639389774,1235.43662006892
-0.38241126029914,1235.44662006892
-0.383465337314603,1235.45662006892
-0.384130220977282,1235.46662006892
-0.384846623056103,1235.47662006892
-0.385724235810293,1235.48662006892
-0.386729365174212,1235.49662006892
-0.387211801772593,1235.50662006892
-0.387411358465081,1235.51662006892
-0.385962186615639,1235.52662006892
-0.38348322463103,1235.53662006892
-0.379101707611075,1235.54662006892
-0.373000864529776,1235.55662006892
-0.365646239993435,1235.56662006892
-0.357881309264133,1235.57662006892
-0.350120111671752,1235.58662006892
-0.342932211725264,1235.59662006892
-0.336933609409979,1235.60662006892
-0.331819830228393,1235.61662006892
-0.328099824621324,1235.62662006892
-0.325228803542317,1235.63662006892
-0.323171697247187,1235.64662006892
-0.322073774423995,1235.65662006892
-0.321234164071474,1235.66662006892
-0.320794506727214,1235.67662006892
-0.320349969921598,1235.68662006892
-0.319925661568455,1235.69662006892
-0.319151820146621,1235.70662006892
-0.318238904478059,1235.71662006892
-0.317015938695291,1235.72662006892
-0.316110601928138,1235.73662006892
-0.315219908428531,1235.74662006892
-0.314543754633054,1235.75662006892
-0.31410942611324,1235.76662006892
-0.313355620545149,1235.77662006892
-0.313102333997424,1235.78662006892
-0.312503203318379,1235.79662006892
-0.31221925650351,1235.80662006892
-0.312064292158856,1235.81662006892
-0.311457182069303,1235.82662006892
-0.31081032125089,1235.83662006892
-0.3098549719375,1235.84662006892
-0.308771122280313,1235.85662006892
-0.307567298941795,1235.86662006892
-0.306238252373434,1235.87662006892
-0.304724358258128,1235.88662006892
-0.303262512078051,1235.89662006892
-0.301615852525467,1235.90662006892
-0.300091268432954,1235.91662006892
-0.298048526664262,1235.92662006892
-0.297257201375077,1235.93662006892
-0.295951297102499,1235.94662006892
-0.295375338275873,1235.95662006892
-0.294966482044797,1235.96662006892
-0.294579148784317,1235.97662006892
-0.294664601276426,1235.98662006892
-0.294346238952832,1235.99662006892
-0.294084075260269,1236.00662006892
-0.293806564710558,1236.01662006892
-0.293357919773532,1236.02662006892
-0.292799918431716,1236.03662006892
-0.292587798056412,1236.04662006892
-0.293116397803551,1236.05662006892
-0.293924961794701,1236.06662006892
-0.294593077125784,1236.07662006892
-0.295069478530637,1236.08662006892
-0.295423582851004,1236.09662006892
-0.295436434249007,1236.10662006892
-0.295159726571004,1236.11662006892
-0.29519330708932,1236.12662006892
-0.295716177855379,1236.13662006892
-0.296198291269915,1236.14662006892
-0.297249318044717,1236.15662006892
-0.298065384762001,1236.16662006892
-0.299214125790382,1236.17662006892
-0.299463819819798,1236.18662006892
-0.299764361704761,1236.19662006892
-0.300117336102746,1236.20662006892
-0.300031844219101,1236.21662006892
-0.300087303866904,1236.22662006892
-0.300409358007135,1236.23662006892
-0.30093784831625,1236.24662006892
-0.301971676414572,1236.25662006892
-0.303258387079986,1236.26662006892
-0.305074650016678,1236.27662006892
-0.306636218206342,1236.28662006892
-0.308089772788397,1236.29662006892
-0.309027559261037,1236.30662006892
-0.309464452495416,1236.31662006892
-0.309030485754261,1236.32662006892
-0.307038232237237,1236.33662006892
-0.303721905148415,1236.34662006892
-0.298471740274655,1236.35662006892
-0.291973006449606,1236.36662006892
-0.284514680663768,1236.37662006892
-0.276445612441417,1236.38662006892
-0.268442398112223,1236.39662006892
-0.260762056613298,1236.40662006892
-0.253517978008638,1236.41662006892
-0.247793105034683,1236.42662006892
-0.242766963154576,1236.43662006892
-0.238993193154331,1236.44662006892
-0.235234370749012,1236.45662006892
-0.232454603237455,1236.46662006892
-0.230295829694398,1236.47662006892
-0.228674322532937,1236.48662006892
-0.227650742860823,1236.49662006892
-0.226242687393666,1236.50662006892
-0.224893917814068,1236.51662006892
-0.2231688093941,1236.52662006892
-0.221653264333493,1236.53662006892
-0.220141429202425,1236.54662006892
-0.218799604505345,1236.55662006892
-0.217827949476691,1236.56662006892
-0.216483946135512,1236.57662006892
-0.214930468764817,1236.58662006892
-0.213312412924793,1236.59662006892
-0.211944497694401,1236.60662006892
-0.211027743290435,1236.61662006892
-0.210151754609542,1236.62662006892
-0.209448025459593,1236.63662006892
-0.208463657525405,1236.64662006892
-0.207476011198117,1236.65662006892
-0.205817849879143,1236.66662006892
-0.204417541981013,1236.67662006892
-0.203096622578672,1236.68662006892
-0.201229103766439,1236.69662006892
-0.199396700730864,1236.70662006892
-0.197447142309073,1236.71662006892
-0.195368811408522,1236.72662006892
-0.193175967110823,1236.73662006892
-0.191182192576439,1236.74662006892
-0.18898308395217,1236.75662006892
-0.18765021693205,1236.76662006892
-0.186984330864311,1236.77662006892
-0.186515328641646,1236.78662006892
-0.186194188073522,1236.79662006892
-0.185767635636519,1236.80662006892
-0.185695217871238,1236.81662006892
-0.185751342873583,1236.82662006892
-0.185663828905068,1236.83662006892
-0.185609854604808,1236.84662006892
-0.185581286456108,1236.85662006892
-0.185562203160202,1236.86662006892
-0.185511486766822,1236.87662006892
-0.185724921632076,1236.88662006892
-0.185937371465341,1236.89662006892
-0.186511726542781,1236.90662006892
-0.187201897113868,1236.91662006892
-0.188242994765016,1236.92662006892
-0.189206510075038,1236.93662006892
-0.190404203139343,1236.94662006892
-0.191100203854871,1236.95662006892
-0.191653196534776,1236.96662006892
-0.192693550603145,1236.97662006892
-0.193738349322063,1236.98662006892
-0.194848816922458,1236.99662006892
-0.196444561391742,1237.00662006892
-0.197310991738286,1237.01662006892
-0.19777830320467,1237.02662006892
-0.197897737430127,1237.03662006892
-0.197655518230586,1237.04662006892
-0.197783777314036,1237.05662006892
-0.198335617318335,1237.06662006892
-0.199402284259652,1237.07662006892
-0.201139147166607,1237.08662006892
-0.202993442395622,1237.09662006892
-0.204360459740708,1237.10662006892
-0.20495592946885,1237.11662006892
-0.204660459866606,1237.12662006892
-0.202342443316611,1237.13662006892
-0.197902409594846,1237.14662006892
-0.191882611390307,1237.15662006892
-0.18400958447117,1237.16662006892
-0.17549598023131,1237.17662006892
-0.166561142989011,1237.18662006892
-0.158171763761853,1237.19662006892
-0.150077722637819,1237.20662006892
-0.143129813652199,1237.21662006892
-0.136822756632924,1237.22662006892
-0.132121898574974,1237.23662006892
-0.128855701971381,1237.24662006892
-0.126761298766058,1237.25662006892
-0.125388064554446,1237.26662006892
-0.125289126015674,1237.27662006892
-0.125390614455414,1237.28662006892
-0.125129887379214,1237.29662006892
-0.12517054077009,1237.30662006892
-0.124705993211074,1237.31662006892
-0.124009373987851,1237.32662006892
-0.123000239816938,1237.33662006892
-0.122294660932477,1237.34662006892
-0.121548724267763,1237.35662006892
-0.120985148492483,1237.36662006892
-0.120605454002546,1237.37662006892
-0.119919367981261,1237.38662006892
-0.119494071149701,1237.39662006892
-0.119091703185249,1237.40662006892
-0.119011967182424,1237.41662006892
-0.118766182788787,1237.42662006892
-0.118040658751617,1237.43662006892
-0.116441367100146,1237.44662006892
-0.115024124672142,1237.45662006892
-0.113610166818168,1237.46662006892
-0.111748895546129,1237.47662006892
-0.110194652723856,1237.48662006892
-0.108479507446541,1237.49662006892
-0.106365038704513,1237.50662006892
-0.104294297800292,1237.51662006892
-0.102690031952708,1237.52662006892
-0.101521700255189,1237.53662006892
-0.100402777868219,1237.54662006892
-0.0997721457611309,1237.55662006892
-0.0996780309915582,1237.56662006892
-0.100049868939321,1237.57662006892
-0.100694471924079,1237.58662006892
-0.101240859711384,1237.59662006892
-0.101494203530576,1237.60662006892
-0.101384489400905,1237.61662006892
-0.101274231509553,1237.62662006892
-0.101044299800318,1237.63662006892
-0.100959163647612,1237.64662006892
-0.101014601910803,1237.65662006892
-0.10139467154343,1237.66662006892
-0.101912172352754,1237.67662006892
-0.102950279001711,1237.68662006892
-0.104115199077061,1237.69662006892
-0.105040193329889,1237.70662006892
-0.105617229133722,1237.71662006892
-0.106512979097709,1237.72662006892
-0.107260581197097,1237.73662006892
-0.108529508324652,1237.74662006892
-0.109757320107994,1237.75662006892
-0.111656566141768,1237.76662006892
-0.113441130547327,1237.77662006892
-0.115314580860724,1237.78662006892
-0.116656478956833,1237.79662006892
-0.118002826833783,1237.80662006892
-0.119213337678488,1237.81662006892
-0.119543225935804,1237.82662006892
-0.120077075867303,1237.83662006892
-0.120394060553388,1237.84662006892
-0.120883177659702,1237.85662006892
-0.122099308428258,1237.86662006892
-0.123196416166896,1237.87662006892
-0.124490256093374,1237.88662006892
-0.125663129175138,1237.89662006892
-0.127367863788235,1237.90662006892
-0.128823474728563,1237.91662006892
-0.129232271681931,1237.92662006892
-0.127650305531162,1237.93662006892
-0.12385042548827,1237.94662006892
-0.117813315121478,1237.95662006892
-0.109279281014347,1237.96662006892
-0.0996397547585151,1237.97662006892
-0.0895371432373515,1237.98662006892
-0.0792360175340414,1237.99662006892
-0.069914083889375,1238.00662006892
-0.0615668894310963,1238.01662006892
-0.0553211216805079,1238.02662006892
-0.0502988064543441,1238.03662006892
-0.0464122456841229,1238.04662006892
-0.0436377365447624,1238.05662006892
-0.0417325333161384,1238.06662006892
-0.0395025918498151,1238.07662006892
-0.0376047455054011,1238.08662006892
-0.0356736178421266,1238.09662006892
-0.0338595139262502,1238.10662006892
-0.0317875304329711,1238.11662006892
-0.0292688175194491,1238.12662006892
-0.0272344967156404,1238.13662006892
-0.0255953286338725,1238.14662006892
-0.0235636877080781,1238.15662006892
-0.021818057877156,1238.16662006892
-0.0204441033549517,1238.17662006892
-0.019006923249807,1238.18662006892
-0.0181978846910581,1238.19662006892
-0.017700916305426,1238.20662006892
-0.0168326018849865,1238.21662006892
-0.0158302986852866,1238.22662006892
-0.0149932122092667,1238.23662006892
-0.0142014895661377,1238.24662006892
-0.0141370527901445,1238.25662006892
-0.0136820732859482,1238.26662006892
-0.012986997623949,1238.27662006892
-0.012531646654387,1238.28662006892
-0.0117889552476842,1238.29662006892
-0.0109504186338899,1238.30662006892
-0.00895710178307257,1238.31662006892
-0.00679153845650133,1238.32662006892
-0.00417808220636825,1238.33662006892
-0.00197487694122308,1238.34662006892
8.60405682402449e-05,1238.35662006892
0.00170210691914331,1238.36662006892
0.0025092191172805,1238.37662006892
0.00309585796992819,1238.38662006892
0.00307624372026328,1238.39662006892
0.0022980011059094,1238.40662006892
0.00168397608991877,1238.41662006892
0.000874106713679387,1238.42662006892
-6.46670119546275e-05,1238.43662006892
-0.000809795152450784,1238.44662006892
-0.00166998997348333,1238.45662006892
-0.00228002001866756,1238.46662006892
-0.00309068697741754,1238.47662006892
-0.00417793435808854,1238.48662006892
-0.00509836964789786,1238.49662006892
-0.00641686859345931,1238.50662006892
-0.00752370057204256,1238.51662006892
-0.00889581537416513,1238.52662006892
-0.0108185355399565,1238.53662006892
-0.0126829085077703,1238.54662006892
-0.014347520912437,1238.55662006892
-0.0154865616266049,1238.56662006892
-0.0168958431842773,1238.57662006892
-0.0180353535476722,1238.58662006892
-0.0193541513199136,1238.59662006892
-0.0211658268667629,1238.60662006892
-0.0230741269151473,1238.61662006892
-0.0252216030683152,1238.62662006892
-0.0268872591774025,1238.63662006892
-0.0282940924323597,1238.64662006892
-0.0290069242726743,1238.65662006892
-0.0298416953287163,1238.66662006892
-0.0307295619680809,1238.67662006892
-0.0317620586951195,1238.68662006892
-0.0332933622315566,1238.69662006892
-0.034935518643365,1238.70662006892
-0.0363317346729527,1238.71662006892
-0.0378166908847844,1238.72662006892
-0.0379766248776072,1238.73662006892
-0.0368206970777845,1238.74662006892
-0.0334773250697191,1238.75662006892
-0.0274954280104409,1238.76662006892
-0.0197350317940723,1238.77662006892
-0.010570946056354,1238.78662006892
-0.00105462863453827,1238.79662006892
0.00855929524372891,1238.80662006892
0.0185645620677734,1238.81662006892
0.0283632643286676,1238.82662006892
0.0375797908110766,1238.83662006892
0.0451404814829736,1238.84662006892
0.0514321707084915,1238.85662006892
0.0567803810286248,1238.86662006892
0.0607286330472585,1238.87662006892
0.0638769162256158,1238.88662006892
0.0658932880740948,1238.89662006892
0.0674168634204512,1238.90662006892
0.0686675073708959,1238.91662006892
0.0700182025901956,1238.92662006892
0.0714239396843859,1238.93662006892
0.0734620482818424,1238.94662006892
0.0757160258625832,1238.95662006892
0.07796852785039,1238.96662006892
0.0804236234552119,1238.97662006892
0.0827083726203608,1238.98662006892
0.0847686666915386,1238.99662006892
0.0862723863269783,1239.00662006892
0.0871656146399118,1239.01662006892
0.0882634927643576,1239.02662006892
0.0892709934803457,1239.03662006892
0.0905200072218793,1239.04662006892
0.0910596521327804,1239.05662006892
0.09185155857878,1239.06662006892
0.0928803761917278,1239.07662006892
0.0941742837504613,1239.08662006892
0.0957647023014376,1239.09662006892
0.0980802570485316,1239.10662006892
0.10035909760622,1239.11662006892
0.102543512691698,1239.12662006892
0.104721050257758,1239.13662006892
0.106344559572952,1239.14662006892
0.10794203727117,1239.15662006892
0.108277124284223,1239.16662006892
0.10832156536768,1239.17662006892
0.108207491388088,1239.18662006892
0.108673368634006,1239.19662006892
0.109302510310844,1239.20662006892
0.109633653795192,1239.21662006892
0.110109553421683,1239.22662006892
0.110315258618545,1239.23662006892
0.109901542284728,1239.24662006892
0.109241200326376,1239.25662006892
0.108348060691133,1239.26662006892
0.107238295259784,1239.27662006892
0.106289473237026,1239.28662006892
0.105776347339941,1239.29662006892
0.104823666052864,1239.30662006892
0.104218477634873,1239.31662006892
0.1033110957961,1239.32662006892
0.102253182677796,1239.33662006892
0.100717334111303,1239.34662006892
0.0993212159707656,1239.35662006892
0.0969928418373667,1239.36662006892
0.0947171357273382,1239.37662006892
0.0924254780882581,1239.38662006892
0.0905709830183287,1239.39662006892
0.0890765699303572,1239.40662006892
0.0879791832107462,1239.41662006892
0.0869770415553598,1239.42662006892
0.0854419256277969,1239.43662006892
0.0842002217126419,1239.44662006892
0.0823558870633939,1239.45662006892
0.0802520285228899,1239.46662006892
0.0787146902108404,1239.47662006892
0.0761373914378425,1239.48662006892
0.0741165292562683,1239.49662006892
0.0720779729694178,1239.50662006892
0.070876924519057,1239.51662006892
0.070008883137975,1239.52662006892
0.069835627215597,1239.53662006892
0.0715516022694697,1239.54662006892
0.0744837822663567,1239.55662006892
0.0793514685353671,1239.56662006892
0.0857142963357423,1239.57662006892
0.0934015683779098,1239.58662006892
0.10268713741371,1239.59662006892
0.112389818119251,1239.60662006892
0.122224205174306,1239.61662006892
0.132039543238364,1239.62662006892
0.141104376506365,1239.63662006892
0.148673259973109,1239.64662006892
0.15480569911558,1239.65662006892
0.159513476817188,1239.66662006892
0.162444974241052,1239.67662006892
0.165239557873825,1239.68662006892
0.167092937714197,1239.69662006892
0.168133086079917,1239.70662006892
0.169222860716684,1239.71662006892
0.170486916426811,1239.72662006892
0.171980834038,1239.73662006892
0.173165400730079,1239.74662006892
0.174080331870251,1239.75662006892
0.174754720590023,1239.76662006892
0.175177134329017,1239.77662006892
0.17587418689089,1239.78662006892
0.176687654343237,1239.79662006892
0.177626852037262,1239.80662006892
0.178653211674872,1239.81662006892
0.179469038160974,1239.82662006892
0.180123859294927,1239.83662006892
0.180297073560051,1239.84662006892
0.180186579894245,1239.85662006892
0.180706343475817,1239.86662006892
0.181691125005424,1239.87662006892
0.182537347069592,1239.88662006892
0.184323866817993,1239.89662006892
0.186567440420809,1239.90662006892
0.189158104404515,1239.91662006892
0.192433126603727,1239.92662006892
0.194913995259295,1239.93662006892
0.196879652840212,1239.94662006892
0.197889407741864,1239.95662006892
0.197938664076872,1239.96662006892
0.197938527443195,1239.97662006892
0.196999177031394,1239.98662006892
0.196267587934694,1239.99662006892
0.195481396341666,1240.00662006892
0.194582700428316,1240.01662006892
0.194032268186908,1240.02662006892
0.193487991005728,1240.03662006892
0.193021548301186,1240.04662006892
0.191548469816248,1240.05662006892
0.189916133569769,1240.06662006892
0.187907273415446,1240.07662006892
0.186398322485921,1240.08662006892
0.184378589832672,1240.09662006892
0.181813252210001,1240.10662006892
0.179272649775391,1240.11662006892
0.176197092607627,1240.12662006892
0.173307002433129,1240.13662006892
0.170245643009075,1240.14662006892
0.167906580944621,1240.15662006892
0.165524013569791,1240.16662006892
0.163412312380724,1240.17662006892
0.161711627311283,1240.18662006892
0.159675610847525,1240.19662006892
0.157173475085392,1240.20662006892
0.154239313215251,1240.21662006892
0.151491969793195,1240.22662006892
0.148892430824591,1240.23662006892
0.146328491697138,1240.24662006892
0.142977524254322,1240.25662006892
0.140067140181914,1240.26662006892
0.136920498724985,1240.27662006892
0.133132475555561,1240.28662006892
0.129570525599383,1240.29662006892
0.125817083080682,1240.30662006892
0.121974801722813,1240.31662006892
0.118829773885661,1240.32662006892
0.116383333761552,1240.33662006892
0.115816555822323,1240.34662006892
0.117358835220348,1240.35662006892
0.121385706341081,1240.36662006892
0.127462087436578,1240.37662006892
0.134925451908478,1240.38662006892
0.143592931922742,1240.39662006892
0.152970068092801,1240.40662006892
0.161920474895992,1240.41662006892
0.170335921053651,1240.42662006892
0.177243210941952,1240.43662006892
0.182894168801047,1240.44662006892
0.186809260628572,1240.45662006892
0.189263140089831,1240.46662006892
0.190742224717507,1240.47662006892
0.191651876170886,1240.48662006892
0.191732359569495,1240.49662006892
0.191860810879796,1240.50662006892
0.191844649639279,1240.51662006892
0.19191436357503,1240.52662006892
0.191857165871167,1240.53662006892
0.191479915883169,1240.54662006892
0.19097921353841,1240.55662006892
0.190401400905566,1240.56662006892
0.189929604322038,1240.57662006892
0.189360501411494,1240.58662006892
0.189035720814021,1240.59662006892
0.188605070301385,1240.60662006892
0.187630531849675,1240.61662006892
0.186699058574274,1240.62662006892
0.184996300383855,1240.63662006892
0.18292300499724,1240.64662006892
0.180988412601038,1240.65662006892
0.17939034446445,1240.66662006892
0.178337320530051,1240.67662006892
0.177622593419173,1240.68662006892
0.177654854544605,1240.69662006892
0.177931466543389,1240.70662006892
0.17809616714878,1240.71662006892
0.17844684008321,1240.72662006892
0.178337055125614,1240.73662006892
0.178129571522874,1240.74662006892
0.177673158640835,1240.75662006892
0.176691964636543,1240.76662006892
0.175409885851802,1240.77662006892
0.173477673750546,1240.78662006892
0.171732177728596,1240.79662006892
0.169393798736322,1240.80662006892
0.167184382732171,1240.81662006892
0.164637171907295,1240.82662006892
0.16278871182119,1240.83662006892
0.160406152440099,1240.84662006892
0.158434035781555,1240.85662006892
0.156055789784735,1240.86662006892
0.153257245161488,1240.87662006892
0.150605236583716,1240.88662006892
0.148028608446927,1240.89662006892
0.145249520791716,1240.90662006892
0.142769051876383,1240.91662006892
0.139933625225295,1240.92662006892
0.136956438490567,1240.93662006892
0.133943565976402,1240.94662006892
0.130649484018543,1240.95662006892
0.126762813336878,1240.96662006892
0.123036694061639,1240.97662006892
0.119446254762074,1240.98662006892
0.116169242082659,1240.99662006892
0.112884470295056,1241.00662006892
0.109786148556963,1241.01662006892
0.106333330206891,1241.02662006892
0.102939981871427,1241.03662006892
0.0999910670097796,1241.04662006892
0.0970953769827336,1241.05662006892
0.094009865788329,1241.06662006892
0.0905365825693135,1241.07662006892
0.0864970957273188,1241.08662006892
0.0823988038900672,1241.09662006892
0.0787603179490436,1241.10662006892
0.0745595525042061,1241.11662006892
0.071292244489456,1241.12662006892
0.0690516993654308,1241.13662006892
0.0685558466218011,1241.14662006892
0.0709308958689757,1241.15662006892
0.0753739392797125,1241.16662006892
0.0817924547013628,1241.17662006892
0.0896575200630894,1241.18662006892
0.0989143711366135,1241.19662006892
0.107721939483626,1241.20662006892
0.115742874714746,1241.21662006892
0.123259963445738,1241.22662006892
0.129889543514462,1241.23662006892
0.135538769645538,1241.24662006892
0.139975409915667,1241.25662006892
0.143160447454928,1241.26662006892
0.145000445322272,1241.27662006892
0.146287087171866,1241.28662006892
0.147168447750019,1241.29662006892
0.147674248512254,1241.30662006892
0.148319941284237,1241.31662006892
0.149283869933899,1241.32662006892
0.150329641116328,1241.33662006892
0.151334369610021,1241.34662006892
0.152319778104889,1241.35662006892
0.153278716239513,1241.36662006892
0.154471748934338,1241.37662006892
0.155381143984616,1241.38662006892
0.155900189327002,1241.39662006892
0.155189289049512,1241.40662006892
0.154248536237145,1241.41662006892
0.153181027457395,1241.42662006892
0.151968864751697,1241.43662006892
0.150723676427868,1241.44662006892
0.150006617021777,1241.45662006892
0.149023389923998,1241.46662006892
0.14834388721429,1241.47662006892
0.147410229602899,1241.48662006892
0.146542449060839,1241.49662006892
0.146030352443179,1241.50662006892
0.145207802839198,1241.51662006892
0.144919802002793,1241.52662006892
0.144642857939203,1241.53662006892
0.144402008354443,1241.54662006892
0.144081343976836,1241.55662006892
0.14375183511502,1241.56662006892
0.143381080152411,1241.57662006892
0.142912747746096,1241.58662006892
0.14168633987619,1241.59662006892
0.140881804625816,1241.60662006892
0.139961463594492,1241.61662006892
0.13859914764502,1241.62662006892
0.137276227836856,1241.63662006892
0.135265736984206,1241.64662006892
0.133411948589377,1241.65662006892
0.13126404035601,1241.66662006892
0.128862873305141,1241.67662006892
0.126251504077542,1241.68662006892
0.12268016128947,1241.69662006892
0.119265606217155,1241.70662006892
0.115877778837524,1241.71662006892
0.113297470273815,1241.72662006892
0.110895950554228,1241.73662006892
0.109051546499717,1241.74662006892
0.107753215076767,1241.75662006892
0.106275011007453,1241.76662006892
0.104033515723325,1241.77662006892
0.101609828666074,1241.78662006892
0.0984350364615052,1241.79662006892
0.0949867075641984,1241.80662006892
0.0911907696266958,1241.81662006892
0.0876498367823565,1241.82662006892
0.0848521059691656,1241.83662006892
0.0821745429207714,1241.84662006892
0.0798203834126738,1241.85662006892
0.0770442828925622,1241.86662006892
0.0740931521452806,1241.87662006892
0.0708744688735963,1241.88662006892
0.0670830626362335,1241.89662006892
0.063288148464216,1241.90662006892
0.0600485630122136,1241.91662006892
0.0574801016154393,1241.92662006892
0.0559935223578397,1241.93662006892
0.0557658751449697,1241.94662006892
0.0574327562685393,1241.95662006892
0.0613099360298485,1241.96662006892
0.0673503439770769,1241.97662006892
0.0756432571923202,1241.98662006892
0.0855911306149368,1241.99662006892
0.0966080862896803,1242.00662006892
0.107352374025964,1242.01662006892
0.1173275465949,1242.02662006892
0.126294637728528,1242.03662006892
0.133882547685898,1242.04662006892
0.140221361577015,1242.05662006892
0.145293704829106,1242.06662006892
0.149339618241227,1242.07662006892
0.152146500164956,1242.08662006892
0.154667802640149,1242.09662006892
0.156912976770618,1242.10662006892
0.158951554650307,1242.11662006892
0.161177982696105,1242.12662006892
0.163033118853616,1242.13662006892
0.164989761288558,1242.14662006892
0.166544543949868,1242.15662006892
0.16757329473853,1242.16662006892
0.168493456293567,1242.17662006892
0.169592613675241,1242.18662006892
0.170136550771392,1242.19662006892
0.170186613928418,1242.20662006892
0.170388165839846,1242.21662006892
0.169810741875302,1242.22662006892
0.168834498398834,1242.23662006892
0.168029533576073,1242.24662006892
0.167523655743004,1242.25662006892
0.167567399064585,1242.26662006892
0.168254053856432,1242.27662006892
0.168859431740662,1242.28662006892
0.169822943843493,1242.29662006892
0.170350699766973,1242.30662006892
0.171160054729478,1242.31662006892
0.172059767207845,1242.32662006892
0.173504952113052,1242.33662006892
0.174833083143162,1242.34662006892
0.176350228679016,1242.35662006892
0.177657518043669,1242.36662006892
0.178122708390563,1242.37662006892
0.177861136129953,1242.38662006892
0.177237063204428,1242.39662006892
0.175900557919272,1242.40662006892
0.174720366228334,1242.41662006892
0.173413228524919,1242.42662006892
0.172652429040522,1242.43662006892
0.171616741391051,1242.44662006892
0.169861086999671,1242.45662006892
0.167343649530479,1242.46662006892
0.163954553190788,1242.47662006892
0.160108513198466,1242.48662006892
0.156454826259379,1242.49662006892
0.153552298106837,1242.50662006892
0.151028887959121,1242.51662006892
0.149188297634758,1242.52662006892
0.147550962952637,1242.53662006892
0.145999590229213,1242.54662006892
0.144216144996553,1242.55662006892
0.14261582237526,1242.56662006892
0.140705840308959,1242.57662006892
0.138294999369277,1242.58662006892
0.136463908664394,1242.59662006892
0.135010313985875,1242.60662006892
0.133906778139446,1242.61662006892
0.132517406798314,1242.62662006892
0.130125605956898,1242.63662006892
0.12661324373929,1242.64662006892
0.123304149216103,1242.65662006892
0.119664103848095,1242.66662006892
0.115343339143042,1242.67662006892
0.111229552759588,1242.68662006892
0.107641411554349,1242.69662006892
0.104468576732204,1242.70662006892
0.102589995493097,1242.71662006892
0.102245818243129,1242.72662006892
0.103347172687149,1242.73662006892
0.106542308981867,1242.74662006892
0.112771266036115,1242.75662006892
0.121962486231774,1242.76662006892
0.13329149148864,1242.77662006892
0.145614538281357,1242.78662006892
0.158127197417596,1242.79662006892
0.170115900503499,1242.80662006892
0.181255119996068,1242.81662006892
0.190703038160011,1242.82662006892
0.198920578070165,1242.83662006892
0.205555518516792,1242.84662006892
0.21041613491347,1242.85662006892
0.214333624104088,1242.86662006892
0.216766878627643,1242.87662006892
0.218600979213787,1242.88662006892
0.21984491083841,1242.89662006892
0.220848339805156,1242.90662006892
0.22187887844871,1242.91662006892
0.222800513316278,1242.92662006892
0.224427548958635,1242.93662006892
0.225943158706874,1242.94662006892
0.227283055790678,1242.95662006892
0.228785748284173,1242.96662006892
0.229646891919923,1242.97662006892
0.230202288851984,1242.98662006892
0.229793474327607,1242.99662006892
0.228509006051005,1243.00662006892
0.227452196346569,1243.01662006892
0.226497179652227,1243.02662006892
0.225464010234233,1243.03662006892
0.224937266854341,1243.04662006892
0.22467405931687,1243.05662006892
0.224609823583504,1243.06662006892
0.225178715173889,1243.07662006892
0.225968077913216,1243.08662006892
0.226766683843138,1243.09662006892
0.227527381668877,1243.10662006892
0.228318364949598,1243.11662006892
0.228665918338891,1243.12662006892
0.228967877169057,1243.13662006892
0.228673689934396,1243.14662006892
0.227911597652092,1243.15662006892
0.226669015242864,1243.16662006892
0.224640824744331,1243.17662006892
0.221890960272779,1243.18662006892
0.218511651082863,1243.19662006892
0.215193618664381,1243.20662006892
0.21249916790952,1243.21662006892
0.209773194194024,1243.22662006892
0.206313288179976,1243.23662006892
0.202933766115493,1243.24662006892
0.200023053576297,1243.25662006892
0.197316508283607,1243.26662006892
0.194794301711947,1243.27662006892
0.191685183430276,1243.28662006892
0.188834866020713,1243.29662006892
0.185688909597166,1243.30662006892
0.182040373406128,1243.31662006892
0.178336771172136,1243.32662006892
0.174493203863276,1243.33662006892
0.170118094568305,1243.34662006892
0.165881355564399,1243.35662006892
0.161461126388075,1243.36662006892
0.157413368436571,1243.37662006892
0.152965698110029,1243.38662006892
0.148602712821217,1243.39662006892
0.144257770818366,1243.40662006892
0.139954114326078,1243.41662006892
0.136090084699757,1243.42662006892
0.132249800464657,1243.43662006892
0.12844908618691,1243.44662006892
0.124172449713335,1243.45662006892
0.119757652811762,1243.46662006892
0.115317618232062,1243.47662006892
0.111383668126453,1243.48662006892
0.108530764320118,1243.49662006892
0.107275177266134,1243.50662006892
0.108106179618702,1243.51662006892
0.111722108152791,1243.52662006892
0.117987372789105,1243.53662006892
0.126615012653178,1243.54662006892
0.136790628103123,1243.55662006892
0.148025732634508,1243.56662006892
0.159742782485705,1243.57662006892
0.171031043008019,1243.58662006892
0.181091589038998,1243.59662006892
0.189526537933527,1243.60662006892
0.196064933933769,1243.61662006892
0.200758520458906,1243.62662006892
0.203685561966856,1243.63662006892
0.205179736039794,1243.64662006892
0.205859612284971,1243.65662006892
0.205820287836325,1243.66662006892
0.206185429307505,1243.67662006892
0.206525755970912,1243.68662006892
0.207199908991761,1243.69662006892
0.208101796897014,1243.70662006892
0.208936600220284,1243.71662006892
0.209292194411161,1243.72662006892
0.20931564959981,1243.73662006892
0.208803629209224,1243.74662006892
0.208332122182277,1243.75662006892
0.207565040120058,1243.76662006892
0.205983038067008,1243.77662006892
0.203960356741708,1243.78662006892
0.201552992979028,1243.79662006892
0.198916333891649,1243.80662006892
0.197044520339385,1243.81662006892
0.195111807985596,1243.82662006892
0.193692415416126,1243.83662006892
0.191973197990045,1243.84662006892
0.190691657938192,1243.85662006892
0.18973047739546,1243.86662006892
0.189855118816633,1243.87662006892
0.190513662688841,1243.88662006892
0.191167943741029,1243.89662006892
0.191001006606627,1243.90662006892
0.189981354358709,1243.91662006892
0.188352520959894,1243.92662006892
0.186268812477963,1243.93662006892
0.18386884642318,1243.94662006892
0.181057821181495,1243.95662006892
0.178037403748063,1243.96662006892
0.174911129812823,1243.97662006892
0.17200152296296,1243.98662006892
0.168907645577387,1243.99662006892
0.166065511506918,1244.00662006892
0.16317824802717,1244.01662006892
0.160587577454476,1244.02662006892
0.157989343706353,1244.03662006892
0.155645905412307,1244.04662006892
0.152681417104874,1244.05662006892
0.149511247033128,1244.06662006892
0.145891544577784,1244.07662006892
0.142540610043014,1244.08662006892
0.138691135163232,1244.09662006892
0.134755061541439,1244.10662006892
0.130362077117039,1244.11662006892
0.126659256649836,1244.12662006892
0.122245937953757,1244.13662006892
0.117789685994856,1244.14662006892
0.113069473858652,1244.15662006892
0.108072015418049,1244.16662006892
0.103205453766171,1244.17662006892
0.0981851770667446,1244.18662006892
0.0934639158782844,1244.19662006892
0.0896028019165103,1244.20662006892
0.0856007002815296,1244.21662006892
0.0823693353521699,1244.22662006892
0.0785011173450831,1244.23662006892
0.0740600149732171,1244.24662006892
0.0690536749681257,1244.25662006892
0.0626967963806754,1244.26662006892
0.0560088149350812,1244.27662006892
0.0506366939863138,1244.28662006892
0.04744774055702,1244.29662006892
0.0468585848184845,1244.30662006892
0.049772557883416,1244.31662006892
0.0555235292748597,1244.32662006892
0.0626162491196398,1244.33662006892
0.0710962573013303,1244.34662006892
0.0802062663515663,1244.35662006892
0.0896759889562539,1244.36662006892
0.0998824954912686,1244.37662006892
0.108960624771551,1244.38662006892
0.116885891457716,1244.39662006892
0.122551125541297,1244.40662006892
0.126349282870093,1244.41662006892
0.12843400051446,1244.42662006892
0.128618794590266,1244.43662006892
0.128794711967842,1244.44662006892
0.128189534625913,1244.45662006892
0.127848770585755,1244.46662006892
0.127645073233766,1244.47662006892
0.127070973923587,1244.48662006892
0.126818665007907,1244.49662006892
0.126286483780194,1244.50662006892
0.126023124540552,1244.51662006892
0.125731668950613,1244.52662006892
0.1250392135925,1244.53662006892
0.12391330133604,1244.54662006892
0.123168496360848,1244.55662006892
0.121779329782639,1244.56662006892
0.120269628759392,1244.57662006892
0.118590238784736,1244.58662006892
0.116379628590075,1244.59662006892
0.11398623607887,1244.60662006892
0.111357065853053,1244.61662006892
0.10889147769615,1244.62662006892
0.106833826950647,1244.63662006892
0.105002479575833,1244.64662006892
0.103661658771171,1244.65662006892
0.102824283872872,1244.66662006892
0.101903463014252,1244.67662006892
0.101243826520321,1244.68662006892
0.100846903989208,1244.69662006892
0.100465401399733,1244.70662006892
0.0995005398936036,1244.71662006892
0.098645579597775,1244.72662006892
0.0967835226232991,1244.73662006892
0.0947504693754045,1244.74662006892
0.0915753130932591,1244.75662006892
0.0875563923269204,1244.76662006892
0.0831132551860523,1244.77662006892
0.0793527924429703,1244.78662006892
0.0758687616763526,1244.79662006892
0.0729004688611134,1244.80662006892
0.0702973531977975,1244.81662006892
0.0676805777004945,1244.82662006892
0.0643766001813997,1244.83662006892
0.0610665589338677,1244.84662006892
0.0573827900582037,1244.85662006892
0.0534681302182301,1244.86662006892
0.0497811928616645,1244.87662006892
0.0461344144867739,1244.88662006892
0.0431908133815789,1244.89662006892
0.0401849595599592,1244.90662006892
0.0370964741462025,1244.91662006892
0.0333706134691742,1244.92662006892
0.0293934854443408,1244.93662006892
0.0246923648667791,1244.94662006892
0.0197582600632744,1244.95662006892
0.0140047814082217,1244.96662006892
0.00932413637396533,1244.97662006892
0.00492020948740653,1244.98662006892
0.00104434998600104,1244.99662006892
-0.00224433353083124,1245.00662006892
-0.00545894572188761,1245.01662006892
-0.00843325058962892,1245.02662006892
-0.0124627556537961,1245.03662006892
-0.01568580142139,1245.04662006892
-0.0193615801026814,1245.05662006892
-0.0229066263233614,1245.06662006892
-0.0267293434449505,1245.07662006892
-0.0308655762849588,1245.08662006892
-0.0347138086532857,1245.09662006892
-0.0377692173158547,1245.10662006892
-0.0385222892824974,1245.11662006892
-0.0371793328321323,1245.12662006892
-0.0335387524059345,1245.13662006892
-0.0279370807347741,1245.14662006892
-0.0214681455962625,1245.15662006892
-0.0143043547340396,1245.16662006892
-0.00722376050613115,1245.17662006892
-0.0013933923754177,1245.18662006892
0.00396524293308887,1245.19662006892
0.00825686184914715,1245.20662006892
0.0115367161277792,1245.21662006892
0.0145414539574358,1245.22662006892
0.0168457936789633,1245.23662006892
0.0183402540259781,1245.24662006892
0.0184295755172489,1245.25662006892
0.0173877058636694,1245.26662006892
0.0159798546650169,1245.27662006892
0.0144774361222466,1245.28662006892
0.0132860023226323,1245.29662006892
0.0125611125223616,1245.30662006892
0.0120657865307474,1245.31662006892
0.0115469428468864,1245.32662006892
0.0108210504442043,1245.33662006892
0.0101934517231463,1245.34662006892
0.00938490251942314,1245.35662006892
0.00804854332108045,1245.36662006892
0.00538846847478991,1245.37662006892
0.00257616113331776,1245.38662006892
0.000370267394269625,1245.39662006892
-0.0010695731425019,1245.40662006892
-0.00225557116241721,1245.41662006892
-0.00323685354374071,1245.42662006892
-0.0043869364368642,1245.43662006892
-0.00499810619380221,1245.44662006892
-0.00479910054107494,1245.45662006892
-0.00465160138756486,1245.46662006892
-0.00436597199872059,1245.47662006892
-0.00392937109705772,1245.48662006892
-0.00461026768719912,1245.49662006892
-0.00537645892525268,1245.50662006892
-0.00622831921934999,1245.51662006892
-0.00738286932943986,1245.52662006892
-0.00838176984534018,1245.53662006892
-0.00934630595766668,1245.54662006892
-0.010259301975472,1245.55662006892
-0.0116482444718527,1245.56662006892
-0.0136651304535356,1245.57662006892
-0.0161669552373302,1245.58662006892
-0.0187953441118412,1245.59662006892
-0.0214850498641131,1245.60662006892
-0.0235675254072153,1245.61662006892
-0.0252207065310333,1245.62662006892
-0.027194684181745,1245.63662006892
-0.0291908532606722,1245.64662006892
-0.0312033282674815,1245.65662006892
-0.033429407453322,1245.66662006892
-0.0357937706947119,1245.67662006892
-0.0383130453029317,1245.68662006892
-0.041276496035125,1245.69662006892
-0.0439061060761573,1245.70662006892
-0.0467580211833197,1245.71662006892
-0.0492377252030853,1245.72662006892
-0.0517510800312472,1245.73662006892
-0.0547806575938656,1245.74662006892
-0.0576843613049626,1245.75662006892
-0.0611751938122353,1245.76662006892
-0.0646371914784904,1245.77662006892
-0.0678998289986038,1245.78662006892
-0.0708025276870092,1245.79662006892
-0.0738946115122661,1245.80662006892
-0.0769587731819947,1245.81662006892
-0.079760299157828,1245.82662006892
-0.0826500837352608,1245.83662006892
-0.0861271956831682,1245.84662006892
-0.0893929588263626,1245.85662006892
-0.092522871203853,1245.86662006892
-0.0956835490126094,1245.87662006892
-0.0970601858003067,1245.88662006892
-0.0967728267599962,1245.89662006892
-0.0940345157244564,1245.90662006892
-0.0896759297345745,1245.91662006892
-0.0843562613010384,1245.92662006892
-0.0786620624070535,1245.93662006892
-0.0728663894507411,1245.94662006892
-0.0669008644488893,1245.95662006892
-0.0613182906289615,1245.96662006892
-0.0563011551937692,1245.97662006892
-0.0519786122567168,1245.98662006892
-0.0487714548309191,1245.99662006892
-0.0466069273384819,1246.00662006892
-0.0458889514879621,1246.01662006892
-0.0465020341722094,1246.02662006892
-0.0475372513013676,1246.03662006892
-0.0484091117670189,1246.04662006892
-0.0495368005840826,1246.05662006892
-0.0494132910238744,1246.06662006892
-0.0497846593073993,1246.07662006892
-0.0500942114604167,1246.08662006892
-0.0505701598026453,1246.09662006892
-0.05055402627306,1246.10662006892
-0.0504784382952806,1246.11662006892
-0.050195220604854,1246.12662006892
-0.0500140576174444,1246.13662006892
-0.0502963680853429,1246.14662006892
-0.0518242852349229,1246.15662006892
-0.053553449408465,1246.16662006892
-0.0556081826820361,1246.17662006892
-0.057474691957927,1246.18662006892
-0.0587180407563003,1246.19662006892
-0.0592461330036233,1246.20662006892
-0.0585946995093638,1246.21662006892
-0.0577269395788321,1246.22662006892
-0.057350751526997,1246.23662006892
-0.0571102725791903,1246.24662006892
-0.0570874150908511,1246.25662006892
-0.0571920926651845,1246.26662006892
-0.0571966956114057,1246.27662006892
-0.05730266599291,1246.28662006892
-0.0577050307248865,1246.29662006892
-0.0583484512466846,1246.30662006892
-0.0595543634597661,1246.31662006892
-0.0612144752632973,1246.32662006892
-0.062809465520955,1246.33662006892
-0.0646255657437881,1246.34662006892
-0.0661439114147562,1246.35662006892
-0.0688209116655037,1246.36662006892
-0.071893613496092,1246.37662006892
-0.0737029640068269,1246.38662006892
-0.0747180077494221,1246.39662006892
-0.0750237624479185,1246.40662006892
-0.0750883772769284,1246.41662006892
-0.0752781006876372,1246.42662006892
-0.0760487484452884,1246.43662006892
-0.0771682337621554,1246.44662006892
-0.0790494967980156,1246.45662006892
-0.0810879050076954,1246.46662006892
-0.0831496864563833,1246.47662006892
-0.0855474497191986,1246.48662006892
-0.0878345125117151,1246.49662006892
-0.0898810117949013,1246.50662006892
-0.0917074494938794,1246.51662006892
-0.0930626506717845,1246.52662006892
-0.0947548318742752,1246.53662006892
-0.0962778440745899,1246.54662006892
-0.0977899371123912,1246.55662006892
-0.099450841978577,1246.56662006892
-0.101054901592977,1246.57662006892
-0.103057233729507,1246.58662006892
-0.10538047117643,1246.59662006892
-0.107785402182966,1246.60662006892
-0.110077415265777,1246.61662006892
-0.112487216868008,1246.62662006892
-0.115341508056255,1246.63662006892
-0.11806205108336,1246.64662006892
-0.119696042321388,1246.65662006892
-0.120553008226754,1246.66662006892
-0.120065062486507,1246.67662006892
-0.117209049234035,1246.68662006892
-0.11201450726263,1246.69662006892
-0.106185419179265,1246.70662006892
-0.098799904969095,1246.71662006892
-0.0908590003452338,1246.72662006892
-0.083306517594699,1246.73662006892
-0.0763429881554072,1246.74662006892
-0.0709755176221107,1246.75662006892
-0.0670157034982321,1246.76662006892
-0.0642667704437063,1246.77662006892
-0.0626732554293754,1246.78662006892
-0.0623680236855337,1246.79662006892
-0.0625640509184082,1246.80662006892
-0.0631893179289626,1246.81662006892
-0.0633979426230341,1246.82662006892
-0.0627539508863033,1246.83662006892
-0.0625422954037294,1246.84662006892
-0.0619093736615033,1246.85662006892
-0.0616652181234517,1246.86662006892
-0.0613930254144563,1246.87662006892
-0.0608481099199802,1246.88662006892
-0.0608974983461153,1246.89662006892
-0.0611891887807562,1246.90662006892
-0.0622098781561433,1246.91662006892
-0.0629108677372861,1246.92662006892
-0.0643891249669298,1246.93662006892
-0.0660971629571216,1246.94662006892
-0.0682067605016912,1246.95662006892
-0.0700413564217115,1246.96662006892
-0.0706997906675708,1246.97662006892
-0.0711539809194121,1246.98662006892
-0.0708841980058262,1246.99662006892
-0.0707594098701868,1247.00662006892
-0.0702170211935791,1247.01662006892
-0.0695114457393793,1247.02662006892
-0.0684264255938195,1247.03662006892
-0.0672731069165844,1247.04662006892
-0.0665885600581315,1247.05662006892
-0.0664343962613237,1247.06662006892
-0.0667864186076982,1247.07662006892
-0.0677583676930875,1247.08662006892
-0.0686421661974414,1247.09662006892
-0.0699773682735596,1247.10662006892
-0.0716931514979943,1247.11662006892
-0.0740373203484154,1247.12662006892
-0.0761344309568319,1247.13662006892
-0.0770045836504498,1247.14662006892
-0.0775094833378099,1247.15662006892
-0.0783998834701613,1247.16662006892
-0.0792517139993181,1247.17662006892
-0.080097019260237,1247.18662006892
-0.0815174052661359,1247.19662006892
-0.0830218900801683,1247.20662006892
-0.0844033265954569,1247.21662006892
-0.0855911092993137,1247.22662006892
-0.086542048070289,1247.23662006892
-0.0877971436053991,1247.24662006892
-0.08933678869165,1247.25662006892
-0.09073558448121,1247.26662006892
-0.0925728029594335,1247.27662006892
-0.0949272709496611,1247.28662006892
-0.0973302552541363,1247.29662006892
-0.0991324694043637,1247.30662006892
-0.100501532836954,1247.31662006892
-0.101715324705546,1247.32662006892
-0.103050623183505,1247.33662006892
-0.104601770709354,1247.34662006892
-0.106176828519778,1247.35662006892
-0.107915180482422,1247.36662006892
-0.110109263737948,1247.37662006892
-0.112658301303732,1247.38662006892
-0.11546405637048,1247.39662006892
-0.118043516353483,1247.40662006892
-0.118892903847155,1247.41662006892
-0.11834761284207,1247.42662006892
-0.115488214848468,1247.43662006892
-0.110705700281256,1247.44662006892
-0.10428461732853,1247.45662006892
-0.0969330447653478,1247.46662006892
-0.0894341962788179,1247.47662006892
-0.0814717913894113,1247.48662006892
-0.0747390217231295,1247.49662006892
-0.0691073310993498,1247.50662006892
-0.0647262569631342,1247.51662006892
-0.0613669609385777,1247.52662006892
-0.0586394198926528,1247.53662006892
-0.0568740253333217,1247.54662006892
-0.0562926438086319,1247.55662006892
-0.0561030769796057,1247.56662006892
-0.0564396333229046,1247.57662006892
-0.0570895867103857,1247.58662006892
-0.0576070832810928,1247.59662006892
-0.0583070991397525,1247.60662006892
-0.0591079141711282,1247.61662006892
-0.0607024361322504,1247.62662006892
-0.0619730196223891,1247.63662006892
-0.0623032290155526,1247.64662006892
-0.0620115802047551,1247.65662006892
-0.0614535182371903,1247.66662006892
-0.061200163492894,1247.67662006892
-0.0608904436982284,1247.68662006892
-0.0610491430627394,1247.69662006892
-0.0618503788224506,1247.70662006892
-0.0618060077986355,1247.71662006892
-0.0618091468158501,1247.72662006892
-0.0618148896218708,1247.73662006892
-0.0610120936886258,1247.74662006892
-0.0603708125454578,1247.75662006892
-0.059178089342921,1247.76662006892
-0.0586610752771705,1247.77662006892
-0.0575887627746506,1247.78662006892
-0.0565949212628321,1247.79662006892
-0.0559030312324768,1247.80662006892
-0.055468290570625,1247.81662006892
-0.0555488510086959,1247.82662006892
-0.0564066106729661,1247.83662006892
-0.0574485393930985,1247.84662006892
-0.058557250938558,1247.85662006892
-0.0592710685322206,1247.86662006892
-0.0599120217933366,1247.87662006892
-0.0605064781018203,1247.88662006892
-0.0613472438403663,1247.89662006892
-0.0626367064074261,1247.90662006892
-0.064084000309059,1247.91662006892
-0.0655127986231121,1247.92662006892
-0.0670820781686423,1247.93662006892
-0.0686290038102675,1247.94662006892
-0.0698679086145254,1247.95662006892
-0.0704912882513266,1247.96662006892
-0.0709673934995484,1247.97662006892
-0.0720454556133806,1247.98662006892
-0.0729628370270676,1247.99662006892
-0.0745015540484414,1248.00662006892
-0.0759094804622046,1248.01662006892
-0.0777136376748615,1248.02662006892
-0.0798024469235156,1248.03662006892
-0.081832117119105,1248.04662006892
-0.0838257215336853,1248.05662006892
-0.0857753907454437,1248.06662006892
-0.0877928949016119,1248.07662006892
-0.0898401715851188,1248.08662006892
-0.0927085554486781,1248.09662006892
-0.0950346058458998,1248.10662006892
-0.0970145523377322,1248.11662006892
-0.0982484928301474,1248.12662006892
-0.098053280791345,1248.13662006892
-0.0960975461005147,1248.14662006892
-0.0920374351375644,1248.15662006892
-0.0855034250461458,1248.16662006892
-0.0776752333566635,1248.17662006892
-0.0689908622082732,1248.18662006892
-0.0602179209866072,1248.19662006892
-0.0519060360042271,1248.20662006892
-0.0447938187476502,1248.21662006892
-0.0386418750024046,1248.22662006892
-0.0337447412923684,1248.23662006892
-0.0300588904110383,1248.24662006892
-0.0269901280574434,1248.25662006892
-0.0246750909221365,1248.26662006892
-0.0225380135125067,1248.27662006892
-0.0211132004845391,1248.28662006892
-0.0194188003167463,1248.29662006892
-0.0179310019402295,1248.30662006892
-0.0164312124835916,1248.31662006892
-0.0144928669251499,1248.32662006892
-0.012214857279821,1248.33662006892
-0.00978011288990251,1248.34662006892
-0.0073585642189018,1248.35662006892
-0.00521812532866422,1248.36662006892
-0.00326649239170792,1248.37662006892
-0.00236845128245601,1248.38662006892
-0.00253264171787665,1248.39662006892
-0.00256085724159638,1248.40662006892
-0.0030217373177248,1248.41662006892
-0.00355668940609534,1248.42662006892
-0.00406283631322361,1248.43662006892
-0.00453646834401276,1248.44662006892
-0.00453679363684106,1248.45662006892
-0.00421589729973167,1248.46662006892
-0.00330170068879128,1248.47662006892
-0.00244720722911652,1248.48662006892
-0.00162546603401069,1248.49662006892
-0.000449045660831038,1248.50662006892
0.0005725074873334,1248.51662006892
0.00184700860371012,1248.52662006892
0.00286541408510982,1248.53662006892
0.00359560655718682,1248.54662006892
0.00359757940979017,1248.55662006892
0.00409517542252183,1248.56662006892
0.00435827762783387,1248.57662006892
0.00432511399532577,1248.58662006892
0.00477413555715458,1248.59662006892
0.00474709129194552,1248.60662006892
0.00416597273490378,1248.61662006892
0.00312337594623717,1248.62662006892
0.00118268336607543,1248.63662006892
-0.00112564160663503,1248.64662006892
-0.0030342768381326,1248.65662006892
-0.00485440179216101,1248.66662006892
-0.00622689534301418,1248.67662006892
-0.00781973137889557,1248.68662006892
-0.00940436970417137,1248.69662006892
-0.0109893437908037,1248.70662006892
-0.013022677115628,1248.71662006892
-0.0143323136434178,1248.72662006892
-0.0165063396484499,1248.73662006892
-0.018482727080043,1248.74662006892
-0.0206032553380239,1248.75662006892
-0.0226165796579445,1248.76662006892
-0.0248088551403587,1248.77662006892
-0.0271964168821342,1248.78662006892
-0.029777390592422,1248.79662006892
-0.0317507622918467,1248.80662006892
-0.0331136494902062,1248.81662006892
-0.0326435816605827,1248.82662006892
-0.0302133878989201,1248.83662006892
-0.0257812857628032,1248.84662006892
-0.0194084565587858,1248.85662006892
-0.0117285910876883,1248.86662006892
-0.00330586553805482,1248.87662006892
0.00559596267354645,1248.88662006892
0.0133722330065389,1248.89662006892
0.0196224791018202,1248.90662006892
0.024831065673291,1248.91662006892
0.0283370929280836,1248.92662006892
0.0304730673994792,1248.93662006892
0.0320997518955235,1248.94662006892
0.0332981481272318,1248.95662006892
0.0344146760422524,1248.96662006892
0.0347344497890911,1248.97662006892
0.0352562175133836,1248.98662006892
0.0365236443722637,1248.99662006892
0.0372878225897849,1249.00662006892
0.038656263793848,1249.01662006892
0.0401601351338177,1249.02662006892
0.0405933763537126,1249.03662006892
0.0405777416249602,1249.04662006892
0.0405459577124994,1249.05662006892
0.0407770123953572,1249.06662006892
0.0415138011967677,1249.07662006892
0.0419023986719509,1249.08662006892
0.0423670058473772,1249.09662006892
0.0418688514876817,1249.10662006892
0.040962181942493,1249.11662006892
0.0399127133845488,1249.12662006892
0.0384180373778366,1249.13662006892
0.0368894934723367,1249.14662006892
0.0354049410885076,1249.15662006892
0.033913878865219,1249.16662006892
0.0326607557302835,1249.17662006892
0.031698687474727,1249.18662006892
0.0307885106814085,1249.19662006892
0.0300357186252776,1249.20662006892
0.0295365611849015,1249.21662006892
0.0289638361286167,1249.22662006892
0.028149477211148,1249.23662006892
0.0273305163654134,1249.24662006892
0.0260289864502157,1249.25662006892
0.0246803027308902,1249.26662006892
0.0233128211921651,1249.27662006892
0.0212821492269216,1249.28662006892
0.018968545180638,1249.29662006892
0.0166210042636286,1249.30662006892
0.01445610914266,1249.31662006892
0.0123623565496812,1249.32662006892
0.00997345625401717,1249.33662006892
0.00754903640944552,1249.34662006892
