PPG,time
-0.0423781802576007,2706.29042445913
-0.0910855766765457,2706.30042445913
-0.0906705165937889,2706.31042445913
-0.105856331709612,2706.32042445913
-0.112575014479949,2706.33042445913
-0.124498711669317,2706.34042445913
-0.132641234092531,2706.35042445913
-0.142526440436865,2706.36042445913
-0.151272719561442,2706.37042445913
-0.160278333591762,2706.38042445913
-0.169397946447762,2706.39042445913
-0.178988348667683,2706.40042445913
-0.18944416368066,2706.41042445913
-0.199738693237013,2706.42042445913
-0.210057738037255,2706.43042445913
-0.220258811596947,2706.44042445913
-0.230254704961033,2706.45042445913
-0.240010837355793,2706.46042445913
-0.249732487014354,2706.47042445913
-0.259183829079495,2706.48042445913
-0.26760342443574,2706.49042445913
-0.273794429775056,2706.50042445913
-0.275670657015778,2706.51042445913
-0.271040608284298,2706.52042445913
-0.258099791956819,2706.53042445913
-0.235494808934319,2706.54042445913
-0.203823668239684,2706.55042445913
-0.164646797083798,2706.56042445913
-0.119376855722173,2706.57042445913
-0.070665308492539,2706.58042445913
-0.0220509377428012,2706.59042445913
0.0240165477659446,2706.60042445913
0.0640792035418447,2706.61042445913
0.0962777518420838,2706.62042445913
0.119664296417233,2706.63042445913
0.134334385981925,2706.64042445913
0.140562410048321,2706.65042445913
0.140530347366464,2706.66042445913
0.135427927165388,2706.67042445913
0.127030439265453,2706.68042445913
0.11681378136657,2706.69042445913
0.106931382616959,2706.70042445913
0.0986047823762752,2706.71042445913
0.0933564349833721,2706.72042445913
0.0914669960266453,2706.73042445913
0.0918683855640172,2706.74042445913
0.093558253696074,2706.75042445913
0.0954763296838701,2706.76042445913
0.097111172307333,2706.77042445913
0.0978351326415927,2706.78042445913
0.0978226914707835,2706.79042445913
0.0977993443576225,2706.80042445913
0.0992482739935506,2706.81042445913
0.102088308972848,2706.82042445913
0.106750173239489,2706.83042445913
0.112470333614517,2706.84042445913
0.119652744668818,2706.85042445913
0.127319316082871,2706.86042445913
0.13576272658291,2706.87042445913
0.144148510214494,2706.88042445913
0.152710026164793,2706.89042445913
0.160128103311564,2706.90042445913
0.166380671944036,2706.91042445913
0.171344570729283,2706.92042445913
0.173747626235275,2706.93042445913
0.173326069372273,2706.94042445913
0.169724361130899,2706.95042445913
0.163444418694265,2706.96042445913
0.155172555324977,2706.97042445913
0.145860092103359,2706.98042445913
0.135893588495255,2706.99042445913
0.1260630338948,2707.00042445913
0.117229257973969,2707.01042445913
0.108409223606456,2707.02042445913
0.0998735023604328,2707.03042445913
0.0905837048497514,2707.04042445913
0.081017019892649,2707.05042445913
0.071498668579425,2707.06042445913
0.06211337643725,2707.07042445913
0.0546390997009896,2707.08042445913
0.0488955306750178,2707.09042445913
0.0442105632986257,2707.10042445913
0.0400194461920789,2707.11042445913
0.0353017101031865,2707.12042445913
0.0304560955451747,2707.13042445913
0.0249890300844601,2707.14042445913
0.0190209327951192,2707.15042445913
0.0128050130520656,2707.16042445913
0.00551859647583989,2707.17042445913
-0.00214544221812572,2707.18042445913
-0.0100273337132138,2707.19042445913
-0.0187865699402653,2707.20042445913
-0.0273432212355981,2707.21042445913
-0.0357180960747723,2707.22042445913
-0.0436344214889133,2707.23042445913
-0.051198900241438,2707.24042445913
-0.0587223322121383,2707.25042445913
-0.0661961220797498,2707.26042445913
-0.0739808979431541,2707.27042445913
-0.0822621839058735,2707.28042445913
-0.0910230151793471,2707.29042445913
-0.0998470098542953,2707.30042445913
-0.109136199340791,2707.31042445913
-0.118310821782908,2707.32042445913
-0.126982552844808,2707.33042445913
-0.135449274928787,2707.34042445913
-0.143975394023018,2707.35042445913
-0.152466078506337,2707.36042445913
-0.160823454414409,2707.37042445913
-0.168695811839006,2707.38042445913
-0.174110176530734,2707.39042445913
-0.174765624495241,2707.40042445913
-0.169255009505199,2707.41042445913
-0.154818957574182,2707.42042445913
-0.130532748744629,2707.43042445913
-0.0965109702789895,2707.44042445913
-0.0535072982516899,2707.45042445913
-0.00428995828791012,2707.46042445913
0.0484377841650402,2707.47042445913
0.101300345695055,2707.48042445913
0.151708723798963,2707.49042445913
0.196908885379137,2707.50042445913
0.234615943877949,2707.51042445913
0.263049385445343,2707.52042445913
0.28211477130738,2707.53042445913
0.292513257586982,2707.54042445913
0.2959007675335,2707.55042445913
0.294225107051408,2707.56042445913
0.28914680462448,2707.57042445913
0.282817170500366,2707.58042445913
0.27696756941638,2707.59042445913
0.273092392245602,2707.60042445913
0.27198518797637,2707.61042445913
0.273887850958241,2707.62042445913
0.278608123915955,2707.63042445913
0.285715769663463,2707.64042445913
0.293783004187435,2707.65042445913
0.301392910540259,2707.66042445913
0.30701554836856,2707.67042445913
0.310997653165675,2707.68042445913
0.313135205213663,2707.69042445913
0.314036798485689,2707.70042445913
0.314472158263552,2707.71042445913
0.315239756609197,2707.72042445913
0.317373578549683,2707.73042445913
0.320247879564594,2707.74042445913
0.324582183322776,2707.75042445913
0.329998375107641,2707.76042445913
0.335839196608258,2707.77042445913
0.341903604827415,2707.78042445913
0.347908877503392,2707.79042445913
0.35392605050294,2707.80042445913
0.35893212247096,2707.81042445913
0.362359402828422,2707.82042445913
0.363115457798218,2707.83042445913
0.360956135561482,2707.84042445913
0.356669747625191,2707.85042445913
0.349921728568959,2707.86042445913
0.341072213033483,2707.87042445913
0.330733934292688,2707.88042445913
0.319670793121611,2707.89042445913
0.30761111625522,2707.90042445913
0.294747894848299,2707.91042445913
0.281371689869306,2707.92042445913
0.267399809147187,2707.93042445913
0.253855678516381,2707.94042445913
0.241093048401019,2707.95042445913
0.229349860737974,2707.96042445913
0.219090710001248,2707.97042445913
0.209562318910583,2707.98042445913
0.200551611823536,2707.99042445913
0.191852186957291,2708.00042445913
0.183634010495104,2708.01042445913
0.175962703600863,2708.02042445913
0.168134001928009,2708.03042445913
0.160575974619872,2708.04042445913
0.152261632805715,2708.05042445913
0.14404018718982,2708.06042445913
0.135472300663509,2708.07042445913
0.126162858531524,2708.08042445913
0.116470591831539,2708.09042445913
0.106932197349556,2708.10042445913
0.0969088765741461,2708.11042445913
0.0866450403095522,2708.12042445913
0.076387431791214,2708.13042445913
0.0654970533015204,2708.14042445913
0.0551678175114966,2708.15042445913
0.0446256686461174,2708.16042445913
0.0347988913034337,2708.17042445913
0.0247782147153732,2708.18042445913
0.0156687089603942,2708.19042445913
0.0057800311824618,2708.20042445913
-0.00394951967115268,2708.21042445913
-0.0138336888253036,2708.22042445913
-0.0234871560215332,2708.23042445913
-0.0332620143634509,2708.24042445913
-0.0426645028368881,2708.25042445913
-0.051913933507533,2708.26042445913
-0.0615966317625307,2708.27042445913
-0.0715766527836145,2708.28042445913
-0.0822179773328713,2708.29042445913
-0.0928239672275343,2708.30042445913
-0.104080322894415,2708.31042445913
-0.115417754585747,2708.32042445913
-0.125737589295366,2708.33042445913
-0.135746347628188,2708.34042445913
-0.145556628235846,2708.35042445913
-0.155192125520635,2708.36042445913
-0.165760007446448,2708.37042445913
-0.176291137687609,2708.38042445913
-0.187609861912236,2708.39042445913
-0.199009939768336,2708.40042445913
-0.21071853775638,2708.41042445913
-0.220723440646012,2708.42042445913
-0.226754126542313,2708.43042445913
-0.226636025931872,2708.44042445913
-0.217099687669176,2708.45042445913
-0.196590877180854,2708.46042445913
-0.164160481813803,2708.47042445913
-0.120142247195747,2708.48042445913
-0.0667585105620771,2708.49042445913
-0.00628344413701692,2708.50042445913
0.0580581881192395,2708.51042445913
0.121897074264027,2708.52042445913
0.182816076937406,2708.53042445913
0.237326535012199,2708.54042445913
0.28238846101388,2708.55042445913
0.316737934917015,2708.56042445913
0.340346866733145,2708.57042445913
0.353992553480334,2708.58042445913
0.358906665794807,2708.59042445913
0.356688946786457,2708.60042445913
0.35029194433128,2708.61042445913
0.341437718705064,2708.62042445913
0.332943187167723,2708.63042445913
0.32647223887057,2708.64042445913
0.323740928992441,2708.65042445913
0.325923185973237,2708.66042445913
0.332469369801806,2708.67042445913
0.342320854160439,2708.68042445913
0.353710938878443,2708.69042445913
0.364674418817246,2708.70042445913
0.374212857486846,2708.71042445913
0.380754294008449,2708.72042445913
0.385216709887664,2708.73042445913
0.386807696019154,2708.74042445913
0.386515725494433,2708.75042445913
0.3852245617299,2708.76042445913
0.383442399837147,2708.77042445913
0.382455479019571,2708.78042445913
0.382062658294689,2708.79042445913
0.383189770094405,2708.80042445913
0.385672463279193,2708.81042445913
0.389688117623384,2708.82042445913
0.394614167270394,2708.83042445913
0.399360560647986,2708.84042445913
0.403302067221354,2708.85042445913
0.406537040830184,2708.86042445913
0.407839725664225,2708.87042445913
0.407058051760223,2708.88042445913
0.403941455197256,2708.89042445913
0.398527598936906,2708.90042445913
0.390594217082623,2708.91042445913
0.380247665959611,2708.92042445913
0.368354551900599,2708.93042445913
0.354556943797794,2708.94042445913
0.3404119023771,2708.95042445913
0.326133628132589,2708.96042445913
0.311686460796644,2708.97042445913
0.297331031208665,2708.98042445913
0.282971998929626,2708.99042445913
0.26860854964262,2709.00042445913
0.254982802373364,2709.01042445913
0.241828620448392,2709.02042445913
0.22974352098907,2709.03042445913
0.218389227826771,2709.04042445913
0.208597764484414,2709.05042445913
0.199311196229459,2709.06042445913
0.190162425487414,2709.07042445913
0.180937363354642,2709.08042445913
0.171191158326398,2709.09042445913
0.16143179214809,2709.10042445913
0.151267504880055,2709.11042445913
0.141212034991,2709.12042445913
0.131067160450664,2709.13042445913
0.120247473519944,2709.14042445913
0.109403560661577,2709.15042445913
0.0985752790622505,2709.16042445913
0.0875657558732934,2709.17042445913
0.0768417377903853,2709.18042445913
0.0658401620805333,2709.19042445913
0.0537074569895982,2709.20042445913
0.041648534404731,2709.21042445913
0.0294543506740556,2709.22042445913
0.017344400880214,2709.23042445913
0.00552282280408457,2709.24042445913
-0.00518051597775106,2709.25042445913
-0.0159813359749785,2709.26042445913
-0.0268636953456701,2709.27042445913
-0.0371062691913448,2709.28042445913
-0.0474257452421971,2709.29042445913
-0.057410896919572,2709.30042445913
-0.0673492150632424,2709.31042445913
-0.0771595974635619,2709.32042445913
-0.0871741364515927,2709.33042445913
-0.0971342395418045,2709.34042445913
-0.107924337039858,2709.35042445913
-0.118890706412919,2709.36042445913
-0.130192717935059,2709.37042445913
-0.14140082427759,2709.38042445913
-0.153209290049227,2709.39042445913
-0.164894464899715,2709.40042445913
-0.176185503050035,2709.41042445913
-0.187575588617992,2709.42042445913
-0.198251357038728,2709.43042445913
-0.209418724252991,2709.44042445913
-0.220400065550902,2709.45042445913
-0.231861189095922,2709.46042445913
-0.243949527433305,2709.47042445913
-0.256567705505465,2709.48042445913
-0.269340396322625,2709.49042445913
-0.281994335132317,2709.50042445913
-0.29448215818876,2709.51042445913
-0.3059358987541,2709.52042445913
-0.316943015073257,2709.53042445913
-0.327198002305928,2709.54042445913
-0.335472919489853,2709.55042445913
-0.339727035054337,2709.56042445913
-0.337115294428867,2709.57042445913
-0.324880840516897,2709.58042445913
-0.300849095401368,2709.59042445913
-0.265037846391087,2709.60042445913
-0.218035927952283,2709.61042445913
-0.162299986175529,2709.62042445913
-0.101119742834758,2709.63042445913
-0.0361614287404624,2709.64042445913
0.0285405580415885,2709.65042445913
0.089939379309007,2709.66042445913
0.144188235014339,2709.67042445913
0.189395735310893,2709.68042445913
0.223171667623683,2709.69042445913
0.2457533666284,2709.70042445913
0.257051674853148,2709.71042445913
0.258298121536985,2709.72042445913
0.252568598064883,2709.73042445913
0.241925757235752,2709.74042445913
0.22904234878399,2709.75042445913
0.215377554459466,2709.76042445913
0.203480721814153,2709.77042445913
0.194040760218556,2709.78042445913
0.187990048540915,2709.79042445913
0.185468220912305,2709.80042445913
0.185736795091666,2709.81042445913
0.187918876604988,2709.82042445913
0.191009176160179,2709.83042445913
0.193583470404116,2709.84042445913
0.19552773126316,2709.85042445913
0.196232473823714,2709.86042445913
0.196398417634341,2709.87042445913
0.196698887785667,2709.88042445913
0.197383028538117,2709.89042445913
0.198465931240422,2709.90042445913
0.201098587196313,2709.91042445913
0.20529114947871,2709.92042445913
0.210128755424143,2709.93042445913
0.215712300413806,2709.94042445913
0.222258812403876,2709.95042445913
0.228537709594204,2709.96042445913
0.235008713316002,2709.97042445913
0.240304762486558,2709.98042445913
0.244438117329671,2709.99042445913
0.247138815494814,2710.00042445913
0.247427559142545,2710.01042445913
0.244921576054746,2710.02042445913
0.238918555235151,2710.03042445913
0.230595055083741,2710.04042445913
0.219979255245013,2710.05042445913
0.208899279031033,2710.06042445913
0.196794651380099,2710.07042445913
0.183563376907687,2710.08042445913
0.169386737736249,2710.09042445913
0.15450574708195,2710.10042445913
0.14001961977647,2710.11042445913
0.125490584195744,2710.12042445913
0.111773872243162,2710.13042445913
0.0990662880006419,2710.14042445913
0.08687517011743,2710.15042445913
0.0752353491020888,2710.16042445913
0.0639636496595813,2710.17042445913
0.0530279572431947,2710.18042445913
0.0426956634857909,2710.19042445913
0.0335462179637713,2710.20042445913
0.0250829333236419,2710.21042445913
0.0169387877909529,2710.22042445913
0.00854587272486761,2710.23042445913
-0.000324659375960796,2710.24042445913
-0.00972968799525055,2710.25042445913
-0.0196626729713289,2710.26042445913
-0.0301454937499054,2710.27042445913
-0.0402113900857241,2710.28042445913
-0.0504812742193617,2710.29042445913
-0.0607936017942692,2710.30042445913
-0.0711634589295847,2710.31042445913
-0.0815472296327714,2710.32042445913
-0.0919805355114494,2710.33042445913
-0.102459230431846,2710.34042445913
-0.112205215536575,2710.35042445913
-0.121880889434971,2710.36042445913
-0.131527163762372,2710.37042445913
-0.141092654417437,2710.38042445913
-0.151083746931206,2710.39042445913
-0.160758290634336,2710.40042445913
-0.170421037021528,2710.41042445913
-0.180101214043321,2710.42042445913
-0.190064133385351,2710.43042445913
-0.200440851605923,2710.44042445913
-0.21112661939524,2710.45042445913
-0.221441842793194,2710.46042445913
-0.231443323450109,2710.47042445913
-0.240916257079692,2710.48042445913
-0.25030808432825,2710.49042445913
-0.259648731644442,2710.50042445913
-0.269163282394913,2710.51042445913
-0.278106914313799,2710.52042445913
-0.287101191216113,2710.53042445913
-0.296306869959766,2710.54042445913
-0.30537902086882,2710.55042445913
-0.315095038764391,2710.56042445913
-0.325941573803718,2710.57042445913
-0.33776931439403,2710.58042445913
-0.349667941227604,2710.59042445913
-0.360260356820819,2710.60042445913
-0.367929860478825,2710.61042445913
-0.37008051162581,2710.62042445913
-0.364793343188587,2710.63042445913
-0.34966623000862,2710.64042445913
-0.323838195743518,2710.65042445913
-0.287326178744815,2710.66042445913
-0.241341819165442,2710.67042445913
-0.187145133508189,2710.68042445913
-0.127910012737667,2710.69042445913
-0.0660593431341079,2710.70042445913
-0.00569905929252266,2710.71042445913
0.0500847446387728,2710.72042445913
0.0979901108359863,2710.73042445913
0.136728704638445,2710.74042445913
0.164780937361386,2710.75042445913
0.181569275697705,2710.76042445913
0.18810433403898,2710.77042445913
0.18565986492158,2710.78042445913
0.176435898904009,2710.79042445913
0.162572248513278,2710.80042445913
0.146102520108056,2710.81042445913
0.12904295988181,2710.82042445913
0.112716247978316,2710.83042445913
0.0979037864170553,2710.84042445913
0.0853974379987006,2710.85042445913
0.0749113790829265,2710.86042445913
0.0662387517013969,2710.87042445913
0.0587708917498712,2710.88042445913
0.0521593391790194,2710.89042445913
0.0463348784968598,2710.90042445913
0.0410454594520196,2710.91042445913
0.0369976776151722,2710.92042445913
0.0350493201280235,2710.93042445913
0.0357715586753389,2710.94042445913
0.0393828162214992,2710.95042445913
0.0450926226863699,2710.96042445913
0.052208648171807,2710.97042445913
0.0606773735687029,2710.98042445913
0.0708748131426874,2710.99042445913
0.0814154251747893,2711.00042445913
0.0915035925398106,2711.01042445913
0.100887424762259,2711.02042445913
0.108255105361078,2711.03042445913
0.113304455247957,2711.04042445913
0.115635792337389,2711.05042445913
0.115523215960745,2711.06042445913
0.112210912291514,2711.07042445913
0.105876138535586,2711.08042445913
0.0966299653377689,2711.09042445913
0.0852406894585805,2711.10042445913
0.0717576470566901,2711.11042445913
0.0566487022630372,2711.12042445913
0.0412449154414765,2711.13042445913
0.0259805041363293,2711.14042445913
0.0115989345365458,2711.15042445913
-0.00150085480847395,2711.16042445913
-0.0136838180032918,2711.17042445913
-0.0253820375521952,2711.18042445913
-0.0371025529125822,2711.19042445913
-0.0487724981782187,2711.20042445913
-0.0597114408035237,2711.21042445913
-0.0703819079608495,2711.22042445913
-0.0806323651424009,2711.23042445913
-0.0906436106085123,2711.24042445913
-0.101098281668224,2711.25042445913
-0.111254883028469,2711.26042445913
-0.121442087308127,2711.27042445913
-0.131759378126768,2711.28042445913
-0.142021668402849,2711.29042445913
-0.15192533307925,2711.30042445913
-0.161410284398055,2711.31042445913
-0.170719835708955,2711.32042445913
-0.180071323687316,2711.33042445913
-0.189153418634908,2711.34042445913
-0.19807587024931,2711.35042445913
-0.207157953225443,2711.36042445913
-0.216889928240219,2711.37042445913
-0.226517974347965,2711.38042445913
-0.236805235719388,2711.39042445913
-0.2474739618009,2711.40042445913
-0.258439265588826,2711.41042445913
-0.269538109164136,2711.42042445913
-0.280417848320517,2711.43042445913
-0.291545572002171,2711.44042445913
-0.302401306324541,2711.45042445913
-0.313152033501891,2711.46042445913
-0.323162713131968,2711.47042445913
-0.332852899871135,2711.48042445913
-0.341785984807713,2711.49042445913
-0.350241630028282,2711.50042445913
-0.358353241028057,2711.51042445913
-0.366445559999492,2711.52042445913
-0.374626606847744,2711.53042445913
-0.383127780609428,2711.54042445913
-0.391878722773594,2711.55042445913
-0.401254097100136,2711.56042445913
-0.410566213881532,2711.57042445913
-0.419890320909947,2711.58042445913
-0.429041341730654,2711.59042445913
-0.436800541568699,2711.60042445913
-0.442047937323752,2711.61042445913
-0.440526598858462,2711.62042445913
-0.429656037835059,2711.63042445913
-0.40705594000284,2711.64042445913
-0.372322798854266,2711.65042445913
-0.326876192127163,2711.66042445913
-0.272384636940943,2711.67042445913
-0.210518523130835,2711.68042445913
-0.144488500209149,2711.69042445913
-0.0782127959238224,2711.70042445913
-0.0138814596388836,2711.71042445913
0.0448889406673872,2711.72042445913
0.0954086894875217,2711.73042445913
0.135742377996445,2711.74042445913
0.165661770918946,2711.75042445913
0.184643641197584,2711.76042445913
0.193577179034178,2711.77042445913
0.193794973623567,2711.78042445913
0.187412861486165,2711.79042445913
0.177315721874043,2711.80042445913
0.164993790968999,2711.81042445913
0.152567721523156,2711.82042445913
0.141389848690583,2711.83042445913
0.132062195178261,2711.84042445913
0.126364323278354,2711.85042445913
0.123402666099211,2711.86042445913
0.123160518074918,2711.87042445913
0.124322416676967,2711.88042445913
0.126095190178321,2711.89042445913
0.127656335111446,2711.90042445913
0.128725251898853,2711.91042445913
0.129063533637808,2711.92042445913
0.128628524253353,2711.93042445913
0.12782095131638,2711.94042445913
0.126906979014561,2711.95042445913
0.126647843922357,2711.96042445913
0.126797121511898,2711.97042445913
0.127614506394582,2711.98042445913
0.12978874055911,2711.99042445913
0.133134990740071,2712.00042445913
0.137775375816927,2712.01042445913
0.143013496295591,2712.02042445913
0.148032736089878,2712.03042445913
0.152697322050964,2712.04042445913
0.155606690605271,2712.05042445913
0.156902811232973,2712.06042445913
0.156494135490561,2712.07042445913
0.153596282994618,2712.08042445913
0.149082326875175,2712.09042445913
0.142740654040911,2712.10042445913
0.134630055208485,2712.11042445913
0.123857998733995,2712.12042445913
0.111823563653192,2712.13042445913
0.0983934126894906,2712.14042445913
0.0841286458966376,2712.15042445913
0.0702746941755858,2712.16042445913
0.0564099268548196,2712.17042445913
0.0425144065961508,2712.18042445913
0.0286188108685012,2712.19042445913
0.0149363622950833,2712.20042445913
0.00209338456698327,2712.21042445913
-0.00974482789330577,2712.22042445913
-0.0209211486538836,2712.23042445913
-0.0314420418345564,2712.24042445913
-0.0416314447856479,2712.25042445913
-0.0518691066222799,2712.26042445913
-0.0625238429986757,2712.27042445913
-0.0731166126059891,2712.28042445913
-0.0836213907017508,2712.29042445913
-0.0940366395104833,2712.30042445913
-0.104166449426501,2712.31042445913
-0.11343452681297,2712.32042445913
-0.123262482108048,2712.33042445913
-0.132687168504828,2712.34042445913
-0.142511747198432,2712.35042445913
-0.153117217114542,2712.36042445913
-0.164527125575473,2712.37042445913
-0.176244588203381,2712.38042445913
-0.187736153465264,2712.39042445913
-0.198814219360631,2712.40042445913
-0.209021110144001,2712.41042445913
-0.219030337551801,2712.42042445913
-0.228628318158031,2712.43042445913
-0.23905126072587,2712.44042445913
-0.249388739783185,2712.45042445913
-0.259701833049471,2712.46042445913
-0.270376601484959,2712.47042445913
-0.281322592913642,2712.48042445913
-0.291862310628356,2712.49042445913
-0.301998438810833,2712.50042445913
-0.311933112165222,2712.51042445913
-0.321489651790052,2712.52042445913
-0.330920386255607,2712.53042445913
-0.339831043416387,2712.54042445913
-0.348371864863414,2712.55042445913
-0.356702441512185,2712.56042445913
-0.365334453171506,2712.57042445913
-0.37460528050826,2712.58042445913
-0.383881969672478,2712.59042445913
-0.393673738908499,2712.60042445913
-0.403093870379895,2712.61042445913
-0.412755059427952,2712.62042445913
-0.421880029009615,2712.63042445913
-0.431341042330992,2712.64042445913
-0.440737905228708,2712.65042445913
-0.449238746488558,2712.66042445913
-0.454673151645312,2712.67042445913
-0.454429638315493,2712.68042445913
-0.445497093439627,2712.69042445913
-0.425400185224069,2712.70042445913
-0.393520222046516,2712.71042445913
-0.349383706947206,2712.72042445913
-0.295668381565135,2712.73042445913
-0.234354241345954,2712.74042445913
-0.168448087148809,2712.75042445913
-0.101999423663516,2712.76042445913
-0.0365840935596089,2712.77042445913
0.0236239968294115,2712.78042445913
0.0757546724317172,2712.79042445913
0.118543476108698,2712.80042445913
0.149561372231814,2712.81042445913
0.169286062799736,2712.82042445913
0.178033311636148,2712.83042445913
0.177989048223231,2712.84042445913
0.171326749507353,2712.85042445913
0.159985969275837,2712.86042445913
0.145998520159217,2712.87042445913
0.130977117850966,2712.88042445913
0.116214712206594,2712.89042445913
0.103439849658042,2712.90042445913
0.0930188876702871,2712.91042445913
0.0856346227304925,2712.92042445913
0.0812387871900533,2712.93042445913
0.0798727046483015,2712.94042445913
0.079623470231322,2712.95042445913
0.0798206191749826,2712.96042445913
0.0796369235749717,2712.97042445913
0.0783136559187347,2712.98042445913
0.0761954339211455,2712.99042445913
0.0741538409149273,2713.00042445913
0.0723531116200473,2713.01042445913
0.0719251231453314,2713.02042445913
0.0731920657271296,2713.03042445913
0.0761542421648522,2713.04042445913
0.0803667161596875,2713.05042445913
0.08523172256359,2713.06042445913
0.0908588980573618,2713.07042445913
0.096147286029415,2713.08042445913
0.101591233490904,2713.09042445913
0.106019011775327,2713.10042445913
0.109242520782021,2713.11042445913
0.111350064209309,2713.12042445913
0.111316290020923,2713.13042445913
0.109457781712494,2713.14042445913
0.104647100818119,2713.15042445913
0.0976457129486463,2713.16042445913
0.0887045428495575,2713.17042445913
0.0783161959621628,2713.18042445913
0.0668269561786568,2713.19042445913
0.0542626312354698,2713.20042445913
0.0412002111369306,2713.21042445913
0.0271587322116252,2713.22042445913
0.0134817890439439,2713.23042445913
-0.000447284107285582,2713.24042445913
-0.0140644294247115,2713.25042445913
-0.0274681787546227,2713.26042445913
-0.0401800119699095,2713.27042445913
-0.0521164802469906,2713.28042445913
-0.0635550273069532,2713.29042445913
-0.0745015751568557,2713.30042445913
-0.085857230125297,2713.31042445913
-0.0969574053572625,2713.32042445913
-0.107794490460368,2713.33042445913
-0.118680156644705,2713.34042445913
-0.128604726805335,2713.35042445913
-0.138358056481017,2713.36042445913
-0.147502559041778,2713.37042445913
-0.157056108636621,2713.38042445913
-0.166020608038122,2713.39042445913
-0.175524447333735,2713.40042445913
-0.185254335955862,2713.41042445913
-0.195208889772,2713.42042445913
-0.205485315323445,2713.43042445913
-0.215538583802864,2713.44042445913
-0.225733883689715,2713.45042445913
-0.236116425429245,2713.46042445913
-0.246134974274061,2713.47042445913
-0.25582089504594,2713.48042445913
-0.265099283469802,2713.49042445913
-0.275271696251077,2713.50042445913
-0.2850826471706,2713.51042445913
-0.295540769387973,2713.52042445913
-0.305882720403201,2713.53042445913
-0.316397068652311,2713.54042445913
-0.326041204588763,2713.55042445913
-0.335517109707628,2713.56042445913
-0.344739944072271,2713.57042445913
-0.353817288263623,2713.58042445913
-0.363134134780818,2713.59042445913
-0.372161054772938,2713.60042445913
-0.38111062018991,2713.61042445913
-0.390210394432368,2713.62042445913
-0.399404749477929,2713.63042445913
-0.409058169027497,2713.64042445913
-0.419332492782899,2713.65042445913
-0.430497810128333,2713.66042445913
-0.441917843818185,2713.67042445913
-0.452791302512197,2713.68042445913
-0.462449717949789,2713.69042445913
-0.470015322684634,2713.70042445913
-0.473578357684969,2713.71042445913
-0.47153068086417,2713.72042445913
-0.46070246375279,2713.73042445913
-0.439920946867318,2713.74042445913
-0.408170097761266,2713.75042445913
-0.365987579364344,2713.76042445913
-0.315377510429383,2713.77042445913
-0.258227260227657,2713.78042445913
-0.197818736134746,2713.79042445913
-0.137451791959789,2713.80042445913
-0.0800981893860397,2713.81042445913
-0.02817643197861,2713.82042445913
0.0159126375419059,2713.83042445913
0.0516394231316449,2713.84042445913
0.077937045096557,2713.85042445913
0.0946823199397616,2713.86042445913
0.102430387338429,2713.87042445913
0.102223138487541,2713.88042445913
0.0946348242668201,2713.89042445913
0.0818968674163164,2713.90042445913
0.0656175202663121,2713.91042445913
0.0472819920050672,2713.92042445913
0.0281484741582047,2713.93042445913
0.00935617308575792,2713.94042445913
-0.0078692252770636,2713.95042445913
-0.0236718636038051,2713.96042445913
-0.0380344001432692,2713.97042445913
-0.0512620662623151,2713.98042445913
-0.0631945231305538,2713.99042445913
-0.0739566311578037,2714.00042445913
-0.0833342000947063,2714.01042445913
-0.0897149487142884,2714.02042445913
-0.0935631613039031,2714.03042445913
-0.0946373122138054,2714.04042445913
-0.0924359607423107,2714.05042445913
-0.08775785949831,2714.06042445913
-0.0800600260568402,2714.07042445913
-0.0697428852595116,2714.08042445913
-0.056903175043045,2714.09042445913
-0.0431529561266908,2714.10042445913
-0.0288763255920615,2714.11042445913
-0.0154359180056385,2714.12042445913
-0.00440997257910602,2714.13042445913
0.0038148047626226,2714.14042445913
0.00901292494970378,2714.15042445913
0.0113033569940231,2714.16042445913
0.0101086873442896,2714.17042445913
0.00625958025835553,2714.18042445913
0.000338797978076686,2714.19042445913
-0.00751727310306112,2714.20042445913
-0.017973666677378,2714.21042445913
-0.0304228217813409,2714.22042445913
-0.0444497165303322,2714.23042445913
-0.0591515777243673,2714.24042445913
-0.0746915268012995,2714.25042445913
-0.0893458480976251,2714.26042445913
-0.103045041552517,2714.27042445913
-0.115770459242778,2714.28042445913
-0.127880081208233,2714.29042445913
-0.13924401591509,2714.30042445913
-0.149766757467546,2714.31042445913
-0.159990166503588,2714.32042445913
-0.1693238296095,2714.33042445913
-0.177934099954836,2714.34042445913
-0.185670308638951,2714.35042445913
-0.193181785572968,2714.36042445913
-0.200884842360112,2714.37042445913
-0.209179942189145,2714.38042445913
-0.218640066170124,2714.39042445913
-0.228324508224718,2714.40042445913
-0.238173466283042,2714.41042445913
-0.24794413972183,2714.42042445913
-0.257358473947046,2714.43042445913
-0.266626106301492,2714.44042445913
-0.276585798623785,2714.45042445913
-0.286729425159588,2714.46042445913
-0.296972488096331,2714.47042445913
-0.306502814429904,2714.48042445913
-0.315837593201495,2714.49042445913
-0.324563503320562,2714.50042445913
-0.333784937096692,2714.51042445913
-0.342955809689379,2714.52042445913
-0.352472337303368,2714.53042445913
-0.362593523445703,2714.54042445913
-0.372092200473651,2714.55042445913
-0.381260347614371,2714.56042445913
-0.390180067201299,2714.57042445913
-0.398640166401487,2714.58042445913
-0.406682255234936,2714.59042445913
-0.414427931455552,2714.60042445913
-0.422432171327565,2714.61042445913
-0.430948456029108,2714.62042445913
-0.438692508615626,2714.63042445913
-0.443930180395808,2714.64042445913
-0.44421530640826,2714.65042445913
-0.436369513753865,2714.66042445913
-0.418272973175026,2714.67042445913
-0.38813351151298,2714.68042445913
-0.34620931174386,2714.69042445913
-0.294412152718825,2714.70042445913
-0.234675496562849,2714.71042445913
-0.170337679061041,2714.72042445913
-0.10467530804173,2714.73042445913
-0.0410745450373195,2714.74042445913
0.0186053180443353,2714.75042445913
0.0718595176850328,2714.76042445913
0.116173756080702,2714.77042445913
0.151077895697763,2714.78042445913
0.175353797929068,2714.79042445913
0.189671526723539,2714.80042445913
0.195233772622245,2714.81042445913
0.193129758722096,2714.82042445913
0.185614996922545,2714.83042445913
0.174176947049453,2714.84042445913
0.160323360864937,2714.85042445913
0.145788407907323,2714.86042445913
0.131922081641614,2714.87042445913
0.120083355711153,2714.88042445913
0.111096444164696,2714.89042445913
0.104779899107902,2714.90042445913
0.101028659891803,2714.91042445913
0.0994351949693192,2714.92042445913
0.0985457700228041,2714.93042445913
0.0972266392961366,2714.94042445913
0.0945911285691244,2714.95042445913
0.0909770438914074,2714.96042445913
0.0869264323910458,2714.97042445913
0.0840384103498503,2714.98042445913
0.0828883502949848,2714.99042445913
0.0835974023383306,2715.00042445913
0.0866519424187609,2715.01042445913
0.0910522788690633,2715.02042445913
0.0957862306631549,2715.03042445913
0.10145039506426,2715.04042445913
0.106647864977833,2715.05042445913
0.11218056539626,2715.06042445913
0.117286883866694,2715.07042445913
0.121981138790638,2715.08042445913
0.125030421063172,2715.09042445913
0.126622891815632,2715.10042445913
0.126005073709846,2715.11042445913
0.122710422083099,2715.12042445913
0.1162933828972,2715.13042445913
0.107530570357015,2715.14042445913
0.0970829943370357,2715.15042445913
0.0859388619771744,2715.16042445913
0.0746028844785629,2715.17042445913
0.0632172494267384,2715.18042445913
0.0513129158246247,2715.19042445913
0.0392301592581944,2715.20042445913
0.0265439255419085,2715.21042445913
0.0127106750518998,2715.22042445913
-0.0011781390831203,2715.23042445913
-0.0154939597697222,2715.24042445913
-0.0285691110728955,2715.25042445913
-0.0404520172503557,2715.26042445913
-0.0516641601939224,2715.27042445913
-0.0617226680486417,2715.28042445913
-0.0712083629909319,2715.29042445913
-0.0810716479454365,2715.30042445913
-0.0911706293946439,2715.31042445913
-0.101759608924674,2715.32042445913
-0.112894369350044,2715.33042445913
-0.123869957431559,2715.34042445913
-0.134320444696034,2715.35042445913
-0.144575114106254,2715.36042445913
-0.154683773011448,2715.37042445913
-0.164443226595899,2715.38042445913
-0.174761195353427,2715.39042445913
-0.185002423108591,2715.40042445913
-0.195537090627779,2715.41042445913
-0.205801110357212,2715.42042445913
-0.215702875078408,2715.43042445913
-0.225461505353885,2715.44042445913
-0.235860920237796,2715.45042445913
-0.246022280196376,2715.46042445913
-0.256013882799042,2715.47042445913
-0.266137289270934,2715.48042445913
-0.276107406329781,2715.49042445913
-0.285662829663531,2715.50042445913
-0.295572104048232,2715.51042445913
-0.305771594461225,2715.52042445913
-0.315746853470474,2715.53042445913
-0.325764895893363,2715.54042445913
-0.335906153274742,2715.55042445913
-0.345287904403173,2715.56042445913
-0.354300567657635,2715.57042445913
-0.362932847330765,2715.58042445913
-0.371489995586345,2715.59042445913
-0.380401181209679,2715.60042445913
-0.390020824370633,2715.61042445913
-0.399361742013445,2715.62042445913
-0.409671519128319,2715.63042445913
-0.419369573328024,2715.64042445913
-0.429078716608415,2715.65042445913
-0.438812874296825,2715.66042445913
-0.447857173968091,2715.67042445913
-0.454776439965281,2715.68042445913
-0.4570361282836,2715.69042445913
-0.4521978120264,2715.70042445913
-0.437041491915255,2715.71042445913
-0.409940650376768,2715.72042445913
-0.371007943108898,2715.73042445913
-0.320529310146259,2715.74042445913
-0.261233645022697,2715.75042445913
-0.195972964593392,2715.76042445913
-0.128346342740964,2715.77042445913
-0.0610036006069738,2715.78042445913
0.00258384585619982,2715.79042445913
0.0600335068032315,2715.80042445913
0.10962939808207,2715.81042445913
0.149692142228053,2715.82042445913
0.179849633293952,2715.83042445913
0.198536155195177,2715.84042445913
0.207750450194552,2715.85042445913
0.208074404771609,2715.86042445913
0.201618317792131,2715.87042445913
0.190439526922196,2715.88042445913
0.17615901495256,2715.89042445913
0.160475674748293,2715.90042445913
0.144404481788368,2715.91042445913
0.129589258393692,2715.92042445913
0.117772353399458,2715.93042445913
0.109105928068732,2715.94042445913
0.104219958966736,2715.95042445913
0.101193756891455,2715.96042445913
0.099558561013256,2715.97042445913
0.0980933182013986,2715.98042445913
0.0951702481871687,2715.99042445913
0.0913895662501552,2716.00042445913
0.0868113132200684,2716.01042445913
0.0824058362443236,2716.02042445913
0.0794555067901706,2716.03042445913
0.0783286354155961,2716.04042445913
0.0786269549976806,2716.05042445913
0.0800632658758974,2716.06042445913
0.0828131666732227,2716.07042445913
0.0868440603545645,2716.08042445913
0.0917801036018205,2716.09042445913
0.0974235716539336,2716.10042445913
0.102953658375386,2716.11042445913
0.107946738318425,2716.12042445913
0.111454344280649,2716.13042445913
0.113630548292763,2716.14042445913
0.114447199418726,2716.15042445913
0.112999140995947,2716.16042445913
0.109716545718371,2716.17042445913
0.103831353914312,2716.18042445913
0.0960246939836353,2716.19042445913
0.0864891055198595,2716.20042445913
0.0757036923704696,2716.21042445913
0.0638544988823063,2716.22042445913
0.051225930353639,2716.23042445913
0.0377996795554087,2716.24042445913
0.0238335822063842,2716.25042445913
0.00917430868525721,2716.26042445913
-0.00516751545217384,2716.27042445913
-0.0194769012812858,2716.28042445913
-0.0328701286784437,2716.29042445913
-0.0457953020562652,2716.30042445913
-0.0580574240971986,2716.31042445913
-0.0696829726098021,2716.32042445913
-0.0804279224357214,2716.33042445913
-0.0907581814727092,2716.34042445913
-0.101210476680442,2716.35042445913
-0.111979444006328,2716.36042445913
-0.12305107604204,2716.37042445913
-0.134000830280948,2716.38042445913
-0.144633510960406,2716.39042445913
-0.154910648421791,2716.40042445913
-0.164815051202316,2716.41042445913
-0.174205463927061,2716.42042445913
-0.183776140980101,2716.43042445913
-0.193286100518869,2716.44042445913
-0.203486667445563,2716.45042445913
-0.213401240756882,2716.46042445913
-0.223092917893342,2716.47042445913
-0.232896785818368,2716.48042445913
-0.242609709175148,2716.49042445913
-0.252561575882661,2716.50042445913
-0.263199743735872,2716.51042445913
-0.273753500549967,2716.52042445913
-0.283997322741408,2716.53042445913
-0.293872135140754,2716.54042445913
-0.303210326113978,2716.55042445913
-0.312222844776877,2716.56042445913
-0.321536825902879,2716.57042445913
-0.331086632668369,2716.58042445913
-0.340848392257425,2716.59042445913
-0.351190093196271,2716.60042445913
-0.361060405524656,2716.61042445913
-0.371703861869025,2716.62042445913
-0.382530185729089,2716.63042445913
-0.393338347427956,2716.64042445913
-0.403411142966933,2716.65042445913
-0.412771505577236,2716.66042445913
-0.421795703647601,2716.67042445913
-0.430474843078104,2716.68042445913
-0.439067717894351,2716.69042445913
-0.448264113224762,2716.70042445913
-0.458045919119227,2716.71042445913
-0.467786249272384,2716.72042445913
-0.476967241809001,2716.73042445913
-0.48486461946918,2716.74042445913
-0.49012723512403,2716.75042445913
-0.490337326506102,2716.76042445913
-0.483616477780419,2716.77042445913
-0.46706502255411,2716.78042445913
-0.439876905104348,2716.79042445913
-0.401943456311004,2716.80042445913
-0.35464929811316,2716.81042445913
-0.300635746310496,2716.82042445913
-0.24180895035947,2716.83042445913
-0.182207274104444,2716.84042445913
-0.124214430847687,2716.85042445913
-0.0709122933561841,2716.86042445913
-0.0238561979639694,2716.87042445913
0.0152665494241058,2716.88042445913
0.0458638957020788,2716.89042445913
0.0679604256908623,2716.90042445913
0.0810353673668167,2716.91042445913
0.0858327264374923,2716.92042445913
0.0826368010606652,2716.93042445913
0.0731449384496331,2716.94042445913
0.0582168022702436,2716.95042445913
0.0407875262746281,2716.96042445913
0.0212324477438814,2716.97042445913
0.00139469253424703,2716.98042445913
-0.0178534949210808,2716.99042445913
-0.0368108167836146,2717.00042445913
-0.0539986794846519,2717.01042445913
-0.0697520574575371,2717.02042445913
-0.0838474219839993,2717.03042445913
-0.0966083429579896,2717.04042445913
-0.107192367044637,2717.05042445913
-0.115540695498674,2717.06042445913
-0.12044179612888,2717.07042445913
-0.122038797399245,2717.08042445913
-0.119192329178601,2717.09042445913
-0.112681412021783,2717.10042445913
-0.1031579997276,2717.11042445913
-0.090982752440556,2717.12042445913
-0.077116151606156,2717.13042445913
-0.0615471913322565,2717.14042445913
-0.0456558848417062,2717.15042445913
-0.0307173918607305,2717.16042445913
-0.0173472995331559,2717.17042445913
-0.00668457196738313,2717.18042445913
0.000550577384815102,2717.19042445913
0.00466495478712707,2717.20042445913
0.00559447270581775,2717.21042445913
0.00347555308454722,2717.22042445913
-0.00139493784519997,2717.23042445913
-0.00827912144780362,2717.24042445913
-0.0174978570040177,2717.25042445913
-0.0285302837225291,2717.26042445913
-0.041185416414576,2717.27042445913
-0.0548899422624898,2717.28042445913
-0.0693380842275957,2717.29042445913
-0.0837586380970868,2717.30042445913
-0.0979971941510873,2717.31042445913
-0.111866960559361,2717.32042445913
-0.125605466496331,2717.33042445913
-0.138401423600332,2717.34042445913
-0.150202523109549,2717.35042445913
-0.16125300103537,2717.36042445913
-0.171330864615012,2717.37042445913
-0.180765431607419,2717.38042445913
-0.189657642742897,2717.39042445913
-0.198153800755256,2717.40042445913
-0.207004937370395,2717.41042445913
-0.216192356254647,2717.42042445913
-0.225861881102103,2717.43042445913
-0.235431976992942,2717.44042445913
-0.244197969761439,2717.45042445913
-0.252584970465942,2717.46042445913
-0.260899678691516,2717.47042445913
-0.269827403473072,2717.48042445913
-0.279276917259525,2717.49042445913
-0.289028813217638,2717.50042445913
-0.298488175077478,2717.51042445913
-0.308090191727299,2717.52042445913
-0.317608520905402,2717.53042445913
-0.326958098510361,2717.54042445913
-0.337187084929032,2717.55042445913
-0.347433908063711,2717.56042445913
-0.357432499318223,2717.57042445913
-0.367503075789734,2717.58042445913
-0.377474756776995,2717.59042445913
-0.387014524285235,2717.60042445913
-0.39627422366814,2717.61042445913
-0.404109574707372,2717.62042445913
-0.409899497062027,2717.63042445913
-0.410586174196463,2717.64042445913
-0.403589444086116,2717.65042445913
-0.386599001681513,2717.66042445913
-0.35804324913088,2717.67042445913
-0.318352152400716,2717.68042445913
-0.269214041303521,2717.69042445913
-0.212624853491095,2717.70042445913
-0.151085992902678,2717.71042445913
-0.0874602129063706,2717.72042445913
-0.0248577294540035,2717.73042445913
0.0337493990242057,2717.74042445913
0.0861644344355469,2717.75042445913
0.130297415144561,2717.76042445913
0.165769876624215,2717.77042445913
0.191435675842875,2717.78042445913
0.208189422716252,2717.79042445913
0.217134324163202,2717.80042445913
0.219007939138007,2717.81042445913
0.215274815747612,2717.82042445913
0.207294900715491,2717.83042445913
0.197159024813616,2717.84042445913
0.18590131397919,2717.85042445913
0.174945674139121,2717.86042445913
0.165255343863853,2717.87042445913
0.157859608941632,2717.88042445913
0.153437103368942,2717.89042445913
0.15191116569271,2717.90042445913
0.152084581644857,2717.91042445913
0.152792594636471,2717.92042445913
0.152494952063075,2717.93042445913
0.150854456950613,2717.94042445913
0.147569016469763,2717.95042445913
0.143501371237859,2717.96042445913
0.139067377196737,2717.97042445913
0.134834550552988,2717.98042445913
0.131517922001695,2717.99042445913
0.12941032596399,2718.00042445913
0.128364701537746,2718.01042445913
0.129106663999297,2718.02042445913
0.131435844940656,2718.03042445913
0.134815626905685,2718.04042445913
0.139217850488752,2718.05042445913
0.143714115859064,2718.06042445913
0.148443176898831,2718.07042445913
0.152623477598841,2718.08042445913
0.155509390654648,2718.09042445913
0.156685433395153,2718.10042445913
0.154892799212728,2718.11042445913
0.151014384600462,2718.12042445913
0.143876832265159,2718.13042445913
0.133768145258806,2718.14042445913
0.122135675027756,2718.15042445913
0.108812384211414,2718.16042445913
0.0954545771440441,2718.17042445913
0.0820328107974301,2718.18042445913
0.0684628364247355,2718.19042445913
0.0546556719655244,2718.20042445913
0.0408344581838032,2718.21042445913
0.0268163865798165,2718.22042445913
0.0129495747709828,2718.23042445913
-0.000863421716345695,2718.24042445913
-0.013953296454771,2718.25042445913
-0.0262026941626401,2718.26042445913
-0.0381385969593718,2718.27042445913
-0.0498975271465605,2718.28042445913
-0.0616534776481945,2718.29042445913
-0.0727502207695034,2718.30042445913
-0.083532616009489,2718.31042445913
-0.0934676335623665,2718.32042445913
-0.102828834968335,2718.33042445913
-0.112129957577679,2718.34042445913
-0.121835328735782,2718.35042445913
-0.132010759720858,2718.36042445913
-0.14265971836932,2718.37042445913
-0.153557223083143,2718.38042445913
-0.164080754081048,2718.39042445913
-0.174806839101028,2718.40042445913
-0.185598097138766,2718.41042445913
-0.196085040593523,2718.42042445913
-0.206945268040166,2718.43042445913
-0.217481769310764,2718.44042445913
-0.228032026522457,2718.45042445913
-0.238299091718727,2718.46042445913
-0.24826457834793,2718.47042445913
-0.257296166520269,2718.48042445913
-0.266121713143869,2718.49042445913
-0.274973694819821,2718.50042445913
-0.284248697227116,2718.51042445913
-0.294159019420887,2718.52042445913
-0.304062596616733,2718.53042445913
-0.313237364964588,2718.54042445913
-0.321255665634377,2718.55042445913
-0.326745488353292,2718.56042445913
-0.327227815417451,2718.57042445913
-0.320149632213983,2718.58042445913
-0.302968175126627,2718.59042445913
-0.27399835013255,2718.60042445913
-0.233806836664389,2718.61042445913
-0.184642413404789,2718.62042445913
-0.128981782189899,2718.63042445913
-0.0700206429817762,2718.64042445913
-0.0103905298210706,2718.65042445913
0.0466261985873933,2718.66042445913
0.0983596172770239,2718.67042445913
0.14378179547964,2718.68042445913
0.181038947711912,2718.69042445913
0.209171336608241,2718.70042445913
0.228355868169429,2718.71042445913
0.239493202130929,2718.72042445913
0.243434761337661,2718.73042445913
0.241974951143279,2718.74042445913
0.23645203799753,2718.75042445913
0.228035559603469,2718.76042445913
0.218209699679674,2718.77042445913
0.207465086910709,2718.78042445913
0.197074134007511,2718.79042445913
0.188357368040712,2718.80042445913
0.181733686190542,2718.81042445913
0.177538143056469,2718.82042445913
0.174978352797969,2718.83042445913
0.172912287874801,2718.84042445913
0.170513338640934,2718.85042445913
0.167023096981903,2718.86042445913
0.162881985355768,2718.87042445913
0.157615098446436,2718.88042445913
0.152299706873659,2718.89042445913
0.147345348763018,2718.90042445913
0.143429596912266,2718.91042445913
0.140408432323547,2718.92042445913
0.13889138580229,2718.93042445913
0.139101113470421,2718.94042445913
0.140913339129597,2718.95042445913
0.143695342026964,2718.96042445913
0.147479043629756,2718.97042445913
0.151473657969636,2718.98042445913
0.154591130146355,2718.99042445913
0.157295897996894,2719.00042445913
0.158609693099889,2719.01042445913
0.158575697734684,2719.02042445913
0.15601872985823,2719.03042445913
0.151306434722793,2719.04042445913
0.143915481707178,2719.05042445913
0.134289392331918,2719.06042445913
0.123120262931854,2719.07042445913
0.110310254135157,2719.08042445913
0.0971042989858009,2719.09042445913
0.0833994438468999,2719.10042445913
0.0694562160621197,2719.11042445913
0.0554588412148576,2719.12042445913
0.0412134978172578,2719.13042445913
0.0264640869166894,2719.14042445913
0.0116685480068268,2719.15042445913
-0.0029998264682085,2719.16042445913
-0.0169246529072781,2719.17042445913
-0.0298615897687286,2719.18042445913
-0.0420261241083484,2719.19042445913
-0.0536305592102071,2719.20042445913
-0.0654236382949943,2719.21042445913
-0.077192833386207,2719.22042445913
-0.0892497145953048,2719.23042445913
-0.101060205065056,2719.24042445913
-0.112494328501262,2719.25042445913
-0.123252470197329,2719.26042445913
-0.133178663958071,2719.27042445913
-0.14284525354529,2719.28042445913
-0.152241814738569,2719.29042445913
-0.162022881205162,2719.30042445913
-0.172234795563351,2719.31042445913
-0.183047347678775,2719.32042445913
-0.194490323265295,2719.33042445913
-0.205806569994058,2719.34042445913
-0.217122293119921,2719.35042445913
-0.228385858641422,2719.36042445913
-0.239880408525817,2719.37042445913
-0.251160744372527,2719.38042445913
-0.262538055053244,2719.39042445913
-0.273888362438333,2719.40042445913
-0.284869539786335,2719.41042445913
-0.295225233663818,2719.42042445913
-0.305252650699856,2719.43042445913
-0.314288259515612,2719.44042445913
-0.323365791035163,2719.45042445913
-0.332751426360175,2719.46042445913
-0.342483897056503,2719.47042445913
-0.35242415179926,2719.48042445913
-0.362148644421405,2719.49042445913
-0.372009076241547,2719.50042445913
-0.381632620660224,2719.51042445913
-0.390967161434998,2719.52042445913
-0.400842250899033,2719.53042445913
-0.410560692060644,2719.54042445913
-0.418704121368961,2719.55042445913
-0.423486364484674,2719.56042445913
-0.423174505061117,2719.57042445913
-0.41403426979043,2719.58042445913
-0.394627986943327,2719.59042445913
-0.364055487112207,2719.60042445913
-0.323315439974972,2719.61042445913
-0.274416932913629,2719.62042445913
-0.219807622003808,2719.63042445913
-0.16247260986396,2719.64042445913
-0.106512998943173,2719.65042445913
-0.0534464522173466,2719.66042445913
-0.00614190308731606,2719.67042445913
0.034575905129922,2719.68042445913
0.0685929490129115,2719.69042445913
0.0945780232524025,2719.70042445913
0.111582202439014,2719.71042445913
0.120237633998392,2719.72042445913
0.12130833840773,2719.73042445913
0.116473297215199,2719.74042445913
0.107095654109617,2719.75042445913
0.0943357545038367,2719.76042445913
0.0794624588610412,2719.77042445913
0.0639813987683059,2719.78042445913
0.0485062692706775,2719.79042445913
0.0339605667575542,2719.80042445913
0.0208207107822206,2719.81042445913
0.00911741037534251,2719.82042445913
-0.000478577483362208,2719.83042445913
-0.00840526259440982,2719.84042445913
-0.0154077101620083,2719.85042445913
-0.0216222784793202,2719.86042445913
-0.0272299862468732,2719.87042445913
-0.0323249022327508,2719.88042445913
-0.0357635241921906,2719.89042445913
-0.0378133770361372,2719.90042445913
-0.038124395564724,2719.91042445913
-0.036420478176202,2719.92042445913
-0.032157096129399,2719.93042445913
-0.025987274529783,2719.94042445913
-0.0182185519222364,2719.95042445913
-0.00970648645616656,2719.96042445913
-0.00134369858711621,2719.97042445913
0.00656271861351452,2719.98042445913
0.0134033102935044,2719.99042445913
0.0182476214316429,2720.00042445913
0.0208652374626635,2720.01042445913
0.0212301175444937,2720.02042445913
0.0195270890982805,2720.03042445913
0.0158801467941319,2720.04042445913
0.0100967644181675,2720.05042445913
0.00251234680555534,2720.06042445913
-0.00776612037987436,2720.07042445913
-0.019737134878255,2720.08042445913
-0.032448755365528,2720.09042445913
-0.045580944557775,2720.10042445913
-0.0587226824747632,2720.11042445913
-0.071512369619687,2720.12042445913
-0.0843851978426537,2720.13042445913
-0.0972728254419079,2720.14042445913
-0.110111620854408,2720.15042445913
-0.123224300893782,2720.16042445913
-0.13576599261178,2720.17042445913
-0.147747437661884,2720.18042445913
-0.158873806331957,2720.19042445913
-0.169364295552279,2720.20042445913
-0.179019713311676,2720.21042445913
-0.187897454351754,2720.22042445913
-0.196673079424906,2720.23042445913
-0.205651191272109,2720.24042445913
-0.214394469715232,2720.25042445913
-0.223068611636629,2720.26042445913
-0.231954807872099,2720.27042445913
-0.240646031756717,2720.28042445913
-0.249892980119068,2720.29042445913
-0.259286414803141,2720.30042445913
-0.268996080925026,2720.31042445913
-0.278954212574371,2720.32042445913
-0.288813958361676,2720.33042445913
-0.299036530662574,2720.34042445913
-0.309274249514715,2720.35042445913
-0.318757345856228,2720.36042445913
-0.328222218648647,2720.37042445913
-0.337488851594901,2720.38042445913
-0.346027928054198,2720.39042445913
-0.354962870911143,2720.40042445913
-0.363491947072001,2720.41042445913
-0.372043347287844,2720.42042445913
-0.380067808686295,2720.43042445913
-0.385919948141166,2720.44042445913
-0.387670459498291,2720.45042445913
-0.382619946729292,2720.46042445913
-0.368472063608808,2720.47042445913
-0.343677268225908,2720.48042445913
-0.307934011640269,2720.49042445913
-0.263593137640991,2720.50042445913
-0.212986420971436,2720.51042445913
-0.159796674068957,2720.52042445913
-0.107100280231003,2720.53042445913
-0.0568472260718544,2720.54042445913
-0.010825448480275,2720.55042445913
0.0293643269761212,2720.56042445913
0.0630888119648513,2720.57042445913
0.0886238851983628,2720.58042445913
0.105772608566192,2720.59042445913
0.1150743012644,2720.60042445913
0.117053464108398,2720.61042445913
0.113510382328224,2720.62042445913
0.105509247397094,2720.63042445913
0.0946401298213758,2720.64042445913
0.0816382612644109,2720.65042445913
0.0677267766714622,2720.66042445913
0.0531763497571222,2720.67042445913
0.0388037110336334,2720.68042445913
0.0254113963013482,2720.69042445913
0.0129715405071761,2720.70042445913
0.00124245732866479,2720.71042445913
-0.0096549145799749,2720.72042445913
-0.0199915906454624,2720.73042445913
-0.0297941821813862,2720.74042445913
-0.0391753286179234,2720.75042445913
-0.0466412749857543,2720.76042445913
-0.0515758505471469,2720.77042445913
-0.052711074943533,2720.78042445913
-0.0506141793215276,2720.79042445913
-0.0451860386464008,2720.80042445913
-0.0369868056573023,2720.81042445913
-0.0269475883499869,2720.82042445913
-0.0157842079910443,2720.83042445913
-0.00479572927972726,2720.84042445913
0.00497063698605059,2720.85042445913
0.0133850696181757,2720.86042445913
0.0201104430594066,2720.87042445913
0.024071474882819,2720.88042445913
0.0254498660013897,2720.89042445913
0.0235797045849393,2720.90042445913
0.0193144050453745,2720.91042445913
0.0120056043966588,2720.92042445913
0.00295653132696419,2720.93042445913
-0.00805034910013986,2720.94042445913
-0.0201184339304138,2720.95042445913
-0.0332578448180062,2720.96042445913
-0.0469646378965472,2720.97042445913
-0.0615176180674533,2720.98042445913
-0.0768173936094143,2720.99042445913
-0.0920801481168885,2721.00042445913
-0.106179353082586,2721.01042445913
-0.119332491266513,2721.02042445913
-0.131266457161199,2721.03042445913
-0.141573221542583,2721.04042445913
-0.1515897456424,2721.05042445913
-0.161024917000625,2721.06042445913
-0.169800071267759,2721.07042445913
-0.178754913235425,2721.08042445913
-0.187563837278883,2721.09042445913
-0.196155873494882,2721.10042445913
-0.205025620794065,2721.11042445913
-0.213479544737126,2721.12042445913
-0.221894784509452,2721.13042445913
-0.230627313318868,2721.14042445913
-0.239442682926808,2721.15042445913
-0.249082485916771,2721.16042445913
-0.258243023941492,2721.17042445913
-0.267260632315761,2721.18042445913
-0.27633370322777,2721.19042445913
-0.285334473862906,2721.20042445913
-0.294781776305188,2721.21042445913
-0.303708927406967,2721.22042445913
-0.312453916708469,2721.23042445913
-0.321428260651218,2721.24042445913
-0.330343088385005,2721.25042445913
-0.3394499223186,2721.26042445913
-0.349253481317305,2721.27042445913
-0.358271475289039,2721.28042445913
-0.367041778124836,2721.29042445913
-0.374287535785913,2721.30042445913
-0.378368721765556,2721.31042445913
-0.37646561455824,2721.32042445913
-0.366416460293102,2721.33042445913
-0.346471086609529,2721.34042445913
-0.315642149009433,2721.35042445913
-0.274038535211509,2721.36042445913
-0.223577411771199,2721.37042445913
-0.16798775140245,2721.38042445913
-0.10960101920968,2721.39042445913
-0.0513327017601228,2721.40042445913
0.00408703320400095,2721.41042445913
0.0552770633541402,2721.42042445913
0.0999025786617469,2721.43042445913
0.136949412539736,2721.44042445913
0.166973024110793,2721.45042445913
0.188794080268912,2721.46042445913
0.202277236618965,2721.47042445913
0.208917795842636,2721.48042445913
0.208743592319774,2721.49042445913
0.203649471936607,2721.50042445913
0.196143560251127,2721.51042445913
0.187172242557025,2721.52042445913
0.178082438667416,2721.53042445913
0.170124699279693,2721.54042445913
0.163603247185853,2721.55042445913
0.158868336310443,2721.56042445913
0.155807128184267,2721.57042445913
0.153969542943981,2721.58042445913
0.153059304337637,2721.59042445913
0.151477464272586,2721.60042445913
0.148670308470681,2721.61042445913
0.144648602885877,2721.62042445913
0.139077881942059,2721.63042445913
0.13336838025656,2721.64042445913
0.127839488609703,2721.65042445913
0.123999874552153,2721.66042445913
0.122412928052521,2721.67042445913
0.122547407401927,2721.68042445913
0.124170725459862,2721.69042445913
0.12782721252485,2721.70042445913
0.131613805524696,2721.71042445913
0.135765721930154,2721.72042445913
0.140016647873131,2721.73042445913
0.143649050474057,2721.74042445913
0.146682725047488,2721.75042445913
0.148546479418326,2721.76042445913
0.148985097630847,2721.77042445913
0.147403196326216,2721.78042445913
0.143804715801095,2721.79042445913
0.137613450275383,2721.80042445913
0.129099674270145,2721.81042445913
0.118811278969945,2721.82042445913
0.107304585055952,2721.83042445913
0.0946480337222393,2721.84042445913
0.0814513493451877,2721.85042445913
0.0680072858651049,2721.86042445913
0.054764940286616,2721.87042445913
0.0418224837383333,2721.88042445913
0.0285589710597375,2721.89042445913
0.0157972757732325,2721.90042445913
0.00301648684304411,2721.91042445913
-0.00963228983794985,2721.92042445913
-0.0219714086588513,2721.93042445913
-0.0338631767034906,2721.94042445913
-0.045253754261527,2721.95042445913
-0.0561560029666312,2721.96042445913
-0.0668559878781692,2721.97042445913
-0.0771610215454199,2721.98042445913
-0.0876675552953044,2721.99042445913
-0.0977279921230059,2722.00042445913
-0.108025292166803,2722.01042445913
-0.118082747324208,2722.02042445913
-0.127462915423775,2722.03042445913
-0.137220247252238,2722.04042445913
-0.147464818341114,2722.05042445913
-0.158298371372553,2722.06042445913
-0.169227125010447,2722.07042445913
-0.180493257435081,2722.08042445913
-0.190836795070485,2722.09042445913
-0.201205283610681,2722.10042445913
-0.211060069719855,2722.11042445913
-0.220755326219308,2722.12042445913
-0.230300774588722,2722.13042445913
-0.240505617062575,2722.14042445913
-0.250797056735984,2722.15042445913
-0.261225686174162,2722.16042445913
-0.271899919533437,2722.17042445913
-0.282507544327846,2722.18042445913
-0.29314476409547,2722.19042445913
-0.303174163947409,2722.20042445913
-0.312618336025991,2722.21042445913
-0.321687205109006,2722.22042445913
-0.330497322198651,2722.23042445913
-0.339201903097209,2722.24042445913
-0.348241472456659,2722.25042445913
-0.356911730136177,2722.26042445913
-0.365618695951999,2722.27042445913
-0.372811020226329,2722.28042445913
-0.377498010828883,2722.29042445913
-0.376756678321213,2722.30042445913
-0.368373965199893,2722.31042445913
-0.350777261586837,2722.32042445913
-0.322280570586995,2722.33042445913
-0.282767761117141,2722.34042445913
-0.233314391709518,2722.35042445913
-0.176469730972284,2722.36042445913
-0.114873854240524,2722.37042445913
-0.0520038560861358,2722.38042445913
0.00865743556550793,2722.39042445913
0.0653828653427607,2722.40042445913
0.115186977436665,2722.41042445913
0.157378082899914,2722.42042445913
0.191304138031664,2722.43042445913
0.216327927348646,2722.44042445913
0.232807672120262,2722.45042445913
0.241568036126335,2722.46042445913
0.243512735879005,2722.47042445913
0.240368691179952,2722.48042445913
0.233515098850806,2722.49042445913
0.224744231262197,2722.50042445913
0.2149507590186,2722.51042445913
0.206714686137946,2722.52042445913
0.200457129931956,2722.53042445913
0.19606249403544,2722.54042445913
0.193082370135183,2722.55042445913
0.191543867891975,2722.56042445913
0.191047041031295,2722.57042445913
0.190883912430501,2722.58042445913
0.189317864913641,2722.59042445913
0.186979225803816,2722.60042445913
0.183653289299605,2722.61042445913
0.179713518713007,2722.62042445913
0.175802674082142,2722.63042445913
0.172487579173553,2722.64042445913
0.16992596735386,2722.65042445913
0.167957074024789,2722.66042445913
0.167560542422356,2722.67042445913
0.168183385377138,2722.68042445913
0.170150873202772,2722.69042445913
0.173166311498912,2722.70042445913
0.176719712773888,2722.71042445913
0.180480537984165,2722.72042445913
0.183511027682035,2722.73042445913
0.185663747595721,2722.74042445913
0.186185245254771,2722.75042445913
0.185009193458968,2722.76042445913
0.182454362691836,2722.77042445913
0.17789254266122,2722.78042445913
0.170791266280662,2722.79042445913
0.162006488693878,2722.80042445913
0.150694936256253,2722.81042445913
0.137980386429207,2722.82042445913
0.124181738446403,2722.83042445913
0.11063469651551,2722.84042445913
0.0967075184494452,2722.85042445913
0.0825519845505262,2722.86042445913
0.0679015383610083,2722.87042445913
0.053285613631371,2722.88042445913
0.0388259612323347,2722.89042445913
0.0252649869911474,2722.90042445913
0.0118652663965473,2722.91042445913
-0.00015333652030095,2722.92042445913
-0.012011922762248,2722.93042445913
-0.0239988741503615,2722.94042445913
-0.0357373052282375,2722.95042445913
-0.0478554455247471,2722.96042445913
-0.0592755282431528,2722.97042445913
-0.0699822401764293,2722.98042445913
-0.0802679373623233,2722.99042445913
-0.0891314940808774,2723.00042445913
-0.097985805036051,2723.01042445913
-0.106846300567195,2723.02042445913
-0.11627048500581,2723.03042445913
-0.126813750442626,2723.04042445913
-0.137452765193848,2723.05042445913
-0.148641019808818,2723.06042445913
-0.159058897546523,2723.07042445913
-0.169184418556209,2723.08042445913
-0.178814314413137,2723.09042445913
-0.188172504305605,2723.10042445913
-0.197510320963149,2723.11042445913
-0.20669011093555,2723.12042445913
-0.21656508163143,2723.13042445913
-0.226290015256558,2723.14042445913
-0.236822428432219,2723.15042445913
-0.246734144591507,2723.16042445913
-0.256281916839824,2723.17042445913
-0.265577073328977,2723.18042445913
-0.274922496716394,2723.19042445913
-0.285004387690703,2723.20042445913
-0.295393743777816,2723.21042445913
-0.305921635906051,2723.22042445913
-0.316079097783961,2723.23042445913
-0.325804330812929,2723.24042445913
-0.334693633443476,2723.25042445913
-0.343189464879525,2723.26042445913
-0.351646085367628,2723.27042445913
-0.360395531875602,2723.28042445913
-0.369059832161617,2723.29042445913
-0.378238096202592,2723.30042445913
-0.387777243615754,2723.31042445913
-0.397114124403869,2723.32042445913
-0.406624012717957,2723.33042445913
-0.414062844372446,2723.34042445913
-0.418486454352018,2723.35042445913
-0.417283517584737,2723.36042445913
-0.406797081287487,2723.37042445913
-0.38560706716518,2723.38042445913
-0.352140132361423,2723.39042445913
-0.307368079874446,2723.40042445913
-0.253862654857593,2723.41042445913
-0.195366407741822,2723.42042445913
-0.135823810230286,2723.43042445913
-0.0777472182167332,2723.44042445913
-0.0230515875467413,2723.45042445913
0.0265323974011824,2723.46042445913
0.0702415943907498,2723.47042445913
0.106012562213353,2723.48042445913
0.133626006302921,2723.49042445913
0.152416140459933,2723.50042445913
0.162686148495542,2723.51042445913
0.165647968125947,2723.52042445913
0.16248455966255,2723.53042445913
0.154741525693127,2723.54042445913
0.143946254529152,2723.55042445913
0.131143663818336,2723.56042445913
0.117334311347179,2723.57042445913
0.104139451817929,2723.58042445913
0.0913453221112242,2723.59042445913
0.0804479958464859,2723.60042445913
0.0711916778935173,2723.61042445913
0.0626733862730986,2723.62042445913
0.0545111528825501,2723.63042445913
0.0470818004344494,2723.64042445913
0.0397561750549062,2723.65042445913
0.0334562120361447,2723.66042445913
0.0282698545123435,2723.67042445913
0.024638332132109,2723.68042445913
0.0225027718062343,2723.69042445913
0.0225229198661971,2723.70042445913
0.0253353914869743,2723.71042445913
0.0305754918400522,2723.72042445913
0.0377280085464608,2723.73042445913
0.0463744494391012,2723.74042445913
0.0559804091321224,2723.75042445913
0.0653750274799735,2723.76042445913
0.0750595638484994,2723.77042445913
0.0838671882626316,2723.78042445913
0.0910113618690561,2723.79042445913
0.0952120386790702,2723.80042445913
0.096194912910361,2723.81042445913
0.0944142006105265,2723.82042445913
0.0889914501028339,2723.83042445913
0.0821041539278411,2723.84042445913
0.0734916163575387,2723.85042445913
0.0642322678695181,2723.86042445913
0.0542163214172691,2723.87042445913
0.0435981561729992,2723.88042445913
0.0323024480970572,2723.89042445913
0.0200806510114064,2723.90042445913
0.00675608100399452,2723.91042445913
-0.00660399169289775,2723.92042445913
-0.0199924707944446,2723.93042445913
-0.0326372102078366,2723.94042445913
-0.0444797446599426,2723.95042445913
-0.055591756856962,2723.96042445913
-0.0664689775156662,2723.97042445913
-0.0767971267279584,2723.98042445913
-0.0872582669634399,2723.99042445913
-0.0976002252699879,2724.00042445913
-0.107316726682652,2724.01042445913
-0.116551173903283,2724.02042445913
-0.125722878528127,2724.03042445913
-0.134665268223175,2724.04042445913
-0.143183013583023,2724.05042445913
-0.151671691835989,2724.06042445913
-0.160232921339653,2724.07042445913
-0.168667369497318,2724.08042445913
-0.177290172189014,2724.09042445913
-0.18582260529273,2724.10042445913
-0.194464710279349,2724.11042445913
-0.203432822506196,2724.12042445913
-0.212712782723132,2724.13042445913
-0.222653760391254,2724.14042445913
-0.233166949410816,2724.15042445913
-0.243471371117193,2724.16042445913
-0.253546194338918,2724.17042445913
-0.262821226681482,2724.18042445913
-0.271825705379227,2724.19042445913
-0.280687135371355,2724.20042445913
-0.289528682236864,2724.21042445913
-0.297910042707182,2724.22042445913
-0.305949863220884,2724.23042445913
-0.313989640909105,2724.24042445913
-0.322227289855744,2724.25042445913
-0.330517488636049,2724.26042445913
-0.3387278190967,2724.27042445913
-0.345820882531736,2724.28042445913
-0.349980364018498,2724.29042445913
-0.349043138079335,2724.30042445913
-0.340630996002385,2724.31042445913
-0.322074301747883,2724.32042445913
-0.292565461222242,2724.33042445913
-0.252792774959786,2724.34042445913
-0.203840034859427,2724.35042445913
-0.150155684080834,2724.36042445913
-0.0924938944360327,2724.37042445913
-0.0346906124576118,2724.38042445913
0.0212176619622837,2724.39042445913
0.0737049309981316,2724.40042445913
0.119575771724778,2724.41042445913
0.15893307332724,2724.42042445913
0.190236419410207,2724.43042445913
0.213266680869941,2724.44042445913
0.228485151455512,2724.45042445913
0.236503763264244,2724.46042445913
0.237782563917859,2724.47042445913
0.233849799810649,2724.48042445913
0.225857858309304,2724.49042445913
0.215257559673598,2724.50042445913
0.203254959796455,2724.51042445913
0.191432666418444,2724.52042445913
0.180531044870871,2724.53042445913
0.171827003176231,2724.54042445913
0.164558121150628,2724.55042445913
0.158336913472477,2724.56042445913
0.152328858561585,2724.57042445913
0.146573023542162,2724.58042445913
0.140894148182259,2724.59042445913
0.135557630006707,2724.60042445913
0.13110713243639,2724.61042445913
0.12793159382579,2724.62042445913
0.126029536534207,2724.63042445913
0.126478984201258,2724.64042445913
0.129392313553524,2724.65042445913
0.134683380237457,2724.66042445913
0.142509810500211,2724.67042445913
0.151981462896642,2724.68042445913
0.162866436757368,2724.69042445913
0.173688685961741,2724.70042445913
0.183813521594533,2724.71042445913
0.192123452446359,2724.72042445913
0.198427886808238,2724.73042445913
0.202615729596419,2724.74042445913
0.204507480700673,2724.75042445913
0.203748976374343,2724.76042445913
0.200381537661246,2724.77042445913
0.194590881258309,2724.78042445913
0.186041361746439,2724.79042445913
0.175600180946381,2724.80042445913
0.162872992717962,2724.81042445913
0.148355913022154,2724.82042445913
0.133463201990902,2724.83042445913
0.118309465779569,2724.84042445913
0.102933564458687,2724.85042445913
0.0880585037860787,2724.86042445913
0.0740279890740785,2724.87042445913
0.060508704925852,2724.88042445913
0.0481259394350072,2724.89042445913
0.0356301122626356,2724.90042445913
0.0231302995993343,2724.91042445913
0.01069220195395,2724.92042445913
-0.00085664710346023,2724.93042445913
-0.0115450965316416,2724.94042445913
-0.0221654096747761,2724.95042445913
-0.0323886182667344,2724.96042445913
-0.0421835712388251,2724.97042445913
-0.0518396394944945,2724.98042445913
-0.061018959941631,2724.99042445913
-0.0700967328215539,2725.00042445913
-0.0795509798003587,2725.01042445913
-0.0892110524816957,2725.02042445913
-0.0990860157902648,2725.03042445913
-0.108609705729202,2725.04042445913
-0.118006511862099,2725.05042445913
-0.127457890914902,2725.06042445913
-0.136064481233102,2725.07042445913
-0.144332294763777,2725.08042445913
-0.152802546598639,2725.09042445913
-0.161760504679103,2725.10042445913
-0.171576708773389,2725.11042445913
-0.181283240809418,2725.12042445913
-0.190785703498845,2725.13042445913
-0.199828267223843,2725.14042445913
-0.207740947888573,2725.15042445913
-0.215381034479398,2725.16042445913
-0.222388799150654,2725.17042445913
-0.229320935254152,2725.18042445913
-0.236369308314997,2725.19042445913
-0.243876676062299,2725.20042445913
-0.251237003246826,2725.21042445913
-0.259115826824958,2725.22042445913
-0.267452344535927,2725.23042445913
-0.276690559680524,2725.24042445913
-0.285901203279968,2725.25042445913
-0.295814290562664,2725.26042445913
-0.30327414276247,2725.27042445913
-0.307179167157168,2725.28042445913
-0.303827317774181,2725.29042445913
-0.290358206378761,2725.30042445913
-0.264413611252507,2725.31042445913
-0.226604236401395,2725.32042445913
-0.178347139248821,2725.33042445913
-0.121676418230391,2725.34042445913
-0.0599750413276603,2725.35042445913
0.00310384299415104,2725.36042445913
0.0660133821676765,2725.37042445913
0.125768947820814,2725.38042445913
0.181159283026862,2725.39042445913
0.230575587847673,2725.40042445913
0.271550310233421,2725.41042445913
0.303924144689839,2725.42042445913
0.326984807613104,2725.43042445913
0.341897965155088,2725.44042445913
0.350053418408164,2725.45042445913
0.352479432642816,2725.46042445913
0.350063913209205,2725.47042445913
0.344485475478421,2725.48042445913
0.336241730497912,2725.49042445913
0.326605772509027,2725.50042445913
0.316854791555495,2725.51042445913
0.30843971043331,2725.52042445913
0.302877643715113,2725.53042445913
0.299342867375796,2725.54042445913
0.297706964295905,2725.55042445913
0.297201489047912,2725.56042445913
0.296085068886834,2725.57042445913
0.293743944230423,2725.58042445913
0.290553013774301,2725.59042445913
0.286940442566739,2725.60042445913
0.283085237705174,2725.61042445913
0.280089267484926,2725.62042445913
0.277777151731548,2725.63042445913
0.276484486118589,2725.64042445913
0.276696227785204,2725.65042445913
0.278015696709272,2725.66042445913
0.280945314787671,2725.67042445913
0.285941862276825,2725.68042445913
0.291341092648768,2725.69042445913
0.297885253123163,2725.70042445913
0.303995429710315,2725.71042445913
0.308708185641133,2725.72042445913
0.312132657306485,2725.73042445913
0.313334633361373,2725.74042445913
0.311772768141675,2725.75042445913
0.308765542831481,2725.76042445913
0.303314884409575,2725.77042445913
0.295712815482633,2725.78042445913
0.286406644512315,2725.79042445913
0.275319019769565,2725.80042445913
0.262950668691011,2725.81042445913
0.249628803561939,2725.82042445913
0.235650109867591,2725.83042445913
0.220900936580807,2725.84042445913
0.205560705907965,2725.85042445913
0.19006447495471,2725.86042445913
0.174802826607149,2725.87042445913
0.160308200006374,2725.88042445913
0.14702171308456,2725.89042445913
0.134339363734104,2725.90042445913
0.121543159993551,2725.91042445913
0.109063314289847,2725.92042445913
0.0962492032684434,2725.93042445913
0.0836256176601037,2725.94042445913
0.0716542829406345,2725.95042445913
0.0599375856867103,2725.96042445913
0.0488359417127554,2725.97042445913
0.0378723227930175,2725.98042445913
0.0269346305389952,2725.99042445913
0.0168590405245846,2726.00042445913
0.00652219096238604,2726.01042445913
-0.00382309028607627,2726.02042445913
-0.0147109812353387,2726.03042445913
-0.0260272337717934,2726.04042445913
-0.0374016810058572,2726.05042445913
-0.0485976810395279,2726.06042445913
-0.0599908917851975,2726.07042445913
-0.0709679334101229,2726.08042445913
-0.0814921248695867,2726.09042445913
-0.0919898188521052,2726.10042445913
-0.10286322813776,2726.11042445913
-0.114040373913605,2726.12042445913
-0.124766992060011,2726.13042445913
-0.134824223013839,2726.14042445913
-0.143743356171882,2726.15042445913
-0.151923358355468,2726.16042445913
-0.159896069096923,2726.17042445913
-0.167924836837228,2726.18042445913
-0.176762109705782,2726.19042445913
-0.185361543646882,2726.20042445913
-0.19388942503422,2726.21042445913
-0.202993286525117,2726.22042445913
-0.211925474946205,2726.23042445913
-0.221263323690235,2726.24042445913
-0.231122514279334,2726.25042445913
-0.24143964175603,2726.26042445913
-0.251132487179395,2726.27042445913
-0.259086382248676,2726.28042445913
-0.264447622669113,2726.29042445913
-0.264075084640847,2726.30042445913
-0.255792303905028,2726.31042445913
-0.237352329905405,2726.32042445913
-0.207271250552894,2726.33042445913
-0.167191489280137,2726.34042445913
-0.117781065672372,2726.35042445913
-0.0626124768174969,2726.36042445913
-0.00374795384464177,2726.37042445913
0.0563239410244675,2726.38042445913
0.11485850385003,2726.39042445913
0.170286792844626,2726.40042445913
0.221140929702352,2726.41042445913
0.264856113003215,2726.42042445913
0.301013245472166,2726.43042445913
0.329314687932806,2726.44042445913
0.349367162801294,2726.45042445913
0.360695951248924,2726.46042445913
0.364459668713062,2726.47042445913
0.361658068882391,2726.48042445913
0.353570326705337,2726.49042445913
0.342195921199994,2726.50042445913
0.328414539702815,2726.51042445913
0.314549480809029,2726.52042445913
0.30188523978697,2726.53042445913
0.290845008911074,2726.54042445913
0.281718909644155,2726.55042445913
0.27412552899371,2726.56042445913
0.267302962755553,2726.57042445913
0.26100639197263,2726.58042445913
0.254510957427679,2726.59042445913
0.24828562148044,2726.60042445913
0.242366456982571,2726.61042445913
0.237739806400582,2726.62042445913
0.233478598121573,2726.63042445913
0.231317960630909,2726.64042445913
0.231242012451243,2726.65042445913
0.233520776507859,2726.66042445913
0.239202705033078,2726.67042445913
0.247061285906957,2726.68042445913
0.256977966730985,2726.69042445913
0.267884568261231,2726.70042445913
0.278675088371965,2726.71042445913
0.288592712275605,2726.72042445913
0.296847193731201,2726.73042445913
0.303497392054777,2726.74042445913
0.307856792240937,2726.75042445913
0.310673615240937,2726.76042445913
0.31158140153709,2726.77042445913
0.31013217569053,2726.78042445913
0.30711325273304,2726.79042445913
0.301680511269295,2726.80042445913
0.294061535733169,2726.81042445913
0.284303420902663,2726.82042445913
0.272867784267631,2726.83042445913
0.259993179243614,2726.84042445913
0.246598357560014,2726.85042445913
0.233065516150968,2726.86042445913
0.219556256048103,2726.87042445913
0.207195761437604,2726.88042445913
0.195030454854109,2726.89042445913
0.18382261381692,2726.90042445913
0.173055964421885,2726.91042445913
0.162567216312702,2726.92042445913
0.152728951545757,2726.93042445913
0.142604100135618,2726.94042445913
0.132498795207725,2726.95042445913
0.1232391926445,2726.96042445913
0.114723223951079,2726.97042445913
0.106998166450272,2726.98042445913
0.0995377249961244,2726.99042445913
0.091053462524279,2727.00042445913
0.0822916592509343,2727.01042445913
0.0727507573611826,2727.02042445913
0.0631209103776036,2727.03042445913
0.0528912841509723,2727.04042445913
0.0426935736948302,2727.05042445913
0.0327906559272885,2727.06042445913
0.0227787395175636,2727.07042445913
0.0130021464524449,2727.08042445913
0.00316774289439592,2727.09042445913
-0.00677952211531366,2727.10042445913
-0.0165102331198915,2727.11042445913
-0.025767452913917,2727.12042445913
-0.0349597806931167,2727.13042445913
-0.0445556789114473,2727.14042445913
-0.0540089476868341,2727.15042445913
-0.0626203491236174,2727.16042445913
-0.0708771849666865,2727.17042445913
-0.0782399329876806,2727.18042445913
-0.0852313261939944,2727.19042445913
-0.0920966079696102,2727.20042445913
-0.099197055184429,2727.21042445913
-0.105969274550982,2727.22042445913
-0.111572481781995,2727.23042445913
-0.114418353274115,2727.24042445913
-0.111488702190384,2727.25042445913
-0.100786805729692,2727.26042445913
-0.0798847992627255,2727.27042445913
-0.0484377397339859,2727.28042445913
-0.0079370750208248,2727.29042445913
0.0406035475165649,2727.30042445913
0.0943200617255839,2727.31042445913
0.151770829884558,2727.32042445913
0.211605385866637,2727.33042445913
0.270248973613114,2727.34042445913
0.326372162366559,2727.35042445913
0.377296283209504,2727.36042445913
0.420725064723353,2727.37042445913
0.456283794224325,2727.38042445913
0.483238435791637,2727.39042445913
0.501109212535321,2727.40042445913
0.511287003704639,2727.41042445913
0.513980474840848,2727.42042445913
0.510130195314605,2727.43042445913
0.500812867708331,2727.44042445913
0.488041172093443,2727.45042445913
0.472168788335509,2727.46042445913
0.45499177718542,2727.47042445913
0.438844849600727,2727.48042445913
0.423291651037569,2727.49042445913
0.409390476929817,2727.50042445913
0.396278650673186,2727.51042445913
0.382980314520256,2727.52042445913
0.3692297190394,2727.53042445913
0.355279212651587,2727.54042445913
0.342445140963402,2727.55042445913
0.331154056477025,2727.56042445913
0.322740881076048,2727.57042445913
0.317741202377874,2727.58042445913
0.316179638781965,2727.59042445913
0.317964208602807,2727.60042445913
0.322293938977944,2727.61042445913
0.329090061356364,2727.62042445913
0.336859832619702,2727.63042445913
0.346051487552112,2727.64042445913
0.355750032364823,2727.65042445913
0.365353483468187,2727.66042445913
0.373919607310539,2727.67042445913
0.379984758126601,2727.68042445913
0.383761398449285,2727.69042445913
0.38455190205744,2727.70042445913
0.382993651903552,2727.71042445913
0.378745249393798,2727.72042445913
0.371535574758461,2727.73042445913
0.361817578819426,2727.74042445913
0.349081327179736,2727.75042445913
0.335138902157556,2727.76042445913
0.319627546095286,2727.77042445913
0.303292526631484,2727.78042445913
0.286471258984019,2727.79042445913
0.270344985958732,2727.80042445913
0.255077198165005,2727.81042445913
0.239321709228103,2727.82042445913
0.224576119480206,2727.83042445913
0.209961866040102,2727.84042445913
0.195654548319157,2727.85042445913
0.181805013346995,2727.86042445913
0.168115646696535,2727.87042445913
0.155373176070323,2727.88042445913
0.142775584387631,2727.89042445913
0.130761183861172,2727.90042445913
0.118604927788569,2727.91042445913
0.106332864755882,2727.92042445913
0.0935854747403615,2727.93042445913
0.0806144616133166,2727.94042445913
0.0682525716601361,2727.95042445913
0.0562360222865233,2727.96042445913
0.044683655472209,2727.97042445913
0.0335065361917551,2727.98042445913
0.0228676318734496,2727.99042445913
0.0116883930573924,2728.00042445913
0.000514432608819442,2728.01042445913
-0.0108024293773549,2728.02042445913
-0.0221195043853028,2728.03042445913
-0.0337728200174675,2728.04042445913
-0.0451600166529347,2728.05042445913
-0.056317955160104,2728.06042445913
-0.0672259370467148,2728.07042445913
-0.0780671280332625,2728.08042445913
-0.0887232852086725,2728.09042445913
-0.0990791305057234,2728.10042445913
-0.10911579388007,2728.11042445913
-0.118884944885163,2728.12042445913
-0.129033817469365,2728.13042445913
-0.139011119052023,2728.14042445913
-0.149087677883277,2728.15042445913
-0.158891071971253,2728.16042445913
-0.166134314634625,2728.17042445913
-0.168851736349426,2728.18042445913
-0.163461882333141,2728.19042445913
-0.146706757323451,2728.20042445913
-0.117112503569326,2728.21042445913
-0.0746052690584258,2728.22042445913
-0.0214214865647152,2728.23042445913
0.0393971574996483,2728.24042445913
0.104737474976691,2728.25042445913
0.172423123757988,2728.26042445913
0.240356941149038,2728.27042445913
0.305454197536028,2728.28042445913
0.366414858306925,2728.29042445913
0.4201716450712,2728.30042445913
0.465571123214811,2728.31042445913
0.501370060386759,2728.32042445913
0.527105986417593,2728.33042445913
0.543405568289482,2728.34042445913
0.551187306960858,2728.35042445913
0.551183624243286,2728.36042445913
0.545044912801012,2728.37042445913
0.535392832439986,2728.38042445913
0.522898354893996,2728.39042445913
0.509212814063598,2728.40042445913
0.494458452189712,2728.41042445913
0.479583622770511,2728.42042445913
0.465907933783278,2728.43042445913
0.453986208608457,2728.44042445913
0.444085312832651,2728.45042445913
0.435347198553446,2728.46042445913
0.426500710849791,2728.47042445913
0.417539371692005,2728.48042445913
0.408369026967243,2728.49042445913
0.399074629116403,2728.50042445913
0.389090529839373,2728.51042445913
0.380031886427124,2728.52042445913
0.372217634988035,2728.53042445913
0.366144352323949,2728.54042445913
0.361990648818514,2728.55042445913
0.359472524225081,2728.56042445913
0.358629351789837,2728.57042445913
0.359087201291935,2728.58042445913
0.359816257345069,2728.59042445913
0.361327020092444,2728.60042445913
0.362667733085398,2728.61042445913
0.363215191718098,2728.62042445913
0.363023906480232,2728.63042445913
0.360540227486712,2728.64042445913
0.355800730693791,2728.65042445913
0.348208336727096,2728.66042445913
0.338389469965948,2728.67042445913
0.326732779868695,2728.68042445913
0.31393194882925,2728.69042445913
0.30017201769146,2728.70042445913
0.285691977866485,2728.71042445913
0.2703081740043,2728.72042445913
0.254237569142139,2728.73042445913
0.236879032098489,2728.74042445913
0.219031184751312,2728.75042445913
0.200841573003537,2728.76042445913
0.183085697910044,2728.77042445913
0.166407269027628,2728.78042445913
0.15032445676327,2728.79042445913
0.135063055324219,2728.80042445913
0.12037272719461,2728.81042445913
0.106118057132997,2728.82042445913
0.092105330181136,2728.83042445913
0.0789482928050909,2728.84042445913
0.0661156354562021,2728.85042445913
0.0541266815411083,2728.86042445913
0.0428221621725592,2728.87042445913
0.030616156567171,2728.88042445913
0.0184938833357435,2728.89042445913
0.0054946334341663,2728.90042445913
-0.00722306081336599,2728.91042445913
-0.0201384409973375,2728.92042445913
-0.0326005706986508,2728.93042445913
-0.0448944035767064,2728.94042445913
-0.0577354621081953,2728.95042445913
-0.0703270693499569,2728.96042445913
-0.0829803636664696,2728.97042445913
-0.0958747383773633,2728.98042445913
-0.108134027723056,2728.99042445913
-0.120601224284568,2729.00042445913
-0.132404069009836,2729.01042445913
-0.143423181609934,2729.02042445913
-0.154262210413166,2729.03042445913
-0.165062726781476,2729.04042445913
-0.175306305148341,2729.05042445913
-0.185119848274143,2729.06042445913
-0.195160755611047,2729.07042445913
-0.204998522387103,2729.08042445913
-0.214892717346502,2729.09042445913
-0.224740076375738,2729.10042445913
-0.234978454815876,2729.11042445913
-0.245346764482258,2729.12042445913
-0.255765653644056,2729.13042445913
-0.266235299029878,2729.14042445913
-0.275737106448042,2729.15042445913
-0.282722698647159,2729.16042445913
-0.284313336996211,2729.17042445913
-0.27850405242082,2729.18042445913
-0.261658392696854,2729.19042445913
-0.232460123505343,2729.20042445913
-0.191216457944165,2729.21042445913
-0.138775878306521,2729.22042445913
-0.0783522424206274,2729.23042445913
-0.0133255548617788,2729.24042445913
0.0538499394332766,2729.25042445913
0.119527771740453,2729.26042445913
0.182374419692007,2729.27042445913
0.23950935286587,2729.28042445913
0.289692128249369,2729.29042445913
0.331711593227534,2729.30042445913
0.364928141390721,2729.31042445913
0.388964079690676,2729.32042445913
0.403361169037329,2729.33042445913
0.409582505037296,2729.34042445913
0.409012311530498,2729.35042445913
0.402701373697825,2729.36042445913
0.392707059475855,2729.37042445913
0.380115725825885,2729.38042445913
0.366810860406772,2729.39042445913
0.354608103232042,2729.40042445913
0.34425883152206,2729.41042445913
0.336471241458222,2729.42042445913
0.330886863626622,2729.43042445913
0.326115364919791,2729.44042445913
0.321474691455761,2729.45042445913
0.316603065370678,2729.46042445913
0.310745234193528,2729.47042445913
0.305269636993605,2729.48042445913
0.300380016749356,2729.49042445913
0.294744910219096,2729.50042445913
0.290708308066387,2729.51042445913
0.286981586993983,2729.52042445913
0.285389676577313,2729.53042445913
0.285949328929819,2729.54042445913
0.288283706011321,2729.55042445913
0.292844091117948,2729.56042445913
0.298406976854343,2729.57042445913
0.304052988760058,2729.58042445913
0.309677202187272,2729.59042445913
0.313933882615201,2729.60042445913
0.316773087555715,2729.61042445913
0.317788520685007,2729.62042445913
0.316829776359436,2729.63042445913
0.31393081283596,2729.64042445913
0.308269517002981,2729.65042445913
0.300237179183114,2729.66042445913
0.289866882453185,2729.67042445913
0.278274923813033,2729.68042445913
0.265128185748165,2729.69042445913
0.250674381991062,2729.70042445913
0.23499715651665,2729.71042445913
0.21887488525765,2729.72042445913
0.202681746394353,2729.73042445913
0.186491786152097,2729.74042445913
0.170058148232204,2729.75042445913
0.153556729005007,2729.76042445913
0.137518309083702,2729.77042445913
0.121217268310836,2729.78042445913
0.105576274443079,2729.79042445913
0.0900728292004245,2729.80042445913
0.075611044630611,2729.81042445913
0.0616281576937111,2729.82042445913
0.048219240934264,2729.83042445913
0.035040282765533,2729.84042445913
0.0219553895145789,2729.85042445913
0.00818269478442524,2729.86042445913
-0.00487770999168478,2729.87042445913
-0.0183102077468662,2729.88042445913
-0.03138352098419,2729.89042445913
-0.0445137869469672,2729.90042445913
-0.0576128048570264,2729.91042445913
-0.070703501817031,2729.92042445913
-0.0845197821500073,2729.93042445913
-0.0985855521278225,2729.94042445913
-0.113897177964579,2729.95042445913
-0.128917660267086,2729.96042445913
-0.144068022708205,2729.97042445913
-0.158593552338402,2729.98042445913
-0.17278420026735,2729.99042445913
-0.187306419872141,2730.00042445913
-0.202250952713891,2730.01042445913
-0.216946841757687,2730.02042445913
-0.231811410164024,2730.03042445913
-0.245776755902868,2730.04042445913
-0.259411034102141,2730.05042445913
-0.27247840521282,2730.06042445913
-0.28532677544447,2730.07042445913
-0.297699029620425,2730.08042445913
-0.3104232673362,2730.09042445913
-0.323436158391885,2730.10042445913
-0.336614148309497,2730.11042445913
-0.34915347693042,2730.12042445913
-0.361353088080155,2730.13042445913
-0.372868550617393,2730.14042445913
-0.383970564838915,2730.15042445913
-0.394915935030583,2730.16042445913
-0.405683162963621,2730.17042445913
-0.415726229773656,2730.18042445913
-0.425341797107,2730.19042445913
-0.43517151066836,2730.20042445913
-0.444577622351911,2730.21042445913
-0.453595892000307,2730.22042445913
-0.462733556247894,2730.23042445913
-0.471526660630077,2730.24042445913
-0.480409202932362,2730.25042445913
-0.489236730726684,2730.26042445913
-0.499002512731279,2730.27042445913
-0.508950948202296,2730.28042445913
-0.518374435348287,2730.29042445913
-0.526489038789654,2730.30042445913
-0.531270529095425,2730.31042445913
-0.529366411219238,2730.32042445913
-0.517611491546542,2730.33042445913
-0.493187513115232,2730.34042445913
-0.454963467618627,2730.35042445913
-0.403959062504218,2730.36042445913
-0.343045761648139,2730.37042445913
-0.276505874827728,2730.38042445913
-0.208424876217514,2730.39042445913
-0.142572920916162,2730.40042445913
-0.0810736405030187,2730.41042445913
-0.025206259484238,2730.42042445913
0.0240594339372263,2730.43042445913
0.065323193324297,2730.44042445913
0.0977211144151302,2730.45042445913
0.120679760528956,2730.46042445913
0.134405250281904,2730.47042445913
0.139187145228134,2730.48042445913
0.135883694142584,2730.49042445913
0.126412883259214,2730.50042445913
0.112144047026298,2730.51042445913
0.0942505039125294,2730.52042445913
0.0746825225340347,2730.53042445913
0.0549812037377579,2730.54042445913
0.0357582799764394,2730.55042445913
0.0176395980768353,2730.56042445913
0.000980328743552312,2730.57042445913
-0.0140457715425523,2730.58042445913
-0.0277798367475581,2730.59042445913
-0.0403042269377365,2730.60042445913
-0.0519483168183068,2730.61042445913
-0.0624333937257254,2730.62042445913
-0.0720974424124457,2730.63042445913
-0.0802672647584289,2730.64042445913
-0.0861504561210504,2730.65042445913
-0.0894301688308693,2730.66042445913
-0.0895694786622611,2730.67042445913
-0.086714431087845,2730.68042445913
-0.0807865141674173,2730.69042445913
-0.0722090686936804,2730.70042445913
-0.0621410354602265,2730.71042445913
-0.0510841665432771,2730.72042445913
-0.0402644351669082,2730.73042445913
-0.0307901679844891,2730.74042445913
-0.0234467315610073,2730.75042445913
-0.0186129035103962,2730.76042445913
-0.0165650286784937,2730.77042445913
-0.0169071226843279,2730.78042445913
-0.0200196186281097,2730.79042445913
-0.0252660734498898,2730.80042445913
-0.0326243709138994,2730.81042445913
-0.0421530251389881,2730.82042445913
-0.0530742041416853,2730.83042445913
-0.06496291254625,2730.84042445913
-0.0777788025206599,2730.85042445913
-0.0908255998355359,2730.86042445913
-0.10447612927098,2730.87042445913
-0.11851112508117,2730.88042445913
-0.132358732828856,2730.89042445913
-0.145704030387638,2730.90042445913
-0.158921641209389,2730.91042445913
-0.171551152995716,2730.92042445913
-0.183671842663902,2730.93042445913
-0.195658164668785,2730.94042445913
-0.207307010716016,2730.95042445913
-0.219180055820289,2730.96042445913
-0.230993646853274,2730.97042445913
-0.242484503301724,2730.98042445913
-0.25348193644801,2730.99042445913
-0.263683063650227,2731.00042445913
-0.273394653331927,2731.01042445913
-0.282763331457872,2731.02042445913
-0.291677362975171,2731.03042445913
-0.300904574631279,2731.04042445913
-0.310333246526436,2731.05042445913
-0.319901992712288,2731.06042445913
-0.329846770651929,2731.07042445913
-0.340295491985915,2731.08042445913
-0.351368156763171,2731.09042445913
-0.363424879909241,2731.10042445913
-0.375748585643796,2731.11042445913
-0.387770828287816,2731.12042445913
-0.39902114280473,2731.13042445913
-0.407681619033881,2731.14042445913
-0.414677830412555,2731.15042445913
-0.420571522154614,2731.16042445913
-0.426528845236277,2731.17042445913
-0.433060728161742,2731.18042445913
-0.440752607460181,2731.19042445913
-0.449545928797899,2731.20042445913
-0.459435007520826,2731.21042445913
-0.470693481835204,2731.22042445913
-0.483454894992657,2731.23042445913
-0.496666650310062,2731.24042445913
-0.510593509300701,2731.25042445913
-0.52448964828148,2731.26042445913
-0.538136054545755,2731.27042445913
-0.5511061385708,2731.28042445913
-0.561909287308031,2731.29042445913
-0.568430363937354,2731.30042445913
-0.568189657382011,2731.31042445913
-0.557525499182086,2731.32042445913
-0.53378598001312,2731.33042445913
-0.496036016403456,2731.34042445913
-0.444806080760616,2731.35042445913
-0.383041807932116,2731.36042445913
-0.315773078958085,2731.37042445913
-0.247517807096932,2731.38042445913
-0.183717493224241,2731.39042445913
-0.127492509504599,2731.40042445913
-0.079541075348768,2731.41042445913
-0.0400752464363544,2731.42042445913
-0.00847462092196781,2731.43042445913
0.014751204638254,2731.44042445913
0.0293596048340415,2731.45042445913
0.0363295450990638,2731.46042445913
0.0364562530084001,2731.47042445913
0.0306712393223948,2731.48042445913
0.020277637311916,2731.49042445913
0.00739527162176549,2731.50042445913
-0.008019092232541,2731.51042445913
-0.024306580712887,2731.52042445913
-0.0400250135647828,2731.53042445913
-0.0543213455175857,2731.54042445913
-0.0660388740142958,2731.55042445913
-0.0753732772371314,2731.56042445913
-0.0828699628569842,2731.57042445913
-0.0884592541522106,2731.58042445913
-0.0924856926798084,2731.59042445913
-0.0946986919131519,2731.60042445913
-0.0949823209729647,2731.61042445913
-0.093042854016861,2731.62042445913
-0.0886705788614757,2731.63042445913
-0.0808279702636954,2731.64042445913
-0.070003754947535,2731.65042445913
-0.055889235359409,2731.66042445913
-0.0385740588246202,2731.67042445913
-0.0181947629490534,2731.68042445913
0.0056552638337471,2731.69042445913
0.0327875615635362,2731.70042445913
0.0616275132315757,2731.71042445913
0.0922911372483629,2731.72042445913
0.123411991326037,2731.73042445913
0.152991662793037,2731.74042445913
0.18156060826257,2731.75042445913
0.207416349942698,2731.76042445913
0.231078477761829,2731.77042445913
0.252102458453656,2731.78042445913
0.270226117399667,2731.79042445913
0.285490962995101,2731.80042445913
0.297063405573647,2731.81042445913
0.304574388240004,2731.82042445913
0.308321168112983,2731.83042445913
0.30942226489225,2731.84042445913
0.309593458157218,2731.85042445913
0.309926795775836,2731.86042445913
0.309672630430412,2731.87042445913
0.309376538739845,2731.88042445913
0.308323798429122,2731.89042445913
0.305594603732877,2731.90042445913
0.300498971968505,2731.91042445913
0.293332854458254,2731.92042445913
0.284518903219689,2731.93042445913
0.274604900430606,2731.94042445913
0.264290699590527,2731.95042445913
0.254282951778839,2731.96042445913
0.245400495501559,2731.97042445913
0.236678316454561,2731.98042445913
0.228535111983642,2731.99042445913
0.220783646979924,2732.00042445913
0.212856688603947,2732.01042445913
0.203966401615157,2732.02042445913
0.193557297681616,2732.03042445913
0.181627995113309,2732.04042445913
0.167278905643136,2732.05042445913
0.151387830348047,2732.06042445913
0.134243112523784,2732.07042445913
0.11580237030534,2732.08042445913
0.0972435777811476,2732.09042445913
0.0779389737830417,2732.10042445913
0.0589057221945635,2732.11042445913
0.0396806049959089,2732.12042445913
0.0214105607495148,2732.13042445913
0.00326565695632353,2732.14042445913
-0.0145702552785137,2732.15042445913
-0.0321700791092545,2732.16042445913
-0.0496680175605217,2732.17042445913
-0.0665212106596552,2732.18042445913
-0.0830567663119033,2732.19042445913
-0.0983124688294938,2732.20042445913
-0.111776288230705,2732.21042445913
-0.124186096922507,2732.22042445913
-0.13541305946194,2732.23042445913
-0.14550968125953,2732.24042445913
-0.154306037245766,2732.25042445913
-0.160145255620851,2732.26042445913
-0.160592680678034,2732.27042445913
-0.15254853509276,2732.28042445913
-0.132343753745412,2732.29042445913
-0.097895182199101,2732.30042445913
-0.0484526525552526,2732.31042445913
0.0147963521030186,2732.32042445913
0.087883246598525,2732.33042445913
0.168833556164741,2732.34042445913
0.253384977438022,2732.35042445913
0.338654697165488,2732.36042445913
0.421899490913277,2732.37042445913
0.502005393459896,2732.38042445913
0.57590526354761,2732.39042445913
0.642086042995157,2732.40042445913
0.699361764654915,2732.41042445913
0.745799126099073,2732.42042445913
0.782242268488898,2732.43042445913
0.808243041719737,2732.44042445913
0.824890532070683,2732.45042445913
0.833148303736717,2732.46042445913
0.834261677489414,2732.47042445913
0.829926202369927,2732.48042445913
0.821887463785576,2732.49042445913
0.811833354184707,2732.50042445913
0.80147323382018,2732.51042445913
0.79150802443055,2732.52042445913
0.781339171971061,2732.53042445913
0.769915599073391,2732.54042445913
0.757201004120648,2732.55042445913
0.741517831563922,2732.56042445913
0.724218067795189,2732.57042445913
0.706783577024301,2732.58042445913
0.690245532600789,2732.59042445913
0.675354094655728,2732.60042445913
0.663135439541975,2732.61042445913
0.653623572505932,2732.62042445913
0.646413217618713,2732.63042445913
0.642175295109155,2732.64042445913
0.639969919006345,2732.65042445913
0.639946399654958,2732.66042445913
0.641878024915643,2732.67042445913
0.644957596722704,2732.68042445913
0.648706505615694,2732.69042445913
0.651907199373177,2732.70042445913
0.654600655548707,2732.71042445913
0.655701103795259,2732.72042445913
0.654523909967943,2732.73042445913
0.650497559188761,2732.74042445913
0.643511432338572,2732.75042445913
0.633040531966182,2732.76042445913
0.620449068513715,2732.77042445913
0.605692285087885,2732.78042445913
0.589050633333884,2732.79042445913
0.570409864000906,2732.80042445913
0.551079386072962,2732.81042445913
0.530609615670901,2732.82042445913
0.509356318016084,2732.83042445913
0.487722832092885,2732.84042445913
0.465882927238801,2732.85042445913
0.444524907606873,2732.86042445913
0.424166096403068,2732.87042445913
0.405122840632958,2732.88042445913
0.387208646758874,2732.89042445913
0.369618113503528,2732.90042445913
0.351935325329658,2732.91042445913
0.334730731849312,2732.92042445913
0.317350274617768,2732.93042445913
0.29971977515969,2732.94042445913
0.282220866608323,2732.95042445913
0.264499198852332,2732.96042445913
0.246971622164486,2732.97042445913
0.228868170188669,2732.98042445913
0.210845874511095,2732.99042445913
0.19280169973018,2733.00042445913
0.175230603475306,2733.01042445913
0.158384777008827,2733.02042445913
0.142812539613767,2733.03042445913
0.127433801321815,2733.04042445913
0.112649271757355,2733.05042445913
0.0979981293480592,2733.06042445913
0.0830005440520527,2733.07042445913
0.0682615449669381,2733.08042445913
0.0536450659471569,2733.09042445913
0.0391161723300867,2733.10042445913
0.0246160421024973,2733.11042445913
0.010045638176112,2733.12042445913
-0.00422541907170555,2733.13042445913
-0.0187418305070339,2733.14042445913
-0.0332889189379063,2733.15042445913
-0.0478381133099734,2733.16042445913
-0.0614527939945848,2733.17042445913
-0.075054023794014,2733.18042445913
-0.0886577916801358,2733.19042445913
-0.102342862345831,2733.20042445913
-0.11606357703255,2733.21042445913
-0.129737225165354,2733.22042445913
-0.143040211800366,2733.23042445913
-0.155873120562887,2733.24042445913
-0.168294945605986,2733.25042445913
-0.180733753621028,2733.26042445913
-0.193705279128632,2733.27042445913
-0.207025686416228,2733.28042445913
-0.21967651219696,2733.29042445913
-0.229531633227835,2733.30042445913
-0.234418574639501,2733.31042445913
-0.230883426699967,2733.32042445913
-0.215713374771948,2733.33042445913
-0.187245516692091,2733.34042445913
-0.145445760144252,2733.35042445913
-0.0925848632089561,2733.36042445913
-0.0311201797690953,2733.37042445913
0.0348149338351512,2733.38042445913
0.101666793180444,2733.39042445913
0.167584347781377,2733.40042445913
0.23029318919599,2733.41042445913
0.287568943523569,2733.42042445913
0.338618879217163,2733.43042445913
0.381260625584166,2733.44042445913
0.415058915614139,2733.45042445913
0.439678182985069,2733.46042445913
0.454924258710455,2733.47042445913
0.461289358661516,2733.48042445913
0.460296428130273,2733.49042445913
0.453609924692741,2733.50042445913
0.442924886817458,2733.51042445913
0.430609773276837,2733.52042445913
0.4175497059663,2733.53042445913
0.405023946692408,2733.54042445913
0.393548599847644,2733.55042445913
0.38257651929409,2733.56042445913
0.373129668178591,2733.57042445913
0.364662569665153,2733.58042445913
0.35671041308721,2733.59042445913
0.348540426261362,2733.60042445913
0.340267224775704,2733.61042445913
0.33235178487138,2733.62042445913
0.326282677085553,2733.63042445913
0.321504773740898,2733.64042445913
0.3191860642123,2733.65042445913
0.319233168617572,2733.66042445913
0.321408810580061,2733.67042445913
0.326175584834482,2733.68042445913
0.332817828318822,2733.69042445913
0.340740318035099,2733.70042445913
0.349211529102191,2733.71042445913
0.357906038390316,2733.72042445913
0.36617348594941,2733.73042445913
0.374004550516787,2733.74042445913
0.380538505398006,2733.75042445913
0.385093547861598,2733.76042445913
0.387064091982896,2733.77042445913
0.386025218265252,2733.78042445913
0.381630401372154,2733.79042445913
0.375177632170137,2733.80042445913
0.366723473969267,2733.81042445913
0.356876290390993,2733.82042445913
0.346002772844278,2733.83042445913
0.334250144255579,2733.84042445913
0.321249981549344,2733.85042445913
0.307357266095317,2733.86042445913
0.292601126813076,2733.87042445913
0.277507410553487,2733.88042445913
0.26207632866268,2733.89042445913
0.246725307754808,2733.90042445913
0.231900345726861,2733.91042445913
0.218307009506778,2733.92042445913
0.205187032792034,2733.93042445913
0.192856851163044,2733.94042445913
0.180855859632414,2733.95042445913
0.169310994760537,2733.96042445913
0.15884582853721,2733.97042445913
0.148572081031876,2733.98042445913
0.138807629070237,2733.99042445913
0.129565878983139,2734.00042445913
0.120199266811067,2734.01042445913
0.110777864701543,2734.02042445913
0.101329920221195,2734.03042445913
0.0915437730223638,2734.04042445913
0.0820448992300531,2734.05042445913
0.0726302073759794,2734.06042445913
0.0633217345102093,2734.07042445913
0.0536585049321623,2734.08042445913
0.0435496742856531,2734.09042445913
0.032770619430821,2734.10042445913
0.0220850754085244,2734.11042445913
0.0114958295631481,2734.12042445913
0.00141706018893534,2734.13042445913
-0.00867204575435029,2734.14042445913
-0.0183533129918094,2734.15042445913
-0.0277797648816874,2734.16042445913
-0.0368939436186999,2734.17042445913
-0.045694231304766,2734.18042445913
-0.0541309100388933,2734.19042445913
-0.0627090723724447,2734.20042445913
-0.0712511139513414,2734.21042445913
-0.0809439651876761,2734.22042445913
-0.091309972650011,2734.23042445913
-0.102084667152528,2734.24042445913
-0.113095536123807,2734.25042445913
-0.123774369832031,2734.26042445913
-0.13260463159775,2734.27042445913
-0.137685411715978,2734.28042445913
-0.13586990590814,2734.29042445913
-0.124471373422393,2734.30042445913
-0.101602119796368,2734.31042445913
-0.0664722358838206,2734.32042445913
-0.0204543364535022,2734.33042445913
0.0331092295213934,2734.34042445913
0.0910849365036003,2734.35042445913
0.151118839742811,2734.36042445913
0.210458667083555,2734.37042445913
0.267178514313938,2734.38042445913
0.319067341017598,2734.39042445913
0.364534256474078,2734.40042445913
0.401606381451249,2734.41042445913
0.429260833538688,2734.42042445913
0.447937220881655,2734.43042445913
0.457598337948593,2734.44042445913
0.46007361362203,2734.45042445913
0.456503072895461,2734.46042445913
0.448442018499656,2734.47042445913
0.437506802021611,2734.48042445913
0.425050800126895,2734.49042445913
0.411559871938338,2734.50042445913
0.398267467905058,2734.51042445913
0.385121847735767,2734.52042445913
0.37143016638454,2734.53042445913
0.358530281761969,2734.54042445913
0.345693611603052,2734.55042445913
0.33348322279663,2734.56042445913
0.322662283262456,2734.57042445913
0.313325263004872,2734.58042445913
0.306478932944873,2734.59042445913
0.302436313727152,2734.60042445913
0.301303564747589,2734.61042445913
0.30330838897686,2734.62042445913
0.307544391392886,2734.63042445913
0.314408447196922,2734.64042445913
0.323228110309899,2734.65042445913
0.333239605529739,2734.66042445913
0.343339814077421,2734.67042445913
0.353080124120375,2734.68042445913
0.361015991673139,2734.69042445913
0.367115149888797,2734.70042445913
0.371458625733418,2734.71042445913
0.373356826750127,2734.72042445913
0.371863181087151,2734.73042445913
0.367421848209473,2734.74042445913
0.359330448020379,2734.75042445913
0.348465442658891,2734.76042445913
0.334827546983112,2734.77042445913
0.319566215297152,2734.78042445913
0.303489179058261,2734.79042445913
0.287070098814208,2734.80042445913
0.270487427916312,2734.81042445913
0.25316847472119,2734.82042445913
0.235956001621466,2734.83042445913
0.219326864611392,2734.84042445913
0.20329619179058,2734.85042445913
0.188552110074545,2734.86042445913
0.175032349710436,2734.87042445913
0.162279137722471,2734.88042445913
0.15040454846577,2734.89042445913
0.138978680595693,2734.90042445913
0.127691748962666,2734.91042445913
0.116152858093087,2734.92042445913
0.104877176930758,2734.93042445913
0.093203387552793,2734.94042445913
0.081774988327086,2734.95042445913
0.070879660597487,2734.96042445913
0.0594409349984497,2734.97042445913
0.0486852756747638,2734.98042445913
0.0379885671036108,2734.99042445913
0.0270367608534437,2735.00042445913
0.0159895322517724,2735.01042445913
0.00413818728006778,2735.02042445913
-0.00766971309704058,2735.03042445913
-0.0195607979850524,2735.04042445913
-0.031105341346362,2735.05042445913
-0.0419433823225787,2735.06042445913
-0.052061618848612,2735.07042445913
-0.0620371926371165,2735.08042445913
-0.0711877801715239,2735.09042445913
-0.0805461451615751,2735.10042445913
-0.0898316671404863,2735.11042445913
-0.098734439592446,2735.12042445913
-0.108428708931608,2735.13042445913
-0.118091253978401,2735.14042445913
-0.128351966282964,2735.15042445913
-0.138650290070752,2735.16042445913
-0.148990621370738,2735.17042445913
-0.158138469740625,2735.18042445913
-0.165504429533786,2735.19042445913
-0.169505760651925,2735.20042445913
-0.166771508867198,2735.21042445913
-0.15462427365789,2735.22042445913
-0.130249157388456,2735.23042445913
-0.092666020612361,2735.24042445913
-0.0425997371483666,2735.25042445913
0.0173127268439759,2735.26042445913
0.0838796114610214,2735.27042445913
0.153550838051607,2735.28042445913
0.22432437846404,2735.29042445913
0.292785199238509,2735.30042445913
0.356370619024679,2735.31042445913
0.414056393571631,2735.32042445913
0.462932262812536,2735.33042445913
0.501836675655721,2735.34042445913
0.530845207870976,2735.35042445913
0.549705391365319,2735.36042445913
0.560473281088009,2735.37042445913
0.564047888282694,2735.38042445913
0.561919526098454,2735.39042445913
0.55528623250303,2735.40042445913
0.545885001514845,2735.41042445913
0.534317289400292,2735.42042445913
0.522667924959311,2735.43042445913
0.512240385659419,2735.44042445913
0.50389124747036,2735.45042445913
0.498855100403486,2735.46042445913
0.49682420047084,2735.47042445913
0.496308062304664,2735.48042445913
0.49602820344272,2735.49042445913
0.494268072392374,2735.50042445913
0.491140285424996,2735.51042445913
0.48700154711912,2735.52042445913
0.482215597966233,2735.53042445913
0.477712104769755,2735.54042445913
0.473860091704294,2735.55042445913
0.471220714730702,2735.56042445913
0.470000804596921,2735.57042445913
0.471067667282472,2735.58042445913
0.473910606757072,2735.59042445913
0.477950640280568,2735.60042445913
0.482792800584191,2735.61042445913
0.487932137571485,2735.62042445913
0.492442402198024,2735.63042445913
0.496206818645894,2735.64042445913
0.498847862468143,2735.65042445913
0.500434936567514,2735.66042445913
0.500370399573528,2735.67042445913
0.4974220192825,2735.68042445913
0.491635245774024,2735.69042445913
0.482381008700395,2735.70042445913
0.471076566915382,2735.71042445913
0.45819409085768,2735.72042445913
0.443539046868401,2735.73042445913
0.428314215490981,2735.74042445913
0.41221906171608,2735.75042445913
0.395749792989421,2735.76042445913
0.379439358685224,2735.77042445913
0.363370948180226,2735.78042445913
0.347084641080675,2735.79042445913
0.331437315441337,2735.80042445913
0.31540679338816,2735.81042445913
0.29997060433869,2735.82042445913
0.285089141344631,2735.83042445913
0.270709087114285,2735.84042445913
0.257013254513459,2735.85042445913
0.242925603441177,2735.86042445913
0.229433144475521,2735.87042445913
0.215804646204882,2735.88042445913
0.203586800684083,2735.89042445913
0.192147577411743,2735.90042445913
0.18210174500237,2735.91042445913
0.172379375140289,2735.92042445913
0.162808818486397,2735.93042445913
0.152335675544898,2735.94042445913
0.141234939555284,2735.95042445913
0.130058727233932,2735.96042445913
0.118469726227294,2735.97042445913
0.106498397606252,2735.98042445913
0.0939720799534162,2735.99042445913
0.08153952364114,2736.00042445913
0.0691006461277041,2736.01042445913
0.0570705283817749,2736.02042445913
0.0454301651583992,2736.03042445913
0.0342423226311145,2736.04042445913
0.0232318786359276,2736.05042445913
0.0124106909342122,2736.06042445913
0.00223196409106781,2736.07042445913
-0.00779698422133842,2736.08042445913
-0.0177129341664922,2736.09042445913
-0.0273273357259328,2736.10042445913
-0.0367581619570271,2736.11042445913
-0.0457404439920847,2736.12042445913
-0.0550076650503041,2736.13042445913
-0.0645821519253188,2736.14042445913
-0.0749201454337193,2736.15042445913
-0.0859404422303902,2736.16042445913
-0.0963042144534283,2736.17042445913
-0.105785055649658,2736.18042445913
-0.111831613865263,2736.19042445913
-0.111474993675229,2736.20042445913
-0.102415052753742,2736.21042445913
-0.0806867273637897,2736.22042445913
-0.0461699949310319,2736.23042445913
-6.17043700258736e-05,2736.24042445913
0.0559940301134803,2736.25042445913
0.118718057691147,2736.26042445913
0.185989414165594,2736.27042445913
0.255338227776672,2736.28042445913
0.323974505580669,2736.29042445913
0.389455051533199,2736.30042445913
0.448856475364352,2736.31042445913
0.500252921177899,2736.32042445913
0.542205525130853,2736.33042445913
0.574266270271557,2736.34042445913
0.596159513128164,2736.35042445913
0.609524677412748,2736.36042445913
0.615146878965957,2736.37042445913
0.614594801677918,2736.38042445913
0.609361138820532,2736.39042445913
0.601267049331709,2736.40042445913
0.591159289303755,2736.41042445913
0.581055327759965,2736.42042445913
0.572560266689197,2736.43042445913
0.566004803661171,2736.44042445913
0.562102265749694,2736.45042445913
0.560416627422713,2736.46042445913
0.56007262991467,2736.47042445913
0.559657063562076,2736.48042445913
0.55907861829289,2736.49042445913
0.556522557839087,2736.50042445913
0.552944572288051,2736.51042445913
0.54866172653715,2736.52042445913
0.542953115785952,2736.53042445913
0.537713190664302,2736.54042445913
0.533518462082796,2736.55042445913
0.531272931642563,2736.56042445913
0.531139630217594,2736.57042445913
0.532760570455749,2736.58042445913
0.535799954941334,2736.59042445913
0.539451618291919,2736.60042445913
0.543063624120026,2736.61042445913
0.546418523519998,2736.62042445913
0.548636033053073,2736.63042445913
0.549405488767534,2736.64042445913
0.548391964069497,2736.65042445913
0.544926239518265,2736.66042445913
0.538754670790872,2736.67042445913
0.529851655639757,2736.68042445913
0.518350505797637,2736.69042445913
0.504384980517065,2736.70042445913
0.489109945223445,2736.71042445913
0.472867130309616,2736.72042445913
0.455898089335652,2736.73042445913
0.43840653729543,2736.74042445913
0.419997265873424,2736.75042445913
0.401399382519591,2736.76042445913
0.382348833527167,2736.77042445913
0.363161471170888,2736.78042445913
0.344836456362688,2736.79042445913
0.326783172957937,2736.80042445913
0.309342128104143,2736.81042445913
0.293009137968226,2736.82042445913
0.277771005473989,2736.83042445913
0.263821966256377,2736.84042445913
0.250226195062919,2736.85042445913
0.236677694117333,2736.86042445913
0.222748210234508,2736.87042445913
0.208228339731221,2736.88042445913
0.194348093370803,2736.89042445913
0.180554466265677,2736.90042445913
0.167344099832624,2736.91042445913
0.15441952085515,2736.92042445913
0.142251042212248,2736.93042445913
0.129738992945649,2736.94042445913
0.116644201908337,2736.95042445913
0.104065913867566,2736.96042445913
0.0918431527363137,2736.97042445913
0.0799051541624702,2736.98042445913
0.0681088608752585,2736.99042445913
0.0562780810659249,2737.00042445913
0.0445971616468544,2737.01042445913
0.0328725997021039,2737.02042445913
0.0215174748920827,2737.03042445913
0.0100088201656024,2737.04042445913
-0.00100203821726094,2737.05042445913
-0.0117418452237648,2737.06042445913
-0.0226694042726465,2737.07042445913
-0.0333621312965354,2737.08042445913
-0.0441160151076437,2737.09042445913
-0.0540058169459318,2737.10042445913
-0.0635378645932915,2737.11042445913
-0.0721697892377551,2737.12042445913
-0.0805505056816945,2737.13042445913
-0.0881698318626548,2737.14042445913
-0.0959247500647777,2737.15042445913
-0.103870040485335,2737.16042445913
-0.112144432223294,2737.17042445913
-0.121268551362353,2737.18042445913
-0.130534391598023,2737.19042445913
-0.139975738203099,2737.20042445913
-0.149464556559925,2737.21042445913
-0.159545943394568,2737.22042445913
-0.1700741118308,2737.23042445913
-0.179973175780343,2737.24042445913
-0.187981126161698,2737.25042445913
-0.191314161181509,2737.26042445913
-0.18613685957101,2737.27042445913
-0.169421305410407,2737.28042445913
-0.139856151626715,2737.29042445913
-0.0967629282127749,2737.30042445913
-0.0417476924862616,2737.31042445913
0.02206225333393,2737.32042445913
0.091340943247058,2737.33042445913
0.163692378994264,2737.34042445913
0.23647271275532,2737.35042445913
0.306012249649021,2737.36042445913
0.369846555322883,2737.37042445913
0.425744534034613,2737.38042445913
0.472187662349657,2737.39042445913
0.507518999119414,2737.40042445913
0.531954728687832,2737.41042445913
0.546180731198807,2737.42042445913
0.551317277572908,2737.43042445913
0.54870816304355,2737.44042445913
0.540418658109687,2737.45042445913
0.528122229270639,2737.46042445913
0.513229489355723,2737.47042445913
0.497935048723073,2737.48042445913
0.483370589421273,2737.49042445913
0.471137711958409,2737.50042445913
0.462303670524819,2737.51042445913
0.455940877797756,2737.52042445913
0.451234750178535,2737.53042445913
0.446397061517551,2737.54042445913
0.440419297728371,2737.55042445913
0.433233111984214,2737.56042445913
0.425489824482208,2737.57042445913
0.417916384683775,2737.58042445913
0.411808795847954,2737.59042445913
0.407475434625696,2737.60042445913
0.405211038148915,2737.61042445913
0.405410959179786,2737.62042445913
0.407210270121776,2737.63042445913
0.410481163363609,2737.64042445913
0.414560287683507,2737.65042445913
0.41876145339691,2737.66042445913
0.423356823897997,2737.67042445913
0.427894510270206,2737.68042445913
0.431923376394732,2737.69042445913
0.435683532655647,2737.70042445913
0.437197897441003,2737.71042445913
0.436518264302421,2737.72042445913
0.433132557542209,2737.73042445913
0.426763269338437,2737.74042445913
0.418204228269658,2737.75042445913
0.407607820632952,2737.76042445913
0.394947329846235,2737.77042445913
0.380664605749364,2737.78042445913
0.36537172707701,2737.79042445913
0.348732032185974,2737.80042445913
0.331535472398515,2737.81042445913
0.314188471635137,2737.82042445913
0.2969756308088,2737.83042445913
0.279644856499862,2737.84042445913
0.262580018608769,2737.85042445913
0.246182044511002,2737.86042445913
0.230199705839902,2737.87042445913
0.215601964481902,2737.88042445913
0.201908364762679,2737.89042445913
0.188734284976218,2737.90042445913
0.17615916092547,2737.91042445913
0.163913730728443,2737.92042445913
0.151550531390322,2737.93042445913
0.139111864380028,2737.94042445913
0.126704745404531,2737.95042445913
0.114503491012889,2737.96042445913
0.102611711843823,2737.97042445913
0.0908357446879341,2737.98042445913
0.0795643778198385,2737.99042445913
0.0688804683432929,2738.00042445913
0.0575856975412421,2738.01042445913
0.0460803888050668,2738.02042445913
0.0341956823580451,2738.03042445913
0.0221171372254522,2738.04042445913
0.00936629388495129,2738.05042445913
-0.00355981396980824,2738.06042445913
-0.0170203391814708,2738.07042445913
-0.0304269801237218,2738.08042445913
-0.0436128402065965,2738.09042445913
-0.0562815447187911,2738.10042445913
-0.0678280124843129,2738.11042445913
-0.0796955054196235,2738.12042445913
-0.0909939505739267,2738.13042445913
-0.1015328084582,2738.14042445913
-0.111670579602704,2738.15042445913
-0.120803827635515,2738.16042445913
-0.129278155609203,2738.17042445913
-0.13827937331323,2738.18042445913
-0.147560063999624,2738.19042445913
-0.157607473781556,2738.20042445913
-0.167804525897151,2738.21042445913
-0.177877703621747,2738.22042445913
-0.188183483338072,2738.23042445913
-0.197922376687266,2738.24042445913
-0.20722683755999,2738.25042445913
-0.215141662393848,2738.26042445913
-0.218866216517911,2738.27042445913
-0.216368847880044,2738.28042445913
-0.20447473816727,2738.29042445913
-0.180203790260396,2738.30042445913
-0.142436689841339,2738.31042445913
-0.0915625630410148,2738.32042445913
-0.0308464358725784,2738.33042445913
0.0361695167744678,2738.34042445913
0.105565545686785,2738.35042445913
0.175204326567537,2738.36042445913
0.24228108490371,2738.37042445913
0.304857602694292,2738.38042445913
0.361381248020225,2738.39042445913
0.409322247211506,2738.40042445913
0.448444834293217,2738.41042445913
0.476877687944062,2738.42042445913
0.494754836596779,2738.43042445913
0.502868327562362,2738.44042445913
0.502616138625283,2738.45042445913
0.49490015717311,2738.46042445913
0.482154051780725,2738.47042445913
0.466490354230989,2738.48042445913
0.449393805527414,2738.49042445913
0.432143914314075,2738.50042445913
0.415098021936441,2738.51042445913
0.399485540193596,2738.52042445913
0.385710191370759,2738.53042445913
0.373823364344791,2738.54042445913
0.363032749909692,2738.55042445913
0.352143845660258,2738.56042445913
0.340540858511282,2738.57042445913
0.328311664833829,2738.58042445913
0.316647846055529,2738.59042445913
0.305877271915387,2738.60042445913
0.297726127741011,2738.61042445913
0.292513139134081,2738.62042445913
0.290235039280142,2738.63042445913
0.290141308496769,2738.64042445913
0.292097630096054,2738.65042445913
0.295320852721987,2738.66042445913
0.299283897329372,2738.67042445913
0.303227767715404,2738.68042445913
0.307303744418649,2738.69042445913
0.310415358999236,2738.70042445913
0.311995622541509,2738.71042445913
0.312557892070235,2738.72042445913
0.310628001470211,2738.73042445913
0.306408178807582,2738.74042445913
0.299631619896267,2738.75042445913
0.290232390145496,2738.76042445913
0.279147015393662,2738.77042445913
0.266050356685668,2738.78042445913
0.251413908549805,2738.79042445913
0.235487622946358,2738.80042445913
0.21870514935845,2738.81042445913
0.201271194512845,2738.82042445913
0.183465485630157,2738.83042445913
0.16564246538959,2738.84042445913
0.14738301749202,2738.85042445913
0.129698160440366,2738.86042445913
0.112319630848902,2738.87042445913
0.0959267883950227,2738.88042445913
0.080479909345772,2738.89042445913
0.0656050544124327,2738.90042445913
0.0513563713459636,2738.91042445913
0.0365375064260976,2738.92042445913
0.0213750724164192,2738.93042445913
0.00658021277872849,2738.94042445913
-0.00832696358981497,2738.95042445913
-0.0220450330892705,2738.96042445913
-0.035288286057695,2738.97042445913
-0.0476218424084653,2738.98042445913
-0.0594839232432389,2738.99042445913
-0.0713542959614945,2739.00042445913
-0.0831620140838118,2739.01042445913
-0.0947620219770705,2739.02042445913
-0.106271592321258,2739.03042445913
-0.117782469778744,2739.04042445913
-0.129565110004399,2739.05042445913
-0.141543524095579,2739.06042445913
-0.15330279106765,2739.07042445913
-0.165193964472091,2739.08042445913
-0.17735822157134,2739.09042445913
-0.189053502926378,2739.10042445913
-0.200507002009765,2739.11042445913
-0.212390367438683,2739.12042445913
-0.223762114585827,2739.13042445913
-0.23523178026616,2739.14042445913
-0.246960419514379,2739.15042445913
-0.258689701403875,2739.16042445913
-0.270033052009651,2739.17042445913
-0.281236742175495,2739.18042445913
-0.292726192084152,2739.19042445913
-0.304593218941412,2739.20042445913
-0.316077709454578,2739.21042445913
-0.326446073927688,2739.22042445913
-0.334857252626992,2739.23042445913
-0.339087052642753,2739.24042445913
-0.336238430091676,2739.25042445913
-0.323611930932571,2739.26042445913
-0.298862040573164,2739.27042445913
-0.26151598865801,2739.28042445913
-0.213487348838674,2739.29042445913
-0.15720775244245,2739.30042445913
-0.0969010199691884,2739.31042445913
-0.0351096834583858,2739.32042445913
0.0242259528526599,2739.33042445913
0.0801084332533744,2739.34042445913
0.13068975338408,2739.35042445913
0.175266741027465,2739.36042445913
0.212007423977221,2739.37042445913
0.239657096157523,2739.38042445913
0.257741194741809,2739.39042445913
0.266122357857259,2739.40042445913
0.265554439674897,2739.41042445913
0.257944097123093,2739.42042445913
0.245762037094618,2739.43042445913
0.229083510563297,2739.44042445913
0.2107804473119,2739.45042445913
0.190538589061457,2739.46042445913
0.16943943075979,2739.47042445913
0.147956575250388,2739.48042445913
0.126408189538854,2739.49042445913
0.105324968457995,2739.50042445913
0.085720733647063,2739.51042445913
0.0672809261146043,2739.52042445913
0.0509518191214635,2739.53042445913
0.0364291201146716,2739.54042445913
0.0243322712335123,2739.55042445913
0.015356619871987,2739.56042445913
0.0102026903429002,2739.57042445913
0.00948925969252756,2739.58042445913
0.0132487756592475,2739.59042445913
0.0210314639090747,2739.60042445913
0.0320054372404523,2739.61042445913
0.0451777745233899,2739.62042445913
0.0591790989108105,2739.63042445913
0.0726580668857875,2739.64042445913
0.0847927277754251,2739.65042445913
0.0953350929376257,2739.66042445913
0.103659155669926,2739.67042445913
0.109304770382773,2739.68042445913
0.111878366583706,2739.69042445913
0.110943552317648,2739.70042445913
0.106854251739788,2739.71042445913
0.0995643670974674,2739.72042445913
0.089845649462765,2739.73042445913
0.078181101095228,2739.74042445913
0.0651697417086841,2739.75042445913
0.0507744729743612,2739.76042445913
0.0362164278252403,2739.77042445913
0.0215890537844566,2739.78042445913
0.00679624743926795,2739.79042445913
-0.0078870435590933,2739.80042445913
-0.0224267606944219,2739.81042445913
-0.03707910977426,2739.82042445913
-0.0518353803193076,2739.83042445913
-0.0658520798932173,2739.84042445913
-0.0794287466713747,2739.85042445913
-0.0921576821246526,2739.86042445913
-0.104405662372479,2739.87042445913
-0.116097753029367,2739.88042445913
-0.127845248320974,2739.89042445913
-0.139427155082427,2739.90042445913
-0.149809322559565,2739.91042445913
-0.160402416361875,2739.92042445913
-0.170037517501938,2739.93042445913
-0.180077110920321,2739.94042445913
