PPG,time
0.182833700912129,1305.48619528555
0.362656070007858,1305.49619528555
0.321360610187537,1305.50619528555
0.344853760712401,1305.51619528555
0.32771695715907,1305.52619528555
0.331063471735733,1305.53619528555
0.316750046320122,1305.54619528555
0.310532922525548,1305.55619528555
0.298914089240307,1305.56619528555
0.291770266350489,1305.57619528555
0.285377915983209,1305.58619528555
0.281669609204228,1305.59619528555
0.279708791650406,1305.60619528555
0.279658401684085,1305.61619528555
0.280069648025548,1305.62619528555
0.281277167878086,1305.63619528555
0.283095042228672,1305.64619528555
0.284212268829772,1305.65619528555
0.284840159847424,1305.66619528555
0.284476061676669,1305.67619528555
0.281988515465094,1305.68619528555
0.277974189745903,1305.69619528555
0.272289387280761,1305.70619528555
0.265850552452655,1305.71619528555
0.258021477995432,1305.72619528555
0.248973682917134,1305.73619528555
0.238703218157265,1305.74619528555
0.227165816605685,1305.75619528555
0.215139737161883,1305.76619528555
0.20274201048199,1305.77619528555
0.189824162114025,1305.78619528555
0.176736072050642,1305.79619528555
0.16347919321902,1305.80619528555
0.14991112167862,1305.81619528555
0.136683113060893,1305.82619528555
0.123177060440454,1305.83619528555
0.110311647100554,1305.84619528555
0.097277961631875,1305.85619528555
0.083729050200352,1305.86619528555
0.0709883901015965,1305.87619528555
0.0582492545058446,1305.88619528555
0.0459503198972651,1305.89619528555
0.0339510387774228,1305.90619528555
0.022168231216935,1305.91619528555
0.0106975986864597,1305.92619528555
0.000103462853856035,1305.93619528555
-0.0097680164948788,1305.94619528555
-0.0190302548446798,1305.95619528555
-0.0284321867229989,1305.96619528555
-0.0380689862809376,1305.97619528555
-0.0479755828431499,1305.98619528555
-0.05833063707875,1305.99619528555
-0.069602527536273,1306.00619528555
-0.0811720940446855,1306.01619528555
-0.0929077268221592,1306.02619528555
-0.103769037221879,1306.03619528555
-0.11285374642148,1306.04619528555
-0.116989593296002,1306.05619528555
-0.112593874712465,1306.06619528555
-0.0956887480668798,1306.07619528555
-0.0639619171613172,1306.08619528555
-0.0179306781491574,1306.09619528555
0.0403507130489986,1306.10619528555
0.105818742616657,1306.11619528555
0.173490718355027,1306.12619528555
0.238015029334068,1306.13619528555
0.293540331283946,1306.14619528555
0.337425664964887,1306.15619528555
0.368938040312979,1306.16619528555
0.387880416036075,1306.17619528555
0.395552981922525,1306.18619528555
0.394918733063894,1306.19619528555
0.388452297185211,1306.20619528555
0.379128167318374,1306.21619528555
0.368659329049619,1306.22619528555
0.35852359441601,1306.23619528555
0.349979050795619,1306.24619528555
0.343184790575322,1306.25619528555
0.338231962816237,1306.26619528555
0.33530367783679,1306.27619528555
0.334068696080424,1306.28619528555
0.333874486734307,1306.29619528555
0.332972532794954,1306.30619528555
0.330298019370981,1306.31619528555
0.325253590108687,1306.32619528555
0.317156539083968,1306.33619528555
0.307063947137002,1306.34619528555
0.295486500612962,1306.35619528555
0.284416454027743,1306.36619528555
0.274576107780134,1306.37619528555
0.267074009849147,1306.38619528555
0.262018281583387,1306.39619528555
0.25903678620426,1306.40619528555
0.257912182123151,1306.41619528555
0.259043880880587,1306.42619528555
0.261308500580315,1306.43619528555
0.263536357860582,1306.44619528555
0.2657375284644,1306.45619528555
0.266967818839472,1306.46619528555
0.265925079787681,1306.47619528555
0.263141357321258,1306.48619528555
0.258009008795013,1306.49619528555
0.251092592512923,1306.50619528555
0.242547488163474,1306.51619528555
0.232491400620561,1306.52619528555
0.221611476900607,1306.53619528555
0.210004283960555,1306.54619528555
0.197329453844656,1306.55619528555
0.184495626761554,1306.56619528555
0.171334084303958,1306.57619528555
0.158025148024651,1306.58619528555
0.144718473172074,1306.59619528555
0.130988066028456,1306.60619528555
0.117475294021921,1306.61619528555
0.103930576554204,1306.62619528555
0.0905043122167096,1306.63619528555
0.0779031928881176,1306.64619528555
0.0649342577038849,1306.65619528555
0.05255087845759,1306.66619528555
0.0403619307183742,1306.67619528555
0.0287606998361299,1306.68619528555
0.0168953836951402,1306.69619528555
0.00466587243848022,1306.70619528555
-0.00713753609128191,1306.71619528555
-0.0189609397665465,1306.72619528555
-0.0311237682204426,1306.73619528555
-0.0426614383801572,1306.74619528555
-0.0536404625531782,1306.75619528555
-0.0646150091608896,1306.76619528555
-0.0740665996463263,1306.77619528555
-0.0807799718705493,1306.78619528555
-0.0818384437269477,1306.79619528555
-0.0728695617252404,1306.80619528555
-0.0510533508276554,1306.81619528555
-0.014609699794085,1306.82619528555
0.0355612229276148,1306.83619528555
0.0965756397020062,1306.84619528555
0.163177046530538,1306.85619528555
0.229976963986861,1306.86619528555
0.290646657084508,1306.87619528555
0.342074710242248,1306.88619528555
0.381438497243684,1306.89619528555
0.408341843771367,1306.90619528555
0.423115711793513,1306.91619528555
0.428798651698731,1306.92619528555
0.42700491009167,1306.93619528555
0.421197445160742,1306.94619528555
0.412935743703129,1306.95619528555
0.403605246567587,1306.96619528555
0.39432708067459,1306.97619528555
0.38625793929286,1306.98619528555
0.379650838849968,1306.99619528555
0.375316880572496,1307.00619528555
0.372050682816332,1307.01619528555
0.369716697709653,1307.02619528555
0.367264220808281,1307.03619528555
0.363533582709047,1307.04619528555
0.358184845714735,1307.05619528555
0.350067765614922,1307.06619528555
0.339245472993915,1307.07619528555
0.326922598991103,1307.08619528555
0.313449094685849,1307.09619528555
0.301419240580561,1307.10619528555
0.291610591900884,1307.11619528555
0.284604472282778,1307.12619528555
0.279778432893064,1307.13619528555
0.277040585529742,1307.14619528555
0.275896062414825,1307.15619528555
0.276272280963246,1307.16619528555
0.277212734523783,1307.17619528555
0.278038280255996,1307.18619528555
0.278170374527922,1307.19619528555
0.276905403229731,1307.20619528555
0.274481004978883,1307.21619528555
0.270846928577606,1307.22619528555
0.26520987597615,1307.23619528555
0.258151453082285,1307.24619528555
0.249797040228396,1307.25619528555
0.239572335968825,1307.26619528555
0.22770785593688,1307.27619528555
0.21445722068148,1307.28619528555
0.201166883919756,1307.29619528555
0.187548577811003,1307.30619528555
0.173895002964035,1307.31619528555
0.16055338722444,1307.32619528555
0.1467238665059,1307.33619528555
0.133334521988442,1307.34619528555
0.119296714832096,1307.35619528555
0.105399241578278,1307.36619528555
0.0916824995875009,1307.37619528555
0.0782848936462277,1307.38619528555
0.0642468575401111,1307.39619528555
0.050120592360384,1307.40619528555
0.0357683410646224,1307.41619528555
0.0212852836923323,1307.42619528555
0.00716980625676175,1307.43619528555
-0.00687711847360206,1307.44619528555
-0.0206913941394208,1307.45619528555
-0.0340522935676086,1307.46619528555
-0.0465770786282302,1307.47619528555
-0.0576377177689345,1307.48619528555
-0.0659141021851896,1307.49619528555
-0.0688075089240066,1307.50619528555
-0.0627639966249057,1307.51619528555
-0.0438741833089566,1307.52619528555
-0.0101611220281201,1307.53619528555
0.0384204260809664,1307.54619528555
0.0990438765588588,1307.55619528555
0.166919277384871,1307.56619528555
0.236197642110788,1307.57619528555
0.300803793102926,1307.58619528555
0.355458867122877,1307.59619528555
0.397489356105338,1307.60619528555
0.425787846866456,1307.61619528555
0.441876367720527,1307.62619528555
0.448122576790165,1307.63619528555
0.447503272605366,1307.64619528555
0.44205776529513,1307.65619528555
0.433378934320616,1307.66619528555
0.423608157093279,1307.67619528555
0.413961007905998,1307.68619528555
0.404940543371539,1307.69619528555
0.397289638101466,1307.70619528555
0.391166240148924,1307.71619528555
0.386178332754237,1307.72619528555
0.382542987264792,1307.73619528555
0.379017379405595,1307.74619528555
0.374485599281941,1307.75619528555
0.368229485210575,1307.76619528555
0.359529050002659,1307.77619528555
0.347902711139863,1307.78619528555
0.333617565324571,1307.79619528555
0.317964474810269,1307.80619528555
0.302891233649255,1307.81619528555
0.28949023231557,1307.82619528555
0.278779046415611,1307.83619528555
0.270618358197236,1307.84619528555
0.264721350101595,1307.85619528555
0.261840457487695,1307.86619528555
0.26115004498338,1307.87619528555
0.261347965753504,1307.88619528555
0.261988035469698,1307.89619528555
0.262281949038814,1307.90619528555
0.260926883105219,1307.91619528555
0.257921072934468,1307.92619528555
0.25249819792601,1307.93619528555
0.24518281038494,1307.94619528555
0.23595190288526,1307.95619528555
0.224859440427779,1307.96619528555
0.212401029186137,1307.97619528555
0.199292276630745,1307.98619528555
0.184711412545662,1307.99619528555
0.16965843172165,1308.00619528555
0.153819422446186,1308.01619528555
0.137316082816521,1308.02619528555
0.12057335596786,1308.03619528555
0.10386750686422,1308.04619528555
0.0873974572277617,1308.05619528555
0.0704235021096743,1308.06619528555
0.0536718200483532,1308.07619528555
0.0371755346546873,1308.08619528555
0.0207841482959475,1308.09619528555
0.00489874031156328,1308.10619528555
-0.0106608163585565,1308.11619528555
-0.0257248936899029,1308.12619528555
-0.0399097537188748,1308.13619528555
-0.0542177619370492,1308.14619528555
-0.0683180876256269,1308.15619528555
-0.0831688558024367,1308.16619528555
-0.0976114300753219,1308.17619528555
-0.112111321500556,1308.18619528555
-0.126601206752605,1308.19619528555
-0.140606027197833,1308.20619528555
-0.154360115156504,1308.21619528555
-0.166366429549277,1308.22619528555
-0.174737466580893,1308.23619528555
-0.176205616264523,1308.24619528555
-0.16709354500382,1308.25619528555
-0.144774627925784,1308.26619528555
-0.108949785328637,1308.27619528555
-0.060872297702484,1308.28619528555
-0.0052329163466005,1308.29619528555
0.0525052057937093,1308.30619528555
0.106263353284995,1308.31619528555
0.152111388796724,1308.32619528555
0.186423479201926,1308.33619528555
0.208942640024938,1308.34619528555
0.219995940370398,1308.35619528555
0.221896240443326,1308.36619528555
0.217124518120074,1308.37619528555
0.207697432024496,1308.38619528555
0.195973597144436,1308.39619528555
0.183560022562258,1308.40619528555
0.171104012800625,1308.41619528555
0.159445039988936,1308.42619528555
0.149002643201264,1308.43619528555
0.14053431568126,1308.44619528555
0.134011294699715,1308.45619528555
0.128897649213365,1308.46619528555
0.124893479176759,1308.47619528555
0.120494351133882,1308.48619528555
0.113509128754044,1308.49619528555
0.104709870687176,1308.50619528555
0.0928282766793144,1308.51619528555
0.078850180621977,1308.52619528555
0.0638814397189331,1308.53619528555
0.0500550374205073,1308.54619528555
0.0385232473747288,1308.55619528555
0.0299721546058585,1308.56619528555
0.0240101448908851,1308.57619528555
0.0205514871365116,1308.58619528555
0.0187969557061372,1308.59619528555
0.018596276743878,1308.60619528555
0.0185905974142161,1308.61619528555
0.0184177042312112,1308.62619528555
0.017505551038852,1308.63619528555
0.0149333166042884,1308.64619528555
0.00978494112465817,1308.65619528555
0.00208702865616285,1308.66619528555
-0.00799440078973218,1308.67619528555
-0.0197310464038674,1308.68619528555
-0.0323171074644515,1308.69619528555
-0.0454219613120305,1308.70619528555
-0.0586012837272661,1308.71619528555
-0.0716183173357996,1308.72619528555
-0.0849804685708111,1308.73619528555
-0.0985947183462223,1308.74619528555
-0.112158138106665,1308.75619528555
-0.125910652647881,1308.76619528555
-0.139524141402209,1308.77619528555
-0.153111516893546,1308.78619528555
-0.166335717981851,1308.79619528555
-0.179219069648927,1308.80619528555
-0.192292171566228,1308.81619528555
-0.20460671259301,1308.82619528555
-0.216888179131933,1308.83619528555
-0.229571667132782,1308.84619528555
-0.242703058354508,1308.85619528555
-0.255555291981859,1308.86619528555
-0.267581680284677,1308.87619528555
-0.27936749020499,1308.88619528555
-0.290697628958485,1308.89619528555
-0.302482736323633,1308.90619528555
-0.314019031788105,1308.91619528555
-0.325509828310587,1308.92619528555
-0.336750795278176,1308.93619528555
-0.347073255248247,1308.94619528555
-0.354905170252148,1308.95619528555
-0.3585287246713,1308.96619528555
-0.354718687194466,1308.97619528555
-0.340370283805414,1308.98619528555
-0.314349429114463,1308.99619528555
-0.277412208624987,1309.00619528555
-0.232525781821695,1309.01619528555
-0.1851402323256,1309.02619528555
-0.140003621723675,1309.03619528555
-0.101148978619943,1309.04619528555
-0.0718362299480832,1309.05619528555
-0.0535599136763615,1309.06619528555
-0.0452128816157088,1309.07619528555
-0.045053743943553,1309.08619528555
-0.0509160634535109,1309.09619528555
-0.0607092321349341,1309.10619528555
-0.0721345821179097,1309.11619528555
-0.0843967536113267,1309.12619528555
-0.0950736869001101,1309.13619528555
-0.103976455342454,1309.14619528555
-0.111200424904478,1309.15619528555
-0.117003059794241,1309.16619528555
-0.121654949565245,1309.17619528555
-0.125141826736823,1309.18619528555
-0.127786662248637,1309.19619528555
-0.130151387415386,1309.20619528555
-0.133576255157007,1309.21619528555
-0.138875320246199,1309.22619528555
-0.146026776663046,1309.23619528555
-0.155215791470018,1309.24619528555
-0.165799190205392,1309.25619528555
-0.176030473148437,1309.26619528555
-0.185258622446681,1309.27619528555
-0.192092836703415,1309.28619528555
-0.197368081742447,1309.29619528555
-0.199970757032361,1309.30619528555
-0.200459869555975,1309.31619528555
-0.200715725284411,1309.32619528555
-0.199972784128849,1309.33619528555
-0.19924931678765,1309.34619528555
-0.199399015542949,1309.35619528555
-0.200902147562781,1309.36619528555
-0.203639607113287,1309.37619528555
-0.208387503526231,1309.38619528555
-0.214983163851054,1309.39619528555
-0.222964472884271,1309.40619528555
-0.23207389626936,1309.41619528555
-0.242538229143629,1309.42619528555
-0.253225268018954,1309.43619528555
-0.264116874077017,1309.44619528555
-0.27501692407234,1309.45619528555
-0.285794097956229,1309.46619528555
-0.296152654173667,1309.47619528555
-0.306506005610396,1309.48619528555
-0.317011167475384,1309.49619528555
-0.327858695407367,1309.50619528555
-0.338525383662898,1309.51619528555
-0.349283168107623,1309.52619528555
-0.35927869020674,1309.53619528555
-0.369360801648798,1309.54619528555
-0.378483509857593,1309.55619528555
-0.387305922043768,1309.56619528555
-0.395850767249419,1309.57619528555
-0.404312229997758,1309.58619528555
-0.412902217669396,1309.59619528555
-0.421781733295643,1309.60619528555
-0.430610959900496,1309.61619528555
-0.439359768188264,1309.62619528555
-0.447536888122181,1309.63619528555
-0.455672273320075,1309.64619528555
-0.463011516305543,1309.65619528555
-0.470654007214799,1309.66619528555
-0.476309093059546,1309.67619528555
-0.477758226936054,1309.68619528555
-0.471306109632194,1309.69619528555
-0.454696248405924,1309.70619528555
-0.426589606215139,1309.71619528555
-0.388904948711874,1309.72619528555
-0.344953450206321,1309.73619528555
-0.299749285856002,1309.74619528555
-0.257847628127208,1309.75619528555
-0.222973509089261,1309.76619528555
-0.196517985781431,1309.77619528555
-0.179286219715495,1309.78619528555
-0.170844622227236,1309.79619528555
-0.169497844932954,1309.80619528555
-0.173668969313142,1309.81619528555
-0.18074995201596,1309.82619528555
-0.189332550220217,1309.83619528555
-0.197947547832662,1309.84619528555
-0.205784932129092,1309.85619528555
-0.21229491495648,1309.86619528555
-0.21664708687584,1309.87619528555
-0.219215079818148,1309.88619528555
-0.220377837072364,1309.89619528555
-0.220100312197142,1309.90619528555
-0.218570531045696,1309.91619528555
-0.217471505318066,1309.92619528555
-0.217892345838252,1309.93619528555
-0.220154920599026,1309.94619528555
-0.22517593971657,1309.95619528555
-0.232914428978579,1309.96619528555
-0.242283324933385,1309.97619528555
-0.251493473320397,1309.98619528555
-0.259802754172617,1309.99619528555
-0.266709342342215,1310.00619528555
-0.271499135330979,1310.01619528555
-0.27403544156996,1310.02619528555
-0.274758602933594,1310.03619528555
-0.274634971495032,1310.04619528555
-0.273339533058853,1310.05619528555
-0.272223483192553,1310.06619528555
-0.272086885440183,1310.07619528555
-0.273092593243877,1310.08619528555
-0.275619206463502,1310.09619528555
-0.279552316739976,1310.10619528555
-0.284008884722898,1310.11619528555
-0.289375858159428,1310.12619528555
-0.29541716832647,1310.13619528555
-0.302152782034693,1310.14619528555
-0.309706839775364,1310.15619528555
-0.318104995171927,1310.16619528555
-0.327066337917235,1310.17619528555
-0.33567697077762,1310.18619528555
-0.344203945215519,1310.19619528555
-0.352773606018947,1310.20619528555
-0.361063693561229,1310.21619528555
-0.369956319778043,1310.22619528555
-0.378100976497113,1310.23619528555
-0.387236846562654,1310.24619528555
-0.396728092530599,1310.25619528555
-0.4063169625775,1310.26619528555
-0.415610064392303,1310.27619528555
-0.42500177888674,1310.28619528555
-0.434476789035606,1310.29619528555
-0.443907328479829,1310.30619528555
-0.453521402256485,1310.31619528555
-0.462955741679753,1310.32619528555
-0.471737424941442,1310.33619528555
-0.479950827779964,1310.34619528555
-0.487383812580267,1310.35619528555
-0.49432382901387,1310.36619528555
-0.501439697919086,1310.37619528555
-0.508963388284983,1310.38619528555
-0.517008838366945,1310.39619528555
-0.525892261441936,1310.40619528555
-0.534994350649587,1310.41619528555
-0.543994311550959,1310.42619528555
-0.552566316960735,1310.43619528555
-0.559999870935356,1310.44619528555
-0.565214620667631,1310.45619528555
-0.566731002368058,1310.46619528555
-0.56155110481968,1310.47619528555
-0.547012569271636,1310.48619528555
-0.522820062182938,1310.49619528555
-0.488947017666887,1310.50619528555
-0.448337181231053,1310.51619528555
-0.404839668298803,1310.52619528555
-0.36239364597469,1310.53619528555
-0.325037201510617,1310.54619528555
-0.295619902379407,1310.55619528555
-0.275318710092133,1310.56619528555
-0.263909185086281,1310.57619528555
-0.260436620305909,1310.58619528555
-0.262774557540347,1310.59619528555
-0.268724016907434,1310.60619528555
-0.276545803690497,1310.61619528555
-0.28459919883402,1310.62619528555
-0.291822860931708,1310.63619528555
-0.296737819308863,1310.64619528555
-0.29978881773018,1310.65619528555
-0.300911624037774,1310.66619528555
-0.299970792984217,1310.67619528555
-0.297367547279808,1310.68619528555
-0.293711480276232,1310.69619528555
-0.290156074543151,1310.70619528555
-0.287204914668257,1310.71619528555
-0.286276207692288,1310.72619528555
-0.287302659984247,1310.73619528555
-0.290888078570216,1310.74619528555
-0.295934757801429,1310.75619528555
-0.302223654155843,1310.76619528555
-0.307978089685265,1310.77619528555
-0.313053678626325,1310.78619528555
-0.316017073576689,1310.79619528555
-0.317451770215498,1310.80619528555
-0.316621263790461,1310.81619528555
-0.314498889059682,1310.82619528555
-0.311760711020882,1310.83619528555
-0.308619481781126,1310.84619528555
-0.306133261518006,1310.85619528555
-0.304523611581507,1310.86619528555
-0.304240043894679,1310.87619528555
-0.305059671883009,1310.88619528555
-0.307135267129944,1310.89619528555
-0.309925998998013,1310.90619528555
-0.313888610248936,1310.91619528555
-0.318507488855465,1310.92619528555
-0.323490212303895,1310.93619528555
-0.329296703746893,1310.94619528555
-0.336061941637651,1310.95619528555
-0.343174048608118,1310.96619528555
-0.351229154323011,1310.97619528555
-0.358715840958611,1310.98619528555
-0.365809803015859,1310.99619528555
-0.372934512461433,1311.00619528555
-0.380214295694686,1311.01619528555
-0.387920298002729,1311.02619528555
-0.395959633561996,1311.03619528555
-0.403752179176586,1311.04619528555
-0.411354201252296,1311.05619528555
-0.418382449592833,1311.06619528555
-0.42505929684408,1311.07619528555
-0.431540007944035,1311.08619528555
-0.438067957204717,1311.09619528555
-0.444866327199068,1311.10619528555
-0.45198667289239,1311.11619528555
-0.459010268068379,1311.12619528555
-0.466313008107816,1311.13619528555
-0.47320280660372,1311.14619528555
-0.480101640334961,1311.15619528555
-0.486866126308581,1311.16619528555
-0.493344953415499,1311.17619528555
-0.499972032752682,1311.18619528555
-0.506602171102106,1311.19619528555
-0.513173904348689,1311.20619528555
-0.519820184113204,1311.21619528555
-0.52623300771242,1311.22619528555
-0.532529552848815,1311.23619528555
-0.538856336979118,1311.24619528555
-0.54524723977332,1311.25619528555
-0.551962362752734,1311.26619528555
-0.558581697612956,1311.27619528555
-0.564510461789109,1311.28619528555
-0.570679731405307,1311.29619528555
-0.576547789875483,1311.30619528555
-0.582442945278599,1311.31619528555
-0.589060796028801,1311.32619528555
-0.596060714236025,1311.33619528555
-0.604255143661372,1311.34619528555
-0.61223001546936,1311.35619528555
-0.619758272332059,1311.36619528555
-0.624804487952019,1311.37619528555
-0.625613870688416,1311.38619528555
-0.619533570908832,1311.39619528555
-0.603748060574613,1311.40619528555
-0.577123417115739,1311.41619528555
-0.540536618411728,1311.42619528555
-0.497436712067936,1311.43619528555
-0.451066327720912,1311.44619528555
-0.405581087676227,1311.45619528555
-0.364927888425638,1311.46619528555
-0.332127696201718,1311.47619528555
-0.308255698835681,1311.48619528555
-0.293428558027011,1311.49619528555
-0.286325064453893,1311.50619528555
-0.285357098242132,1311.51619528555
-0.288152579889224,1311.52619528555
-0.293660503739885,1311.53619528555
-0.30045072876293,1311.54619528555
-0.307322100531894,1311.55619528555
-0.312686516830403,1311.56619528555
-0.316538834355974,1311.57619528555
-0.318484212128722,1311.58619528555
-0.318306818745622,1311.59619528555
-0.316083665560985,1311.60619528555
-0.312572209787923,1311.61619528555
-0.307621513365624,1311.62619528555
-0.303092868940915,1311.63619528555
-0.29949789793514,1311.64619528555
-0.297575782445029,1311.65619528555
-0.297842718821261,1311.66619528555
-0.300773367632348,1311.67619528555
-0.304638791488996,1311.68619528555
-0.308794455804871,1311.69619528555
-0.311895577607221,1311.70619528555
-0.313357047994439,1311.71619528555
-0.313875994811729,1311.72619528555
-0.311999953797641,1311.73619528555
-0.308806515603071,1311.74619528555
-0.304598470669206,1311.75619528555
-0.299322036376757,1311.76619528555
-0.293517376373183,1311.77619528555
-0.288647345910128,1311.78619528555
-0.284487023151492,1311.79619528555
-0.282351780216848,1311.80619528555
-0.282105809347354,1311.81619528555
-0.2838823317923,1311.82619528555
-0.286584556910194,1311.83619528555
-0.290065223516054,1311.84619528555
-0.294839762988178,1311.85619528555
-0.299911902663075,1311.86619528555
-0.305766514796043,1311.87619528555
-0.31135873994155,1311.88619528555
-0.317299082244533,1311.89619528555
-0.322676585591123,1311.90619528555
-0.328248430435103,1311.91619528555
-0.333997969342224,1311.92619528555
-0.33934685883366,1311.93619528555
-0.345481852217616,1311.94619528555
-0.352255824659866,1311.95619528555
-0.359782667625386,1311.96619528555
-0.366797358864882,1311.97619528555
-0.374121052407616,1311.98619528555
-0.380945078595227,1311.99619528555
-0.387613950222526,1312.00619528555
-0.394812786808046,1312.01619528555
-0.400947832953782,1312.02619528555
-0.406226857718157,1312.03619528555
-0.411894261269968,1312.04619528555
-0.417412170024225,1312.05619528555
-0.4223130093527,1312.06619528555
-0.427205587701711,1312.07619528555
-0.432005148461105,1312.08619528555
-0.437323359983012,1312.09619528555
-0.442403202840961,1312.10619528555
-0.447653527020688,1312.11619528555
-0.45212565598138,1312.12619528555
-0.456295562053407,1312.13619528555
-0.460589937280489,1312.14619528555
-0.465714931960961,1312.15619528555
-0.471073985450681,1312.16619528555
-0.476509287162823,1312.17619528555
-0.481579614507032,1312.18619528555
-0.486346012891777,1312.19619528555
-0.49140957359788,1312.20619528555
-0.496430534552756,1312.21619528555
-0.501597232366623,1312.22619528555
-0.507260765405604,1312.23619528555
-0.511247658101668,1312.24619528555
-0.510819830806345,1312.25619528555
-0.503386781466925,1312.26619528555
-0.48594579997704,1312.27619528555
-0.458672803221249,1312.28619528555
-0.421706833961944,1312.29619528555
-0.378267788571656,1312.30619528555
-0.332215509879137,1312.31619528555
-0.28747476292699,1312.32619528555
-0.247055425043732,1312.33619528555
-0.214007002674383,1312.34619528555
-0.189127022710069,1312.35619528555
-0.172771021312079,1312.36619528555
-0.164307193664096,1312.37619528555
-0.162930355833041,1312.38619528555
-0.167069082881682,1312.39619528555
-0.173872938039515,1312.40619528555
-0.181536128909789,1312.41619528555
-0.18883519809886,1312.42619528555
-0.194697950480341,1312.43619528555
-0.199322378144643,1312.44619528555
-0.202479765913603,1312.45619528555
-0.203646778038624,1312.46619528555
-0.203288544265818,1312.47619528555
-0.202628256503642,1312.48619528555
-0.201380532166176,1312.49619528555
-0.200657085255496,1312.50619528555
-0.201270575768224,1312.51619528555
-0.202916480571585,1312.52619528555
-0.205754684147339,1312.53619528555
-0.209119905115682,1312.54619528555
-0.212375823280561,1312.55619528555
-0.21463488308419,1312.56619528555
-0.214718424841989,1312.57619528555
-0.212589526817142,1312.58619528555
-0.208099634241687,1312.59619528555
-0.201354717817371,1312.60619528555
-0.193587885184768,1312.61619528555
-0.185277018736146,1312.62619528555
-0.177444933887707,1312.63619528555
-0.170401855048326,1312.64619528555
-0.165006536925746,1312.65619528555
-0.161434842433945,1312.66619528555
-0.159382635676019,1312.67619528555
-0.159046624766094,1312.68619528555
-0.160022146645576,1312.69619528555
-0.162347032148201,1312.70619528555
-0.166190533995435,1312.71619528555
-0.17022268837107,1312.72619528555
-0.174926719217168,1312.73619528555
-0.179965680354121,1312.74619528555
-0.184699162250351,1312.75619528555
-0.189309935470277,1312.76619528555
-0.194159131598533,1312.77619528555
-0.199133641531289,1312.78619528555
-0.204503710103162,1312.79619528555
-0.210254274220485,1312.80619528555
-0.216034149486767,1312.81619528555
-0.222365658385824,1312.82619528555
-0.228669228347237,1312.83619528555
-0.235138620034477,1312.84619528555
-0.241537608319822,1312.85619528555
-0.247676061492651,1312.86619528555
-0.253692913817458,1312.87619528555
-0.259678344840427,1312.88619528555
-0.265291418866066,1312.89619528555
-0.270843212810098,1312.90619528555
-0.276190554140358,1312.91619528555
-0.28133636628485,1312.92619528555
-0.286312908539175,1312.93619528555
-0.290857726284884,1312.94619528555
-0.295294742361845,1312.95619528555
-0.299541769138505,1312.96619528555
-0.303943300611495,1312.97619528555
-0.308237166927132,1312.98619528555
-0.312103809214716,1312.99619528555
-0.315977185425297,1313.00619528555
-0.321067113782685,1313.01619528555
-0.326495846411912,1313.02619528555
-0.332515132769081,1313.03619528555
-0.338691968468781,1313.04619528555
-0.343711060294444,1313.05619528555
-0.346984161902382,1313.06619528555
-0.345132223078278,1313.07619528555
-0.335373149698589,1313.08619528555
-0.315559369179817,1313.09619528555
-0.284209045406237,1313.10619528555
-0.24242898942753,1313.11619528555
-0.192839037683377,1313.12619528555
-0.138625092851147,1313.13619528555
-0.0846763744308743,1313.14619528555
-0.0341722166798451,1313.15619528555
0.00876322439771621,1313.16619528555
0.0429907518287695,1313.17619528555
0.0673125892798317,1313.18619528555
0.0824269220377334,1313.19619528555
0.0899806253084279,1313.20619528555
0.0914226076642611,1313.21619528555
0.0888685222198899,1313.22619528555
0.0834930611689134,1313.23619528555
0.0777720555556611,1313.24619528555
0.0720607420134576,1313.25619528555
0.0678141962633269,1313.26619528555
0.0658101584135847,1313.27619528555
0.0665511399681283,1313.28619528555
0.0701380586940172,1313.29619528555
0.0753828800045894,1313.30619528555
0.0812348164328864,1313.31619528555
0.0862767823491349,1313.32619528555
0.0895446322862476,1313.33619528555
0.0904081641553523,1313.34619528555
0.0891955494393198,1313.35619528555
0.0865560416766265,1313.36619528555
0.0832217513339081,1313.37619528555
0.0800426390844369,1313.38619528555
0.0776372580723223,1313.39619528555
0.0774375691568397,1313.40619528555
0.0792668826381509,1313.41619528555
0.0832241113668,1313.42619528555
0.0890163789885554,1313.43619528555
0.0960149844075207,1313.44619528555
0.103518867536835,1313.45619528555
0.111146123866163,1313.46619528555
0.118175062426719,1313.47619528555
0.123617248879434,1313.48619528555
0.127670438252436,1313.49619528555
0.129706316490569,1313.50619528555
0.130211424810888,1313.51619528555
0.12926414278807,1313.52619528555
0.127270093282058,1313.53619528555
0.123589689529993,1313.54619528555
0.119116046439451,1313.55619528555
0.113981254853497,1313.56619528555
0.10812338868507,1313.57619528555
0.101409826300825,1313.58619528555
0.0943005783122591,1313.59619528555
0.086782284551707,1313.60619528555
0.0788767711152314,1313.61619528555
0.0706956623601729,1313.62619528555
0.0621583981577055,1313.63619528555
0.0540414904540152,1313.64619528555
0.0455058959667381,1313.65619528555
0.0368678000351437,1313.66619528555
0.0283948969255749,1313.67619528555
0.0193500653780364,1313.68619528555
0.0105605993373591,1313.69619528555
0.00233151492578919,1313.70619528555
-0.00565729913364477,1313.71619528555
-0.0135515805022552,1313.72619528555
-0.0216336895094784,1313.73619528555
-0.0302508036945866,1313.74619528555
-0.0389293240075069,1313.75619528555
-0.0471497538837081,1313.76619528555
-0.0555568321287722,1313.77619528555
-0.0628032778223035,1313.78619528555
-0.0699680503642667,1313.79619528555
-0.0767075974471632,1313.80619528555
-0.0839372495835784,1313.81619528555
-0.0909637999442671,1313.82619528555
-0.0983892170259867,1313.83619528555
-0.105959731163719,1313.84619528555
-0.113611427590317,1313.85619528555
-0.12113686334206,1313.86619528555
-0.128372355954394,1313.87619528555
-0.135753029393486,1313.88619528555
-0.143487607143667,1313.89619528555
-0.15084449384766,1313.90619528555
-0.156892388138786,1313.91619528555
-0.159401910257209,1313.92619528555
-0.154248281265391,1313.93619528555
-0.138798348471861,1313.94619528555
-0.110390136396551,1313.95619528555
-0.0694581023808108,1313.96619528555
-0.0184949181935765,1313.97619528555
0.0394262086547815,1313.98619528555
0.0990030516851317,1313.99619528555
0.156409764746327,1314.00619528555
0.207055643522496,1314.01619528555
0.247749725208415,1314.02619528555
0.277232898826672,1314.03619528555
0.295322652772439,1314.04619528555
0.303750159386622,1314.05619528555
0.305109862820396,1314.06619528555
0.301624706423233,1314.07619528555
0.29550447846299,1314.08619528555
0.288955274156153,1314.09619528555
0.283577309082256,1314.10619528555
0.279312642872299,1314.11619528555
0.276931586057789,1314.12619528555
0.276415612707222,1314.13619528555
0.278566447984565,1314.14619528555
0.282746696677886,1314.15619528555
0.28835367011081,1314.16619528555
0.295146149367527,1314.17619528555
0.300801978741074,1314.18619528555
0.304207766387427,1314.19619528555
0.304800351153401,1314.20619528555
0.301663130733082,1314.21619528555
0.296985656452106,1314.22619528555
0.291108973858404,1314.23619528555
0.285557711407262,1314.24619528555
0.28140126697368,1314.25619528555
0.279279861849209,1314.26619528555
0.278874664289502,1314.27619528555
0.280094892033731,1314.28619528555
0.28318492572959,1314.29619528555
0.286362273539182,1314.30619528555
0.290042116619327,1314.31619528555
0.292939120893004,1314.32619528555
0.295610073028635,1314.33619528555
0.298127081571855,1314.34619528555
0.299405302551236,1314.35619528555
0.299192320933937,1314.36619528555
0.297106973097901,1314.37619528555
0.293529525264937,1314.38619528555
0.288578472538633,1314.39619528555
0.282262583114526,1314.40619528555
0.274705262454126,1314.41619528555
0.266341733362935,1314.42619528555
0.257902473192857,1314.43619528555
0.248343797888025,1314.44619528555
0.237574275344807,1314.45619528555
0.226504184414402,1314.46619528555
0.215370043260649,1314.47619528555
0.20412526168462,1314.48619528555
0.193112681946626,1314.49619528555
0.182484282402067,1314.50619528555
0.17155648957802,1314.51619528555
0.160797555730224,1314.52619528555
0.149644375129294,1314.53619528555
0.138263455482592,1314.54619528555
0.127610524526282,1314.55619528555
0.11674292802417,1314.56619528555
0.106748948989101,1314.57619528555
0.0972696673254283,1314.58619528555
0.0877297496680128,1314.59619528555
0.078182792614718,1314.60619528555
0.0686340294592105,1314.61619528555
0.0595856471975832,1314.62619528555
0.0502064743899158,1314.63619528555
0.0411534039950088,1314.64619528555
0.0317724993720315,1314.65619528555
0.0217230153916217,1314.66619528555
0.0121309725084201,1314.67619528555
0.00183275346424281,1314.68619528555
-0.00823953979721453,1314.69619528555
-0.0183506287533516,1314.70619528555
-0.0280340433943846,1314.71619528555
-0.0372296016263936,1314.72619528555
-0.0463675084308021,1314.73619528555
-0.055458132535955,1314.74619528555
-0.0642256045565796,1314.75619528555
-0.0727879437647103,1314.76619528555
-0.0812905821911118,1314.77619528555
-0.0898689385641541,1314.78619528555
-0.0981730749160033,1314.79619528555
-0.106967345108462,1314.80619528555
-0.115826299271872,1314.81619528555
-0.124614501299925,1314.82619528555
-0.133651802597827,1314.83619528555
-0.141591295755956,1314.84619528555
-0.147700404800348,1314.85619528555
-0.14843116246228,1314.86619528555
-0.140087672681656,1314.87619528555
-0.119968150883117,1314.88619528555
-0.0863625056605852,1314.89619528555
-0.040843260140539,1314.90619528555
0.0148624540706063,1314.91619528555
0.0751958909513896,1314.92619528555
0.136135413367907,1314.93619528555
0.192879173130701,1314.94619528555
0.241623771168819,1314.95619528555
0.279421941295902,1314.96619528555
0.305923287955116,1314.97619528555
0.321556807392855,1314.98619528555
0.327945042649634,1314.99619528555
0.327952691514196,1315.00619528555
0.32370515647267,1315.01619528555
0.317846076496643,1315.02619528555
0.311679546368371,1315.03619528555
0.306071658073342,1315.04619528555
0.30181323581655,1315.05619528555
0.298915651839012,1315.06619528555
0.297373699886301,1315.07619528555
0.297259045191819,1315.08619528555
0.298684888233138,1315.09619528555
0.301208805988526,1315.10619528555
0.304139883115744,1315.11619528555
0.306229627763962,1315.12619528555
0.307349892104936,1315.13619528555
0.306161885076478,1315.14619528555
0.302443363789118,1315.15619528555
0.297410346865758,1315.16619528555
0.290724208087158,1315.17619528555
0.284536095307733,1315.18619528555
0.27972683267525,1315.19619528555
0.276726630178052,1315.20619528555
0.276207824882952,1315.21619528555
0.277184107404056,1315.22619528555
0.279442420949871,1315.23619528555
0.281946112404578,1315.24619528555
0.284667854730075,1315.25619528555
0.287535885466638,1315.26619528555
0.289948131917375,1315.27619528555
0.291179003914538,1315.28619528555
0.290555850468551,1315.29619528555
0.288262231922747,1315.30619528555
0.284307105691441,1315.31619528555
0.27929156880389,1315.32619528555
0.273400657857259,1315.33619528555
0.266124790148457,1315.34619528555
0.257879605481439,1315.35619528555
0.248394272917683,1315.36619528555
0.238871657116401,1315.37619528555
0.228779246469543,1315.38619528555
0.218663685962853,1315.39619528555
0.207815256262353,1315.40619528555
0.197056943924858,1315.41619528555
0.186414473910957,1315.42619528555
0.175436350586709,1315.43619528555
0.164966049011707,1315.44619528555
0.154001338724797,1315.45619528555
0.143100576302013,1315.46619528555
0.131578502745837,1315.47619528555
0.120425403834937,1315.48619528555
0.109596649990476,1315.49619528555
0.0989146602484735,1315.50619528555
0.0888155313002925,1315.51619528555
0.0788252861712366,1315.52619528555
0.0692083294361166,1315.53619528555
0.0589796056171626,1315.54619528555
0.0485451972583709,1315.55619528555
0.037933630738284,1315.56619528555
0.0271679078344482,1315.57619528555
0.0163161701861641,1315.58619528555
0.00529098212493889,1315.59619528555
-0.00526832878656477,1315.60619528555
-0.0158331774906543,1315.61619528555
-0.025549411500886,1315.62619528555
-0.0349187505255125,1315.63619528555
-0.0436209735118258,1315.64619528555
-0.0517279256334094,1315.65619528555
-0.0595859934305737,1315.66619528555
-0.0676741920357875,1315.67619528555
-0.0763445450872531,1315.68619528555
-0.0854877075021249,1315.69619528555
-0.0949744270191084,1315.70619528555
-0.104362415620595,1315.71619528555
-0.114009208682695,1315.72619528555
-0.123879655744028,1315.73619528555
-0.133666379391664,1315.74619528555
-0.143003530043787,1315.75619528555
-0.152594889350156,1315.76619528555
-0.162173020510736,1315.77619528555
-0.169556711847046,1315.78619528555
-0.173310286447605,1315.79619528555
-0.16959595249074,1315.80619528555
-0.155213922548451,1315.81619528555
-0.12847592974004,1315.82619528555
-0.0890127318559062,1315.83619528555
-0.0391917189170177,1315.84619528555
0.0180026413791432,1315.85619528555
0.0771846070014943,1315.86619528555
0.133773941788105,1315.87619528555
0.184117146609609,1315.88619528555
0.224523329447083,1315.89619528555
0.253952870085747,1315.90619528555
0.271892950051576,1315.91619528555
0.281078856997122,1315.92619528555
0.282809490714311,1315.93619528555
0.279703633601875,1315.94619528555
0.273152879170296,1315.95619528555
0.265117505321471,1315.96619528555
0.256729751559492,1315.97619528555
0.248534074718831,1315.98619528555
0.241329447968265,1315.99619528555
0.235033209077534,1316.00619528555
0.230355362706768,1316.01619528555
0.227658044697692,1316.02619528555
0.226345582681048,1316.03619528555
0.225837778888642,1316.04619528555
0.224524368250008,1316.05619528555
0.221945636614555,1316.06619528555
0.217630652587686,1316.07619528555
0.211308614440871,1316.08619528555
0.204728023216464,1316.09619528555
0.199095344023787,1316.10619528555
0.194794582165976,1316.11619528555
0.192459940324854,1316.12619528555
0.192343427987382,1316.13619528555
0.194294180130008,1316.14619528555
0.198199695527092,1316.15619528555
0.203494334694265,1316.16619528555
0.209217412789045,1316.17619528555
0.214962922475897,1316.18619528555
0.220599318390751,1316.19619528555
0.22544562688779,1316.20619528555
0.228824121720872,1316.21619528555
0.230483816533452,1316.22619528555
0.229612097574713,1316.23619528555
0.226801046957029,1316.24619528555
0.222526834242676,1316.25619528555
0.216240977338515,1316.26619528555
0.208391691682616,1316.27619528555
0.19938407961005,1316.28619528555
0.189804474721468,1316.29619528555
0.179639329785957,1316.30619528555
0.169233616002036,1316.31619528555
0.158576809166656,1316.32619528555
0.148521789835824,1316.33619528555
0.1386505175752,1316.34619528555
0.128875174541595,1316.35619528555
0.11908464815263,1316.36619528555
0.108953992547024,1316.37619528555
0.0984524022023466,1316.38619528555
0.0880196004001151,1316.39619528555
0.0780022700986578,1316.40619528555
0.06801436619728,1316.41619528555
0.0577746195345854,1316.42619528555
0.0476314768316881,1316.43619528555
0.0379045521733043,1316.44619528555
0.0284321950685416,1316.45619528555
0.018982338775801,1316.46619528555
0.00990208742255674,1316.47619528555
0.000146480910284061,1316.48619528555
-0.00941820519946901,1316.49619528555
-0.0193433760730739,1316.50619528555
-0.0294376717926121,1316.51619528555
-0.0388799129924953,1316.52619528555
-0.0485001985389483,1316.53619528555
-0.0573218183815912,1316.54619528555
-0.0661239845368848,1316.55619528555
-0.0749121838340508,1316.56619528555
-0.0834976900985141,1316.57619528555
-0.0917737991001748,1316.58619528555
-0.0998297668788866,1316.59619528555
-0.107500202028907,1316.60619528555
-0.115821056565797,1316.61619528555
-0.12397184017637,1316.62619528555
-0.130256606173967,1316.63619528555
-0.131915581351959,1316.64619528555
-0.125028364052983,1316.65619528555
-0.106382720500528,1316.66619528555
-0.0742332285911207,1316.67619528555
-0.029287990214911,1316.68619528555
0.0249185972079629,1316.69619528555
0.0849937611656533,1316.70619528555
0.145872224152971,1316.71619528555
0.203734473148538,1316.72619528555
0.254752640871673,1316.73619528555
0.295453574567667,1316.74619528555
0.325641824601601,1316.75619528555
0.345061143836555,1316.76619528555
0.354386255300495,1316.77619528555
0.356328330806504,1316.78619528555
0.352304745069243,1316.79619528555
0.344707755080816,1316.80619528555
0.33625589809103,1316.81619528555
0.327731558020875,1316.82619528555
0.320211500202564,1316.83619528555
0.314101808317657,1316.84619528555
0.309503563571548,1316.85619528555
0.306067714995301,1316.86619528555
0.304218654122275,1316.87619528555
0.302993584090431,1316.88619528555
0.302490213011871,1316.89619528555
0.301238564572854,1316.90619528555
0.298730449925516,1316.91619528555
0.294166929692546,1316.92619528555
0.287339223428074,1316.93619528555
0.279483665095525,1316.94619528555
0.271575699959214,1316.95619528555
0.26510438806715,1316.96619528555
0.260660574616735,1316.97619528555
0.259066854987338,1316.98619528555
0.259996606550704,1316.99619528555
0.263479171463188,1317.00619528555
0.26869283058837,1317.01619528555
0.275417863684083,1317.02619528555
0.282632629781998,1317.03619528555
0.289311088933888,1317.04619528555
0.294657775291737,1317.05619528555
0.297629293049707,1317.06619528555
0.298490648716462,1317.07619528555
0.296817167362833,1317.08619528555
0.293259129796895,1317.09619528555
0.288090837171717,1317.10619528555
0.281540691613545,1317.11619528555
0.273484073256626,1317.12619528555
0.264813168822399,1317.13619528555
0.255255035388329,1317.14619528555
0.245631327257284,1317.15619528555
0.235833671699286,1317.16619528555
0.225101879575484,1317.17619528555
0.214830643938511,1317.18619528555
0.204075653086967,1317.19619528555
0.193293235305812,1317.20619528555
0.182737339015435,1317.21619528555
0.17203902678206,1317.22619528555
0.161356878575837,1317.23619528555
0.150498119973172,1317.24619528555
0.139665823951468,1317.25619528555
0.12899445755888,1317.26619528555
0.118309651504218,1317.27619528555
0.107489648778568,1317.28619528555
0.096766781219156,1317.29619528555
0.086078744711006,1317.30619528555
0.075749407509587,1317.31619528555
0.0660317765588095,1317.32619528555
0.0562047090695025,1317.33619528555
0.0464138224235813,1317.34619528555
0.0367699627027301,1317.35619528555
0.0272969556717624,1317.36619528555
0.0180698428721194,1317.37619528555
0.00918945796440739,1317.38619528555
5.4792645138035e-05,1317.39619528555
-0.00950013028020297,1317.40619528555
-0.019057177421743,1317.41619528555
-0.0289033525978172,1317.42619528555
-0.0383966585307519,1317.43619528555
-0.0467940387249755,1317.44619528555
-0.052906920229028,1317.45619528555
-0.0530185354148623,1317.46619528555
-0.0438034848664342,1317.47619528555
-0.0209070922608872,1317.48619528555
0.017317454087163,1317.49619528555
0.069631617054062,1317.50619528555
0.133250964806075,1317.51619528555
0.20361759022404,1317.52619528555
0.274886845314716,1317.53619528555
0.341827921199974,1317.54619528555
0.400010552145769,1317.55619528555
0.44652206224656,1317.56619528555
0.480170816837374,1317.57619528555
0.501581100962775,1317.58619528555
0.512769239650168,1317.59619528555
0.516307955736748,1317.60619528555
0.514894841829447,1317.61619528555
0.510731493378675,1317.62619528555
0.505636226689306,1317.63619528555
0.500066418114202,1317.64619528555
0.494689219132008,1317.65619528555
0.4905672660242,1317.66619528555
0.487384306847442,1317.67619528555
0.485995742796758,1317.68619528555
0.486116137121446,1317.69619528555
0.48817819468511,1317.70619528555
0.49023412324703,1317.71619528555
0.491711033892188,1317.72619528555
0.491625385079519,1317.73619528555
0.488807483191052,1317.74619528555
0.482887913677747,1317.75619528555
0.47448632474793,1317.76619528555
0.464719961761668,1317.77619528555
0.455426604544059,1317.78619528555
0.44728980536249,1317.79619528555
0.441520615339089,1317.80619528555
0.438132907397765,1317.81619528555
0.436790626734905,1317.82619528555
0.438166476337345,1317.83619528555
0.441404133785196,1317.84619528555
0.445586412070727,1317.85619528555
0.450398793656542,1317.86619528555
0.454165034323603,1317.87619528555
0.457322792572484,1317.88619528555
0.458968265327471,1317.89619528555
0.459064706954894,1317.90619528555
0.45702565248102,1317.91619528555
0.452768677370576,1317.92619528555
0.446777343873659,1317.93619528555
0.438874668762537,1317.94619528555
0.429640286159058,1317.95619528555
0.41907079015432,1317.96619528555
0.407751959673195,1317.97619528555
0.396252399155203,1317.98619528555
0.38447461749103,1317.99619528555
0.372224329337006,1318.00619528555
0.360241998309529,1318.01619528555
0.348495193260877,1318.02619528555
0.336289478038195,1318.03619528555
0.323448030266865,1318.04619528555
0.309807670991432,1318.05619528555
0.295977651752967,1318.06619528555
0.28240285456542,1318.07619528555
0.269528713169061,1318.08619528555
0.257501245882119,1318.09619528555
0.245393386325299,1318.10619528555
0.233202181359685,1318.11619528555
0.220788783028914,1318.12619528555
0.208657677662873,1318.13619528555
0.196490176912809,1318.14619528555
0.184817096399765,1318.15619528555
0.173433109011479,1318.16619528555
0.162844623969581,1318.17619528555
0.152482033317919,1318.18619528555
0.142845603668023,1318.19619528555
0.13310923521668,1318.20619528555
0.122897055721994,1318.21619528555
0.112766673113369,1318.22619528555
0.102213525231624,1318.23619528555
0.0916278361384339,1318.24619528555
0.0813312257809584,1318.25619528555
0.0712945759022235,1318.26619528555
0.0608434963128705,1318.27619528555
0.0509329822794289,1318.28619528555
0.040272713226885,1318.29619528555
0.0300638403338305,1318.30619528555
0.0219904566955366,1318.31619528555
0.0186600481954352,1318.32619528555
0.0244094379055761,1318.33619528555
0.0439519163549654,1318.34619528555
0.0800650920826789,1318.35619528555
0.132440006808513,1318.36619528555
0.199739569543797,1318.37619528555
0.275120643070611,1318.38619528555
0.353344482410922,1318.39619528555
0.427278823029684,1318.40619528555
0.491933283451153,1318.41619528555
0.544314890551318,1318.42619528555
0.582922670380978,1318.43619528555
0.608801643566065,1318.44619528555
0.623273078083408,1318.45619528555
0.62806222887759,1318.46619528555
0.625976638292274,1318.47619528555
0.619577989914512,1318.48619528555
0.611224057498105,1318.49619528555
0.602295112369686,1318.50619528555
0.594389537456994,1318.51619528555
0.587852400681469,1318.52619528555
0.583203895504981,1318.53619528555
0.580574158968485,1318.54619528555
0.579977774126631,1318.55619528555
0.580583293650305,1318.56619528555
0.58150962827797,1318.57619528555
0.582240061514126,1318.58619528555
0.581007947273765,1318.59619528555
0.577411043752879,1318.60619528555
0.570649664524127,1318.61619528555
0.561625899853335,1318.62619528555
0.551905781840477,1318.63619528555
0.541470759230612,1318.64619528555
0.532335087201878,1318.65619528555
0.525077525403833,1318.66619528555
0.520061266637861,1318.67619528555
0.516937066309892,1318.68619528555
0.515467676897668,1318.69619528555
0.515690272560623,1318.70619528555
0.517338993696514,1318.71619528555
0.519101966454026,1318.72619528555
0.520314465890283,1318.73619528555
0.521645641744699,1318.74619528555
0.521026660977791,1318.75619528555
0.518621134020587,1318.76619528555
0.513483349392534,1318.77619528555
0.506182168818982,1318.78619528555
0.497401437162143,1318.79619528555
0.487621972631062,1318.80619528555
0.47690348465246,1318.81619528555
0.465422782722568,1318.82619528555
0.453294708546133,1318.83619528555
0.440874457750775,1318.84619528555
0.427333301841881,1318.85619528555
0.413421289392181,1318.86619528555
0.398868049914697,1318.87619528555
0.383868770913128,1318.88619528555
0.368324194261681,1318.89619528555
0.352235672737478,1318.90619528555
0.335958961381465,1318.91619528555
0.319225503845225,1318.92619528555
0.302821625374809,1318.93619528555
0.287003137136338,1318.94619528555
0.271914964123946,1318.95619528555
0.257520295670903,1318.96619528555
0.243932365300684,1318.97619528555
0.229860097525136,1318.98619528555
0.215898102599126,1318.99619528555
0.2018653842043,1319.00619528555
0.187536406357788,1319.01619528555
0.173066965742028,1319.02619528555
0.158474469793146,1319.03619528555
0.144165848941603,1319.04619528555
0.130178869636092,1319.05619528555
0.117028407886023,1319.06619528555
0.104480379288999,1319.07619528555
0.0924290892608321,1319.08619528555
0.0805536329892122,1319.09619528555
0.0694109815621355,1319.10619528555
0.0589243475257826,1319.11619528555
0.0477420742542525,1319.12619528555
0.0370439788555558,1319.13619528555
0.0263926843582461,1319.14619528555
0.0154148510056835,1319.15619528555
0.00414119062693612,1319.16619528555
-0.00744545905326378,1319.17619528555
-0.0195287256471289,1319.18619528555
-0.0320614652141288,1319.19619528555
-0.0442565866257042,1319.20619528555
-0.054895428729063,1319.21619528555
-0.0618255968997603,1319.22619528555
-0.0620483974186611,1319.23619528555
-0.0514553169090806,1319.24619528555
-0.0263042830876507,1319.25619528555
0.0130342123366414,1319.26619528555
0.0659776666271198,1319.27619528555
0.128449895711449,1319.28619528555
0.195501677270329,1319.29619528555
0.261483067749777,1319.30619528555
0.320364190493986,1319.31619528555
0.368403203811989,1319.32619528555
0.403873157533855,1319.33619528555
0.426551890572645,1319.34619528555
0.438369480571651,1319.35619528555
0.441060075422891,1319.36619528555
0.43732420516286,1319.37619528555
0.429618411965715,1319.38619528555
0.420220749381613,1319.39619528555
0.410384551600249,1319.40619528555
0.400924310653489,1319.41619528555
0.391497654587517,1319.42619528555
0.383502588575457,1319.43619528555
0.376178638889256,1319.44619528555
0.37088038894642,1319.45619528555
0.367717841637738,1319.46619528555
0.365577233902782,1319.47619528555
0.363759555646281,1319.48619528555
0.360930519329178,1319.49619528555
0.355803559268989,1319.50619528555
0.348342188753408,1319.51619528555
0.339159710570941,1319.52619528555
0.328525641913848,1319.53619528555
0.317908476479504,1319.54619528555
0.308340293450115,1319.55619528555
0.301209808066225,1319.56619528555
0.296142706600356,1319.57619528555
0.293676353970625,1319.58619528555
0.293496954298097,1319.59619528555
0.294235566681285,1319.60619528555
0.295741068706799,1319.61619528555
0.296828563315904,1319.62619528555
0.296910179842085,1319.63619528555
0.296460332627153,1319.64619528555
0.29535441668028,1319.65619528555
0.292110251234823,1319.66619528555
0.287084970401943,1319.67619528555
0.280213006714672,1319.68619528555
0.271202133291171,1319.69619528555
0.261316026122201,1319.70619528555
0.249873848799793,1319.71619528555
0.23740080839429,1319.72619528555
0.225205069037188,1319.73619528555
0.212571415456011,1319.74619528555
0.199516567530636,1319.75619528555
0.186888671007601,1319.76619528555
0.173802328924612,1319.77619528555
0.160285584448213,1319.78619528555
0.146829949444695,1319.79619528555
0.13344536399313,1319.80619528555
0.120525049980552,1319.81619528555
0.107677256687096,1319.82619528555
0.0944839386139765,1319.83619528555
0.0808909020340564,1319.84619528555
0.0672060163497722,1319.85619528555
0.0536185115176811,1319.86619528555
0.0402157871588937,1319.87619528555
0.0268088885026204,1319.88619528555
0.0145233744731863,1319.89619528555
0.00273635661042597,1319.90619528555
-0.00861363862470764,1319.91619528555
-0.0193767971719116,1319.92619528555
-0.0302100519407407,1319.93619528555
-0.0409094980571455,1319.94619528555
-0.051261491213026,1319.95619528555
-0.0622781357643608,1319.96619528555
-0.0734508782877574,1319.97619528555
-0.0852500764835639,1319.98619528555
-0.0966221772631509,1319.99619528555
-0.107849731702853,1320.00619528555
-0.118946512405755,1320.01619528555
-0.130308072366728,1320.02619528555
-0.141661353833451,1320.03619528555
-0.153118729473869,1320.04619528555
-0.164383623136968,1320.05619528555
-0.175667531964737,1320.06619528555
-0.186679035868624,1320.07619528555
-0.196269719276664,1320.08619528555
-0.202392017174629,1320.09619528555
-0.201449749791075,1320.10619528555
-0.189903579988431,1320.11619528555
-0.165441324754455,1320.12619528555
-0.129007207940899,1320.13619528555
-0.0825056275398401,1320.14619528555
-0.0299600980248897,1320.15619528555
0.0231728110928031,1320.16619528555
0.0730147389155183,1320.17619528555
0.115057156513071,1320.18619528555
0.14758067709026,1320.19619528555
0.169911661542345,1320.20619528555
0.18180846358728,1320.21619528555
0.185730653933265,1320.22619528555
0.182485688001388,1320.23619528555
0.174541239589113,1320.24619528555
0.164077300290651,1320.25619528555
0.152147892440105,1320.26619528555
0.140215004219268,1320.27619528555
0.129305624357926,1320.28619528555
0.120589674237267,1320.29619528555
0.113812084778512,1320.30619528555
0.109162891487725,1320.31619528555
0.106028054032152,1320.32619528555
0.104121635987944,1320.33619528555
0.102279985307515,1320.34619528555
0.0996530793481608,1320.35619528555
0.0954855815651839,1320.36619528555
0.0890056328519065,1320.37619528555
0.0813325307561851,1320.38619528555
0.0726445598191154,1320.39619528555
0.0642315856470414,1320.40619528555
0.0570940420196243,1320.41619528555
0.0521399080404098,1320.42619528555
0.0492531640489877,1320.43619528555
0.0484323482302995,1320.44619528555
0.0500232349424476,1320.45619528555
0.0530305875964448,1320.46619528555
0.0571367096614534,1320.47619528555
0.0605271287547489,1320.48619528555
0.0626305792671984,1320.49619528555
0.0637605423704284,1320.50619528555
0.0628642586712836,1320.51619528555
0.0602593159167075,1320.52619528555
0.0564920578873013,1320.53619528555
0.0513501334813969,1320.54619528555
0.0452741438959818,1320.55619528555
0.0379764361477111,1320.56619528555
0.029579176546044,1320.57619528555
0.0200520071050616,1320.58619528555
0.00907995981789465,1320.59619528555
-0.00192203773222886,1320.60619528555
-0.0130050053466962,1320.61619528555
-0.0236225056528718,1320.62619528555
-0.0343407638538922,1320.63619528555
-0.0454622665198057,1320.64619528555
-0.0569644138484505,1320.65619528555
-0.0680958139564181,1320.66619528555
-0.0791431455660863,1320.67619528555
-0.0901921932122083,1320.68619528555
-0.0999085106205728,1320.69619528555
-0.110850116245153,1320.70619528555
-0.12137245053822,1320.71619528555
-0.132437354142645,1320.72619528555
-0.143034816301874,1320.73619528555
-0.153206727719315,1320.74619528555
-0.162559830358286,1320.75619528555
-0.171216716342326,1320.76619528555
-0.180392808806419,1320.77619528555
-0.189052313160165,1320.78619528555
-0.197280553060133,1320.79619528555
-0.206163857762427,1320.80619528555
-0.214531530263238,1320.81619528555
-0.223038394923117,1320.82619528555
-0.232213731154266,1320.83619528555
-0.241580282725896,1320.84619528555
-0.250883746995956,1320.85619528555
-0.260998292393124,1320.86619528555
-0.27029698420002,1320.87619528555
-0.279419722538138,1320.88619528555
-0.287845088585314,1320.89619528555
-0.293484030597531,1320.90619528555
-0.294521185068244,1320.91619528555
-0.286733023157765,1320.92619528555
-0.268666292879853,1320.93619528555
-0.239284630140266,1320.94619528555
-0.199519678815547,1320.95619528555
-0.153306510564811,1320.96619528555
-0.103994865380212,1320.97619528555
-0.0562236930815931,1320.98619528555
-0.013826166322742,1320.99619528555
0.0204686666161336,1321.00619528555
0.0459697460971511,1321.01619528555
0.0618927227134942,1321.02619528555
0.0699410993154924,1321.03619528555
0.0713836074805128,1321.04619528555
0.0676955912330006,1321.05619528555
0.0621996114582504,1321.06619528555
0.0560037150589659,1321.07619528555
0.0498120904641103,1321.08619528555
0.0446960771894805,1321.09619528555
0.0411033852510798,1321.10619528555
0.0384294521046458,1321.11619528555
0.037521981664472,1321.12619528555
0.0387571524157035,1321.13619528555
0.0415000263533045,1321.14619528555
0.0445014772134158,1321.15619528555
0.047412348555046,1321.16619528555
0.0487870308780427,1321.17619528555
0.0477720385266916,1321.18619528555
0.044258613650672,1321.19619528555
0.0388639334634029,1321.20619528555
0.0318592235860797,1321.21619528555
0.0246563767621187,1321.22619528555
0.0176575906884176,1321.23619528555
0.0116960597543616,1321.24619528555
0.00710372599480261,1321.25619528555
0.00418520945599756,1321.26619528555
0.00242148934017402,1321.27619528555
0.00249763498652535,1321.28619528555
0.00442612822741117,1321.29619528555
0.00601687653756958,1321.30619528555
0.00729025340114271,1321.31619528555
0.00803388360245193,1321.32619528555
0.00751303599516078,1321.33619528555
0.00600171961514673,1321.34619528555
0.00308463661255845,1321.35619528555
-0.00112577223350845,1321.36619528555
-0.00697637566116887,1321.37619528555
-0.0138035718398937,1321.38619528555
-0.021655448358045,1321.39619528555
-0.0300858384821262,1321.40619528555
-0.0384702409231872,1321.41619528555
-0.0474008976485316,1321.42619528555
-0.0567094211091936,1321.43619528555
-0.066619732626498,1321.44619528555
-0.0760505048030186,1321.45619528555
-0.0857673291321111,1321.46619528555
-0.0947671618953058,1321.47619528555
-0.10393910596506,1321.48619528555
-0.113307015880132,1321.49619528555
-0.122741630262405,1321.50619528555
-0.132507503955648,1321.51619528555
-0.142260252726411,1321.52619528555
-0.15182606806906,1321.53619528555
-0.161564220865497,1321.54619528555
-0.171199532930602,1321.55619528555
-0.180871616035891,1321.56619528555
-0.191243737029065,1321.57619528555
-0.201236288120798,1321.58619528555
-0.210770868709069,1321.59619528555
-0.220234826852606,1321.60619528555
-0.229560122949768,1321.61619528555
-0.238863203129094,1321.62619528555
-0.247927977158561,1321.63619528555
-0.256501591602259,1321.64619528555
-0.265010913296306,1321.65619528555
-0.273617804788595,1321.66619528555
-0.282099958199652,1321.67619528555
-0.290372120570219,1321.68619528555
-0.298817106017074,1321.69619528555
-0.307619991852623,1321.70619528555
-0.316621033226403,1321.71619528555
-0.325370666070726,1321.72619528555
-0.334666580515774,1321.73619528555
-0.343543973364588,1321.74619528555
-0.351731993352341,1321.75619528555
-0.360289961422942,1321.76619528555
-0.368855663053281,1321.77619528555
-0.376942553842005,1321.78619528555
-0.384296634638668,1321.79619528555
-0.389405266902669,1321.80619528555
-0.389909915349732,1321.81619528555
-0.382692384606163,1321.82619528555
-0.365854993767098,1321.83619528555
-0.3383599582758,1321.84619528555
-0.302088462643132,1321.85619528555
-0.259757456556672,1321.86619528555
-0.214862785226835,1321.87619528555
-0.171953688173857,1321.88619528555
-0.134598848590681,1321.89619528555
-0.104727889783155,1321.90619528555
-0.083046515937982,1321.91619528555
-0.0692627314580823,1321.92619528555
-0.0620323816717676,1321.93619528555
-0.0605284452279754,1321.94619528555
-0.0626835167644572,1321.95619528555
-0.066665199832989,1321.96619528555
-0.0718485441248935,1321.97619528555
-0.077110808691121,1321.98619528555
-0.0817086955745306,1321.99619528555
-0.0849345273200469,1322.00619528555
-0.0862689780599027,1322.01619528555
-0.0858978981813398,1322.02619528555
-0.0840338044336086,1322.03619528555
-0.0807679261466245,1322.04619528555
-0.0765826696698024,1322.05619528555
-0.0723385214044672,1322.06619528555
-0.0687826792619491,1322.07619528555
-0.0668605055146901,1322.08619528555
-0.0676080279638945,1322.09619528555
-0.0706173662633526,1322.10619528555
-0.0753834876033887,1322.11619528555
-0.0811991875577261,1322.12619528555
-0.0868362514018682,1322.13619528555
-0.0919272537630251,1322.14619528555
-0.0965220172217843,1322.15619528555
-0.0995463757548049,1322.16619528555
-0.101034966439401,1322.17619528555
-0.100658189173231,1322.18619528555
-0.0984366648561423,1322.19619528555
-0.0958780151368814,1322.20619528555
-0.0939291651287509,1322.21619528555
-0.0934920007700371,1322.22619528555
-0.0942984249917346,1322.23619528555
-0.095795834496508,1322.24619528555
-0.0980889978733966,1322.25619528555
-0.100701052333357,1322.26619528555
-0.104190981267878,1322.27619528555
-0.108685901590739,1322.28619528555
-0.114542941802081,1322.29619528555
-0.121636212071786,1322.30619528555
-0.129770053358718,1322.31619528555
-0.138530848582003,1322.32619528555
-0.147893255258119,1322.33619528555
-0.156777189600078,1322.34619528555
-0.165101896859563,1322.35619528555
-0.17274176557104,1322.36619528555
-0.179694616968194,1322.37619528555
-0.187615645405331,1322.38619528555
-0.19562731517813,1322.39619528555
-0.203879131094014,1322.40619528555
-0.212680935997454,1322.41619528555
-0.221744038128948,1322.42619528555
-0.231124912254927,1322.43619528555
-0.24097983739628,1322.44619528555
-0.250336641606882,1322.45619528555
-0.259508998909233,1322.46619528555
-0.268404429285076,1322.47619528555
-0.276608771737725,1322.48619528555
-0.284439951942403,1322.49619528555
-0.292235620616747,1322.50619528555
-0.299539520285884,1322.51619528555
-0.306787229339897,1322.52619528555
-0.314203846663659,1322.53619528555
-0.321623481436584,1322.54619528555
-0.329227932947913,1322.55619528555
-0.33710381116376,1322.56619528555
-0.344465414206952,1322.57619528555
-0.351541149941433,1322.58619528555
-0.359237600450894,1322.59619528555
-0.367017184440809,1322.60619528555
-0.374646882516573,1322.61619528555
-0.382508785862633,1322.62619528555
-0.390421277244747,1322.63619528555
-0.397895903063606,1322.64619528555
-0.404327844616431,1322.65619528555
-0.410943317947123,1322.66619528555
-0.417765561182944,1322.67619528555
-0.424271714932025,1322.68619528555
-0.431289896590283,1322.69619528555
-0.438553663205634,1322.70619528555
-0.446145256167172,1322.71619528555
-0.453946780699165,1322.72619528555
-0.461780048444367,1322.73619528555
-0.469419316413174,1322.74619528555
-0.476756003337684,1322.75619528555
-0.482207950591663,1322.76619528555
-0.484514900698488,1322.77619528555
-0.480723849962395,1322.78619528555
-0.468267058026368,1322.79619528555
-0.446263012900093,1322.80619528555
-0.41444163729656,1322.81619528555
-0.375443574331232,1322.82619528555
-0.332360949640364,1322.83619528555
-0.28922681817873,1322.84619528555
-0.249355949748756,1322.85619528555
-0.215441895824863,1322.86619528555
-0.189907074548355,1322.87619528555
-0.172742612286489,1322.88619528555
-0.164095924146519,1322.89619528555
-0.162051756241837,1322.90619528555
-0.164212064412947,1322.91619528555
-0.169092481659887,1322.92619528555
-0.174696350055465,1322.93619528555
-0.18072409760536,1322.94619528555
-0.185969087021643,1322.95619528555
-0.190619719134389,1322.96619528555
-0.193900876431198,1322.97619528555
-0.194883328614212,1322.98619528555
-0.194296260822589,1322.99619528555
-0.192174423050296,1323.00619528555
-0.189148487457228,1323.01619528555
-0.185961427191204,1323.02619528555
-0.183354897949517,1323.03619528555
-0.182345311785307,1323.04619528555
-0.183484957332162,1323.05619528555
-0.186791957525339,1323.06619528555
-0.191004708347623,1323.07619528555
-0.195566518826902,1323.08619528555
-0.199006168444856,1323.09619528555
-0.200495064395457,1323.10619528555
-0.20007773158275,1323.11619528555
-0.198257823640065,1323.12619528555
-0.195398158987765,1323.13619528555
-0.191922133632718,1323.14619528555
-0.187829926330021,1323.15619528555
-0.183820596162196,1323.16619528555
-0.180335589483372,1323.17619528555
-0.177172172728626,1323.18619528555
-0.174910404630437,1323.19619528555
-0.174455049575808,1323.20619528555
-0.17549010493106,1323.21619528555
-0.177236198069844,1323.22619528555
-0.179929866496469,1323.23619528555
-0.183827287436547,1323.24619528555
-0.188673197791155,1323.25619528555
-0.193805053126482,1323.26619528555
-0.199237687311829,1323.27619528555
-0.204790286879214,1323.28619528555
-0.211127085830049,1323.29619528555
-0.218216176202176,1323.30619528555
-0.225454236284079,1323.31619528555
-0.232892038824913,1323.32619528555
-0.239770989251375,1323.33619528555
-0.246330193057009,1323.34619528555
-0.252356194695661,1323.35619528555
-0.258562241787409,1323.36619528555
-0.265047222218702,1323.37619528555
-0.271811213404412,1323.38619528555
-0.278908928546151,1323.39619528555
-0.28662018629771,1323.40619528555
-0.293702734039419,1323.41619528555
-0.300670216105258,1323.42619528555
-0.307223614207079,1323.43619528555
-0.313640691398132,1323.44619528555
-0.320038598622169,1323.45619528555
-0.326887793226084,1323.46619528555
-0.333414050045426,1323.47619528555
-0.339561081195516,1323.48619528555
-0.345307796493039,1323.49619528555
-0.351470846261366,1323.50619528555
-0.357331122350878,1323.51619528555
-0.363280671913439,1323.52619528555
-0.369095818968546,1323.53619528555
-0.374798096375206,1323.54619528555
-0.380117690020502,1323.55619528555
-0.385404237996766,1323.56619528555
-0.390888895076232,1323.57619528555
-0.396300461927281,1323.58619528555
-0.401386633810984,1323.59619528555
-0.406562341069092,1323.60619528555
-0.411654117050273,1323.61619528555
-0.41695407833348,1323.62619528555
-0.422476602794417,1323.63619528555
-0.427687173041274,1323.64619528555
-0.431854529907833,1323.65619528555
-0.433012737753434,1323.66619528555
-0.429009546189403,1323.67619528555
-0.416977034583793,1323.68619528555
-0.394935269770015,1323.69619528555
-0.363634252438675,1323.70619528555
-0.324194998997828,1323.71619528555
-0.280588050288552,1323.72619528555
-0.235697032193709,1323.73619528555
-0.193336379553495,1323.74619528555
-0.156806298999307,1323.75619528555
-0.127558034919216,1323.76619528555
-0.106000923813633,1323.77619528555
-0.0910492798766541,1323.78619528555
-0.0827016035644853,1323.79619528555
-0.080338951302927,1323.80619528555
-0.0824345513042485,1323.81619528555
-0.0880311208801996,1323.82619528555
-0.0956403467881109,1323.83619528555
-0.103110479827553,1323.84619528555
-0.109758627841373,1323.85619528555
-0.115005895825512,1323.86619528555
-0.117554733254534,1323.87619528555
-0.118733865346163,1323.88619528555
-0.118379058677657,1323.89619528555
-0.117238210045336,1323.90619528555
-0.116060025243281,1323.91619528555
-0.114390358393869,1323.92619528555
-0.113722672787948,1323.93619528555
-0.113987784775602,1323.94619528555
-0.115544842344809,1323.95619528555
-0.118199803482383,1323.96619528555
-0.120306602068914,1323.97619528555
-0.121866172722782,1323.98619528555
-0.122288883376368,1323.99619528555
-0.120793698198149,1324.00619528555
-0.116950643453853,1324.01619528555
-0.111551193773799,1324.02619528555
-0.104757379529167,1324.03619528555
-0.0973875257545614,1324.04619528555
-0.090485588299346,1324.05619528555
-0.084392320591437,1324.06619528555
-0.0802161987474412,1324.07619528555
-0.0771868325789752,1324.08619528555
-0.0758590349894056,1324.09619528555
-0.0759715358083173,1324.10619528555
-0.0773935223703302,1324.11619528555
-0.0802173445823453,1324.12619528555
-0.0837609041258045,1324.13619528555
-0.0883833991430007,1324.14619528555
-0.0936810320687601,1324.15619528555
-0.0993555561120422,1324.16619528555
-0.105063563297309,1324.17619528555
-0.111084412573066,1324.18619528555
-0.116834005175658,1324.19619528555
-0.123283531993741,1324.20619528555
-0.12973008535968,1324.21619528555
-0.136568592006262,1324.22619528555
-0.143185838730244,1324.23619528555
-0.15006075429973,1324.24619528555
-0.156575867843376,1324.25619528555
-0.163303632835215,1324.26619528555
-0.170413620826793,1324.27619528555
-0.177409530317874,1324.28619528555
-0.184449799479578,1324.29619528555
-0.191077089710915,1324.30619528555
-0.197501666636591,1324.31619528555
-0.203999315463453,1324.32619528555
-0.210505847180035,1324.33619528555
-0.216773807726718,1324.34619528555
-0.223138398075457,1324.35619528555
-0.229384186175514,1324.36619528555
-0.235582344001237,1324.37619528555
-0.242259420325226,1324.38619528555
-0.248731789622137,1324.39619528555
-0.255441701517764,1324.40619528555
-0.262343735069652,1324.41619528555
-0.269188711635897,1324.42619528555
-0.275564435528715,1324.43619528555
-0.281346610839876,1324.44619528555
-0.286450217609501,1324.45619528555
-0.291657452772464,1324.46619528555
-0.296563619545114,1324.47619528555
-0.302311213827518,1324.48619528555
-0.308566830736135,1324.49619528555
-0.315006514572423,1324.50619528555
-0.321105685216251,1324.51619528555
-0.325825873784013,1324.52619528555
-0.327645736815997,1324.53619528555
-0.322919079330344,1324.54619528555
-0.308536741793195,1324.55619528555
-0.282691360726327,1324.56619528555
-0.245666264528296,1324.57619528555
-0.19944110588765,1324.58619528555
-0.147915303125349,1324.59619528555
-0.0943782961423682,1324.60619528555
-0.0434481779781096,1324.61619528555
0.00144588800872964,1324.62619528555
0.0380479671300546,1324.63619528555
0.0653884137107226,1324.64619528555
0.0835455425779235,1324.65619528555
0.0939002087357308,1324.66619528555
0.0981069925262587,1324.67619528555
0.0974853184735912,1324.68619528555
0.0947318298625231,1324.69619528555
0.0909782722823229,1324.70619528555
0.0875241065177512,1324.71619528555
0.0848660238856814,1324.72619528555
0.0831185338160971,1324.73619528555
0.0833766288902502,1324.74619528555
0.0860302191427336,1324.75619528555
0.0908661624988645,1324.76619528555
0.0974833660457207,1324.77619528555
0.104780837592345,1324.78619528555
0.111633460285519,1324.79619528555
0.117130855863136,1324.80619528555
0.120214959601078,1324.81619528555
0.120749949667176,1324.82619528555
0.119217735986873,1324.83619528555
0.115489261570564,1324.84619528555
0.111718387212631,1324.85619528555
0.108175459887448,1324.86619528555
0.106035822976983,1324.87619528555
0.105856561651194,1324.88619528555
0.107416751922904,1324.89619528555
0.1106089679039,1324.90619528555
0.114985081421855,1324.91619528555
0.119529491371307,1324.92619528555
0.124237038541492,1324.93619528555
0.128661668650308,1324.94619528555
0.132457948482334,1324.95619528555
0.135673505630527,1324.96619528555
0.138355007958006,1324.97619528555
0.139437149212654,1324.98619528555
0.139069235571151,1324.99619528555
0.136924503984281,1325.00619528555
0.133221978840364,1325.01619528555
0.128530329258692,1325.02619528555
0.122372674651864,1325.03619528555
0.115532315117118,1325.04619528555
0.108139661946212,1325.05619528555
0.100016657129187,1325.06619528555
0.0913280155118116,1325.07619528555
0.0826843544851035,1325.08619528555
0.0738007337614979,1325.09619528555
0.0651748288145658,1325.10619528555
0.057064847583169,1325.11619528555
0.0488546162435443,1325.12619528555
0.0410428668335583,1325.13619528555
0.0323871651699576,1325.14619528555
0.0232593606230706,1325.15619528555
0.013705794810429,1325.16619528555
0.00420128754712362,1325.17619528555
-0.00516244213070919,1325.18619528555
-0.0137473371887013,1325.19619528555
-0.0223661178068293,1325.20619528555
-0.0306679547114322,1325.21619528555
-0.0391504382594068,1325.22619528555
-0.0475143874406991,1325.23619528555
-0.0561257088439556,1325.24619528555
-0.064663170549957,1325.25619528555
-0.0734630747494126,1325.26619528555
-0.0819218024110797,1325.27619528555
-0.0899994502965652,1325.28619528555
-0.0978690016301355,1325.29619528555
-0.105738027018127,1325.30619528555
-0.113173893171195,1325.31619528555
-0.120388225662184,1325.32619528555
-0.127475919768838,1325.33619528555
-0.134293498375931,1325.34619528555
-0.141558288063083,1325.35619528555
-0.149443282645135,1325.36619528555
-0.15796874807842,1325.37619528555
-0.166394964005763,1325.38619528555
-0.174778468104399,1325.39619528555
-0.18268243642178,1325.40619528555
-0.190454072371683,1325.41619528555
-0.197410757630459,1325.42619528555
-0.203735563765449,1325.43619528555
-0.208704831959325,1325.44619528555
-0.210650534379414,1325.45619528555
-0.205947517786458,1325.46619528555
-0.192282076915056,1325.47619528555
-0.167159148332793,1325.48619528555
-0.130590429322699,1325.49619528555
-0.0828930897365235,1325.50619528555
-0.0284905887418364,1325.51619528555
0.0294876504479371,1325.52619528555
0.0863888778090044,1325.53619528555
0.137151340658356,1325.54619528555
0.179484166724185,1325.55619528555
0.211137078418972,1325.56619528555
0.232259070409868,1325.57619528555
0.244021254782885,1325.58619528555
0.248000311597851,1325.59619528555
0.247321117986207,1325.60619528555
0.243661108211497,1325.61619528555
0.239052731036562,1325.62619528555
0.235007216419515,1325.63619528555
0.231581512305941,1325.64619528555
0.22960212839042,1325.65619528555
0.228515177884895,1325.66619528555
0.229402352543831,1325.67619528555
0.231663944152409,1325.68619528555
0.235727973461008,1325.69619528555
0.241228103264574,1325.70619528555
0.247575978351072,1325.71619528555
0.253179789848288,1325.72619528555
0.256579285865784,1325.73619528555
0.25789678683858,1325.74619528555
0.256944706412064,1325.75619528555
0.254158319298755,1325.76619528555
0.250167102868174,1325.77619528555
0.246265640179571,1325.78619528555
0.243072396292274,1325.79619528555
0.241366708949448,1325.80619528555
0.240917120363316,1325.81619528555
0.241680771833067,1325.82619528555
0.244480183175655,1325.83619528555
0.247911251174141,1325.84619528555
0.251829423109872,1325.85619528555
0.255692623087391,1325.86619528555
0.258643941432086,1325.87619528555
0.260812926482997,1325.88619528555
0.26116884397778,1325.89619528555
0.259908128959944,1325.90619528555
0.256511605913185,1325.91619528555
0.251992463440285,1325.92619528555
0.246423903262604,1325.93619528555
0.23993513272061,1325.94619528555
0.232039394717591,1325.95619528555
0.223926353808421,1325.96619528555
0.215153755857622,1325.97619528555
0.206132651504097,1325.98619528555
0.196765180734956,1325.99619528555
0.1870628215935,1326.00619528555
0.176903466033381,1326.01619528555
0.166082905172558,1326.02619528555
0.155314512313513,1326.03619528555
0.144062393020804,1326.04619528555
0.133545389724913,1326.05619528555
0.123576203794175,1326.06619528555
0.113341652960188,1326.07619528555
0.103360863159132,1326.08619528555
0.0927553793840808,1326.09619528555
0.0823663626946318,1326.10619528555
0.0721358075281594,1326.11619528555
0.0619864008390477,1326.12619528555
0.0519522990836158,1326.13619528555
0.0417834592797585,1326.14619528555
0.0319235654502314,1326.15619528555
0.0221141688542819,1326.16619528555
0.0123594198845482,1326.17619528555
0.00252595506151858,1326.18619528555
-0.00647636093710133,1326.19619528555
-0.0155134523444948,1326.20619528555
-0.0247858503693176,1326.21619528555
-0.0334610970661374,1326.22619528555
-0.0423644773487322,1326.23619528555
-0.0502708731822769,1326.24619528555
-0.0584563925367506,1326.25619528555
-0.0665979914727472,1326.26619528555
-0.0746015309795259,1326.27619528555
-0.0827654625762718,1326.28619528555
-0.0905398680321931,1326.29619528555
-0.0986599474061512,1326.30619528555
-0.106866598630997,1326.31619528555
-0.115195836773872,1326.32619528555
-0.12355860339603,1326.33619528555
-0.130600232154528,1326.34619528555
-0.134341903585342,1326.35619528555
-0.131501211055975,1326.36619528555
-0.118848534186285,1326.37619528555
-0.0951529557031685,1326.38619528555
-0.0592313125848064,1326.39619528555
-0.0130575553737686,1326.40619528555
0.0398889531036859,1326.41619528555
0.0957955431674679,1326.42619528555
0.150546703218636,1326.43619528555
0.19965802812727,1326.44619528555
0.240052615182249,1326.45619528555
0.269599290126509,1326.46619528555
0.288244993565984,1326.47619528555
0.298153300907202,1326.48619528555
0.300981020987896,1326.49619528555
0.298611190535264,1326.50619528555
0.293704143004583,1326.51619528555
0.287184654300273,1326.52619528555
0.28079045331962,1326.53619528555
0.274872361900463,1326.54619528555
0.269868135946033,1326.55619528555
0.266072470298788,1326.56619528555
0.264308310922944,1326.57619528555
0.263700712808466,1326.58619528555
0.264069634815489,1326.59619528555
0.264829510504411,1326.60619528555
0.265387039944717,1326.61619528555
0.265373577205501,1326.62619528555
0.263683018524042,1326.63619528555
0.25998834806763,1326.64619528555
0.254757090759751,1326.65619528555
0.248631391377625,1326.66619528555
0.243107543208646,1326.67619528555
0.238964396621581,1326.68619528555
0.236786847517951,1326.69619528555
0.236460781290205,1326.70619528555
0.237774541180853,1326.71619528555
0.240549908064186,1326.72619528555
0.243928003011655,1326.73619528555
0.248760385085697,1326.74619528555
0.253807250907782,1326.75619528555
0.257918583315525,1326.76619528555
0.260908508116936,1326.77619528555
0.26183657216035,1326.78619528555
0.26101987705287,1326.79619528555
0.258402955177716,1326.80619528555
0.254686131679464,1326.81619528555
0.249569161813636,1326.82619528555
0.243279582854654,1326.83619528555
0.23615329600491,1326.84619528555
0.227851938409408,1326.85619528555
0.218581453720723,1326.86619528555
0.208946978444522,1326.87619528555
0.199022997916353,1326.88619528555
0.188770047989739,1326.89619528555
0.17899762961879,1326.90619528555
0.168763426800837,1326.91619528555
0.158559160756915,1326.92619528555
0.148358649656879,1326.93619528555
0.138390509447974,1326.94619528555
0.127877253525024,1326.95619528555
0.117104589135664,1326.96619528555
0.106729434978713,1326.97619528555
0.0963430846852143,1326.98619528555
0.0860607460039872,1326.99619528555
0.0762038561086982,1327.00619528555
0.0658225175672116,1327.01619528555
0.0563178298250752,1327.02619528555
0.047139104993451,1327.03619528555
0.0382294672538254,1327.04619528555
0.0294207629602895,1327.05619528555
0.0209819377877332,1327.06619528555
0.0124667747234373,1327.07619528555
0.00377922188244703,1327.08619528555
-0.00429605075301384,1327.09619528555
-0.0130542487902511,1327.10619528555
-0.0216089698855629,1327.11619528555
-0.0304910858869195,1327.12619528555
-0.0391119838108895,1327.13619528555
-0.0471091243846695,1327.14619528555
-0.0524069696079315,1327.15619528555
-0.052940353774529,1327.16619528555
-0.0447092155151186,1327.17619528555
-0.0255684167193173,1327.18619528555
0.00510361290780927,1327.19619528555
0.0464582906525271,1327.20619528555
0.0961981335362074,1327.21619528555
0.15084028589217,1327.22619528555
0.205792442132192,1327.23619528555
0.256624377373283,1327.24619528555
0.299770461116702,1327.25619528555
0.333386265207208,1327.26619528555
0.356891538174792,1327.27619528555
0.371332257340179,1327.28619528555
0.377726738761379,1327.29619528555
0.378569539753666,1327.30619528555
0.376195070105229,1327.31619528555
0.371553578498374,1327.32619528555
0.366030946203293,1327.33619528555
0.359971858014717,1327.34619528555
0.354121052052049,1327.35619528555
0.348934333290114,1327.36619528555
0.344398269589501,1327.37619528555
0.34158385122307,1327.38619528555
0.340026461401319,1327.39619528555
0.340185485250116,1327.40619528555
0.340768702876095,1327.41619528555
0.340885770707272,1327.42619528555
0.33971220696773,1327.43619528555
0.335772588071515,1327.44619528555
0.329470472028827,1327.45619528555
0.321244299570922,1327.46619528555
0.312391479093828,1327.47619528555
0.304705930017224,1327.48619528555
0.29878350663033,1327.49619528555
0.295737180384522,1327.50619528555
0.294657691640263,1327.51619528555
0.295804124088632,1327.52619528555
0.298361502996406,1327.53619528555
0.302233159572716,1327.54619528555
0.306692210682913,1327.55619528555
0.310404183081633,1327.56619528555
0.313609094984088,1327.57619528555
0.314720679121466,1327.58619528555
0.314110234977609,1327.59619528555
0.31109690970814,1327.60619528555
0.306239204619207,1327.61619528555
0.299879130552363,1327.62619528555
0.292816904644593,1327.63619528555
0.284636119016486,1327.64619528555
0.27540807188163,1327.65619528555
0.265696808424418,1327.66619528555
0.25588945299005,1327.67619528555
0.245533299168533,1327.68619528555
0.234876401400256,1327.69619528555
0.224260521448814,1327.70619528555
0.213763791932027,1327.71619528555
0.203571774972222,1327.72619528555
0.19375617006943,1327.73619528555
0.183834057091499,1327.74619528555
0.173467741768576,1327.75619528555
0.163147784339355,1327.76619528555
0.152602859859685,1327.77619528555
0.142059911043545,1327.78619528555
0.132034023649995,1327.79619528555
0.12221263450211,1327.80619528555
0.11210807358937,1327.81619528555
0.10247974024377,1327.82619528555
0.0924216049446804,1327.83619528555
0.0827812326629882,1327.84619528555
0.0731583615923948,1327.85619528555
0.0631381384876234,1327.86619528555
0.0533592300120885,1327.87619528555
0.0439400758126152,1327.88619528555
0.035429641934724,1327.89619528555
0.0291072294863352,1327.90619528555
0.0273284931005402,1327.91619528555
0.0330476624335723,1327.92619528555
0.049175054578216,1327.93619528555
0.0778146818903322,1327.94619528555
0.118097902824043,1327.95619528555
0.169527418595374,1327.96619528555
0.227670133522308,1327.97619528555
0.2879572660507,1327.98619528555
0.344548711952065,1327.99619528555
0.394588623131351,1328.00619528555
0.433993828097718,1328.01619528555
0.462585747045582,1328.02619528555
0.480668408041759,1328.03619528555
0.49015564133868,1328.04619528555
0.49423907442953,1328.05619528555
0.494565347311088,1328.06619528555
0.492323017420886,1328.07619528555
0.489227688056956,1328.08619528555
0.485756366169497,1328.09619528555
0.482551967342021,1328.10619528555
0.479700813352423,1328.11619528555
0.4777496007303,1328.12619528555
0.477276000386575,1328.13619528555
0.477704292475729,1328.14619528555
0.478861239168307,1328.15619528555
0.479277487905901,1328.16619528555
0.478562537695918,1328.17619528555
0.476200558635949,1328.18619528555
0.472309584081646,1328.19619528555
0.465636162260831,1328.20619528555
0.457453498825572,1328.21619528555
0.448610769357825,1328.22619528555
0.439295113828534,1328.23619528555
0.431040868917003,1328.24619528555
0.424195375091951,1328.25619528555
0.419091291569686,1328.26619528555
0.415780758935312,1328.27619528555
0.414294394633337,1328.28619528555
0.414828820667423,1328.29619528555
0.416391730428987,1328.30619528555
0.418130930355027,1328.31619528555
0.419472512772924,1328.32619528555
0.420270890166489,1328.33619528555
0.419067896469986,1328.34619528555
0.416485437417397,1328.35619528555
0.41263162307223,1328.36619528555
0.406742449630859,1328.37619528555
0.400003287527707,1328.38619528555
0.39158454777259,1328.39619528555
0.381963745054653,1328.40619528555
0.371535603343465,1328.41619528555
0.360202164303823,1328.42619528555
0.348757722323722,1328.43619528555
0.336578910626516,1328.44619528555
0.324360956084653,1328.45619528555
0.311633563649753,1328.46619528555
0.299060161454391,1328.47619528555
0.286373571367806,1328.48619528555
0.273653666205935,1328.49619528555
0.261202091353155,1328.50619528555
0.248786524297456,1328.51619528555
0.235991771697854,1328.52619528555
0.223740570062407,1328.53619528555
0.212224223764633,1328.54619528555
0.200484020143868,1328.55619528555
0.188524090221613,1328.56619528555
0.176177417139605,1328.57619528555
0.16371324747826,1328.58619528555
0.150897390737564,1328.59619528555
0.138331645360045,1328.60619528555
0.125911289093791,1328.61619528555
0.114718069744825,1328.62619528555
0.107056796827268,1328.63619528555
0.104599571944845,1328.64619528555
0.110551388638815,1328.65619528555
0.128204738997013,1328.66619528555
0.158272354230713,1328.67619528555
0.201405460235871,1328.68619528555
0.254324249170944,1328.69619528555
0.313385940043161,1328.70619528555
0.373236368322849,1328.71619528555
0.42859706920309,1328.72619528555
0.475434195942272,1328.73619528555
0.511341502153137,1328.74619528555
0.535833659313348,1328.75619528555
0.551375783444511,1328.76619528555
0.558846185900372,1328.77619528555
0.560413255429455,1328.78619528555
0.558307466279935,1328.79619528555
0.554218475241454,1328.80619528555
0.549330413025954,1328.81619528555
0.544939101083692,1328.82619528555
0.541513745810534,1328.83619528555
0.53997826495261,1328.84619528555
0.539160453882008,1328.85619528555
0.539471057455341,1328.86619528555
0.539803327291838,1328.87619528555
0.539792428970607,1328.88619528555
0.538764841074162,1328.89619528555
0.536218513389958,1328.90619528555
0.53150446954471,1328.91619528555
0.523753186135262,1328.92619528555
0.513858394118932,1328.93619528555
0.502356882651343,1328.94619528555
0.49063366959275,1328.95619528555
0.478819688305708,1328.96619528555
0.468405261394642,1328.97619528555
0.459795961374785,1328.98619528555
0.453630186179998,1328.99619528555
0.449539137764052,1329.00619528555
0.447456723399246,1329.01619528555
0.447562622574714,1329.02619528555
0.448957982786284,1329.03619528555
0.45093374994016,1329.04619528555
0.452051881667645,1329.05619528555
0.451516370545285,1329.06619528555
0.449109566058981,1329.07619528555
0.443683608646966,1329.08619528555
0.436664320575683,1329.09619528555
0.427855726204036,1329.10619528555
0.417642768367038,1329.11619528555
0.406807231794498,1329.12619528555
0.395697905291879,1329.13619528555
0.383986186426137,1329.14619528555
0.371780614942024,1329.15619528555
0.359740045661702,1329.16619528555
0.34675984156225,1329.17619528555
0.333217200779575,1329.18619528555
0.31871669726231,1329.19619528555
0.304333898614513,1329.20619528555
0.290354001926325,1329.21619528555
0.276450578811733,1329.22619528555
0.262914595257357,1329.23619528555
0.249187149585122,1329.24619528555
0.235568338233279,1329.25619528555
0.221361570241152,1329.26619528555
0.2072065049204,1329.27619528555
0.19252843294323,1329.28619528555
0.178437148231063,1329.29619528555
0.164640098769873,1329.30619528555
0.15107889680977,1329.31619528555
0.137887874787907,1329.32619528555
0.125333181892818,1329.33619528555
0.113622073547825,1329.34619528555
0.103816457147306,1329.35619528555
0.0984212546795307,1329.36619528555
0.100863573712955,1329.37619528555
0.114472984064914,1329.38619528555
0.1414437858004,1329.39619528555
0.182083988920252,1329.40619528555
0.233546282756758,1329.41619528555
0.29212822846897,1329.42619528555
0.352412535838487,1329.43619528555
0.408769061272194,1329.44619528555
0.456181256207139,1329.45619528555
0.493347024717397,1329.46619528555
0.518533579982891,1329.47619528555
0.533675441346586,1329.48619528555
0.539699853318884,1329.49619528555
0.539358023447255,1329.50619528555
0.535141398392951,1329.51619528555
0.529280320792968,1329.52619528555
0.522811703593271,1329.53619528555
0.516914568215344,1329.54619528555
0.511858321750335,1329.55619528555
0.507889340895318,1329.56619528555
0.504975552992619,1329.57619528555
0.502886328699875,1329.58619528555
0.501217495691166,1329.59619528555
0.500128956733854,1329.60619528555
0.498830279738031,1329.61619528555
0.496044683651016,1329.62619528555
0.490712706586686,1329.63619528555
0.482434605929837,1329.64619528555
0.471074376475081,1329.65619528555
0.457632068885972,1329.66619528555
0.443979482649766,1329.67619528555
0.430627105539611,1329.68619528555
0.418922949335365,1329.69619528555
0.409492212689581,1329.70619528555
0.401987597325107,1329.71619528555
0.396635562935243,1329.72619528555
0.392746281449477,1329.73619528555
0.390313877531902,1329.74619528555
0.388442005886109,1329.75619528555
0.386357011919989,1329.76619528555
0.383845168450494,1329.77619528555
0.380624000738281,1329.78619528555
0.375708808859747,1329.79619528555
0.369460288709251,1329.80619528555
0.361849561030659,1329.81619528555
0.352529671679051,1329.82619528555
0.341559346061929,1329.83619528555
0.329518866798492,1329.84619528555
0.316334873126442,1329.85619528555
0.302305218933644,1329.86619528555
0.288295454727473,1329.87619528555
0.273911766760844,1329.88619528555
0.259496158636068,1329.89619528555
0.244731277753058,1329.90619528555
0.230086889070214,1329.91619528555
0.215124343298317,1329.92619528555
0.199929005503707,1329.93619528555
0.184006343875603,1329.94619528555
0.168141660185963,1329.95619528555
0.152556425908791,1329.96619528555
0.137227350515291,1329.97619528555
0.122560019440129,1329.98619528555
0.108631511504042,1329.99619528555
0.0950361656920805,1330.00619528555
0.0816833553868526,1330.01619528555
0.0677591642250545,1330.02619528555
0.0541129205211742,1330.03619528555
0.0405872392850841,1330.04619528555
0.0269248683663315,1330.05619528555
0.0140486069062897,1330.06619528555
0.00168957589213251,1330.07619528555
-0.0103506462668073,1330.08619528555
-0.0221297605445701,1330.09619528555
-0.0325197988817044,1330.10619528555
-0.0401080775379739,1330.11619528555
-0.0411256090074393,1330.12619528555
-0.0326007184600212,1330.13619528555
-0.0122301885275328,1330.14619528555
0.0202883647411881,1330.15619528555
0.063034964766997,1330.16619528555
0.112188394522937,1330.17619528555
0.1643329500879,1330.18619528555
0.214066983663705,1330.19619528555
0.257909357467916,1330.20619528555
0.292239429663621,1330.21619528555
0.315704259325641,1330.22619528555
0.328094483522135,1330.23619528555
0.33076137657617,1330.24619528555
0.326239001956537,1330.25619528555
0.317611425826361,1330.26619528555
0.306910123199988,1330.27619528555
0.296719176144282,1330.28619528555
0.287446370748745,1330.29619528555
0.279712013990766,1330.30619528555
0.273103674008438,1330.31619528555
0.268457707787841,1330.32619528555
0.265327551580412,1330.33619528555
0.263551553346224,1330.34619528555
0.262698642499818,1330.35619528555
0.26100834269771,1330.36619528555
0.257603655126031,1330.37619528555
0.251747925515387,1330.38619528555
0.243429794862733,1330.39619528555
0.233042453258994,1330.40619528555
0.222586496541645,1330.41619528555
0.212171691894784,1330.42619528555
0.203075595797584,1330.43619528555
0.194832414520746,1330.44619528555
0.188454081377983,1330.45619528555
0.184131692100793,1330.46619528555
0.181564130199982,1330.47619528555
0.180538046957493,1330.48619528555
0.180426829078452,1330.49619528555
0.18064651660993,1330.50619528555
0.18083289525639,1330.51619528555
0.179933898552095,1330.52619528555
0.177781347286224,1330.53619528555
0.173259991565281,1330.54619528555
0.166523959647406,1330.55619528555
0.157744962329731,1330.56619528555
0.147268913044178,1330.57619528555
0.135533740330899,1330.58619528555
0.12372070361841,1330.59619528555
0.111785640622395,1330.60619528555
0.100361458669232,1330.61619528555
0.0893414196513653,1330.62619528555
0.0785876444842015,1330.63619528555
0.0666344302482729,1330.64619528555
0.0546362578554001,1330.65619528555
0.04263203822189,1330.66619528555
0.0304998684342041,1330.67619528555
0.0188279523329056,1330.68619528555
0.00632668313586285,1330.69619528555
-0.00611716939782211,1330.70619528555
-0.0187986713918969,1330.71619528555
-0.0314935646127296,1330.72619528555
-0.043478072223151,1330.73619528555
-0.0546728023718382,1330.74619528555
-0.0653064452728947,1330.75619528555
-0.0758800798070597,1330.76619528555
-0.0867565695754134,1330.77619528555
-0.0977719521836723,1330.78619528555
-0.109474626761872,1330.79619528555
-0.121292937898119,1330.80619528555
-0.132942544554332,1330.81619528555
-0.143832527206036,1330.82619528555
-0.15365520347563,1330.83619528555
-0.161875953654522,1330.84619528555
-0.16595163156779,1330.85619528555
-0.163133407499644,1330.86619528555
-0.150577355381292,1330.87619528555
-0.127124320915056,1330.88619528555
-0.0922833076185605,1330.89619528555
-0.0491350905785129,1330.90619528555
-0.00130121065588678,1330.91619528555
0.0469489768364366,1330.92619528555
0.0915904913925749,1330.93619528555
0.128581864355513,1330.94619528555
0.156072103199461,1330.95619528555
0.173786651090212,1330.96619528555
0.182262743411967,1330.97619528555
0.183635027402488,1330.98619528555
0.180289939994431,1330.99619528555
0.174001713751228,1331.00619528555
0.166795544582337,1331.01619528555
0.159406208705272,1331.02619528555
0.15346658072643,1331.03619528555
0.149215735643272,1331.04619528555
0.146095295807326,1331.05619528555
0.144626194131555,1331.06619528555
0.144417759627481,1331.07619528555
0.145274631205898,1331.08619528555
0.146420464453193,1331.09619528555
0.147210185724699,1331.10619528555
0.145856541746696,1331.11619528555
0.141288448910398,1331.12619528555
0.133854679851001,1331.13619528555
0.124460329815172,1331.14619528555
0.114395173084431,1331.15619528555
0.105102163013038,1331.16619528555
0.097375251181133,1331.17619528555
0.0915878034796411,1331.18619528555
0.0876445134694769,1331.19619528555
0.085417682579436,1331.20619528555
0.0845359705436302,1331.21619528555
0.0847120222484187,1331.22619528555
0.0860201561196513,1331.23619528555
0.0870425536892993,1331.24619528555
0.0885123334247493,1331.25619528555
0.088350853543337,1331.26619528555
0.0861668199460452,1331.27619528555
0.0820136697001026,1331.28619528555
0.0764898166132517,1331.29619528555
0.0693917239351069,1331.30619528555
0.0615733545387153,1331.31619528555
0.0527363068870876,1331.32619528555
0.0428409531872697,1331.33619528555
0.0324039488590519,1331.34619528555
0.0212047880625379,1331.35619528555
0.0102390816276493,1331.36619528555
-0.00102709139155919,1331.37619528555
-0.0120907481979805,1331.38619528555
-0.0224355130877229,1331.39619528555
-0.0333382161120065,1331.40619528555
-0.0441226830452753,1331.41619528555
-0.0553422763814089,1331.42619528555
-0.0666759178501481,1331.43619528555
-0.0783182489289563,1331.44619528555
-0.0900483378786043,1331.45619528555
-0.101392462406601,1331.46619528555
-0.113706720699633,1331.47619528555
-0.125706414606698,1331.48619528555
-0.137392935192892,1331.49619528555
-0.148362311847159,1331.50619528555
-0.158157582269472,1331.51619528555
-0.166644624038416,1331.52619528555
-0.174662717762946,1331.53619528555
-0.182043451562416,1331.54619528555
-0.189493657237987,1331.55619528555
-0.197396059463058,1331.56619528555
-0.205661078120833,1331.57619528555
-0.214609683173351,1331.58619528555
-0.224118891075571,1331.59619528555
-0.234261604361324,1331.60619528555
-0.244774539506802,1331.61619528555
-0.254509202798461,1331.62619528555
-0.262609536610047,1331.63619528555
-0.266666802184805,1331.64619528555
-0.263230488717361,1331.65619528555
-0.249295397789146,1331.66619528555
-0.223874753993872,1331.67619528555
-0.186974675234448,1331.68619528555
-0.140842669739907,1331.69619528555
-0.0900251305782053,1331.70619528555
-0.0384070118728361,1331.71619528555
0.00848909737385367,1331.72619528555
0.0483417907868386,1331.73619528555
0.0788085499939512,1331.74619528555
0.0992854795385921,1331.75619528555
0.110271589259182,1331.76619528555
0.114510295172883,1331.77619528555
0.113440744244131,1331.78619528555
0.109379374388064,1331.79619528555
0.104473340472209,1331.80619528555
0.0993917673251823,1331.81619528555
0.0957200847413217,1331.82619528555
0.0940579835419925,1331.83619528555
0.0942278974331899,1331.84619528555
0.0956679938092853,1331.85619528555
0.0986493372115501,1331.86619528555
0.102521531055556,1331.87619528555
0.107065524619305,1331.88619528555
0.111111124014896,1331.89619528555
0.113694717734811,1331.90619528555
0.113330984697861,1331.91619528555
0.110243811579542,1331.92619528555
0.104550367082849,1331.93619528555
0.096589466250082,1331.94619528555
0.0887019057139835,1331.95619528555
0.0812900869356042,1331.96619528555
0.0757526401902286,1331.97619528555
0.0715285783975686,1331.98619528555
0.0695187395240167,1331.99619528555
0.0688637826378763,1332.00619528555
0.0692742227803222,1332.01619528555
0.0703790662213462,1332.02619528555
0.0715859914187066,1332.03619528555
0.0726611424405926,1332.04619528555
0.0732207737990968,1332.05619528555
0.0733138084548786,1332.06619528555
0.0722408377513377,1332.07619528555
0.0700621734144647,1332.08619528555
0.0662226375880563,1332.09619528555
0.0606277978691594,1332.10619528555
0.0534691535774303,1332.11619528555
0.0456083888612013,1332.12619528555
0.0369412080355796,1332.13619528555
0.0281900219421641,1332.14619528555
0.0190012659369393,1332.15619528555
0.00920490244836137,1332.16619528555
-0.000705373513134572,1332.17619528555
-0.0110766303497424,1332.18619528555
-0.0213814466246731,1332.19619528555
-0.0320332594149057,1332.20619528555
-0.0427617024381411,1332.21619528555
-0.0536294535589762,1332.22619528555
-0.0645767656368871,1332.23619528555
-0.0755393107109555,1332.24619528555
-0.0856525185345505,1332.25619528555
-0.0957361264521976,1332.26619528555
-0.105125171509522,1332.27619528555
-0.113984159003025,1332.28619528555
-0.122717075586291,1332.29619528555
-0.131539989543675,1332.30619528555
-0.140580859953785,1332.31619528555
-0.149264461884016,1332.32619528555
-0.1591601537768,1332.33619528555
-0.169219833013151,1332.34619528555
-0.1804075727048,1332.35619528555
-0.190829734917504,1332.36619528555
-0.201046166849897,1332.37619528555
-0.210232694414907,1332.38619528555
-0.218997180019706,1332.39619528555
-0.226948463680318,1332.40619528555
-0.2343129946849,1332.41619528555
-0.241565895509269,1332.42619528555
-0.248603048573222,1332.43619528555
-0.255702370171376,1332.44619528555
-0.263143271993322,1332.45619528555
-0.271012371739905,1332.46619528555
-0.279489131753353,1332.47619528555
-0.288446849321798,1332.48619528555
-0.297783889353572,1332.49619528555
-0.307266022432413,1332.50619528555
-0.316463055887126,1332.51619528555
-0.325542982892148,1332.52619528555
-0.333099488960752,1332.53619528555
-0.337256562748467,1332.54619528555
-0.335089640389336,1332.55619528555
-0.323363378699779,1332.56619528555
-0.29986518465731,1332.57619528555
-0.263818123884956,1332.58619528555
-0.216897210222193,1332.59619528555
-0.162547800813971,1332.60619528555
-0.105137184267527,1332.61619528555
-0.0492916943015728,1332.62619528555
0.000592509960494009,1332.63619528555
0.0411003544517979,1332.64619528555
0.0703938366553613,1332.65619528555
0.0886187111402313,1332.66619528555
0.0979197162214867,1332.67619528555
0.100186464930706,1332.68619528555
0.0979492234779312,1332.69619528555
0.093989814708818,1332.70619528555
0.0895267380150511,1332.71619528555
0.0856802652939982,1332.72619528555
0.0832351760204741,1332.73619528555
0.0826920128084443,1332.74619528555
0.0844394898265184,1332.75619528555
0.0884777846447976,1332.76619528555
0.0938227155520322,1332.77619528555
0.100742460485516,1332.78619528555
0.107872916216919,1332.79619528555
0.11363699851305,1332.80619528555
0.117101444621296,1332.81619528555
0.118031539079409,1332.82619528555
0.116346896562101,1332.83619528555
0.11288189421992,1332.84619528555
0.108015333838257,1332.85619528555
0.10262711935547,1332.86619528555
0.0974619568804237,1332.87619528555
0.0940001187443947,1332.88619528555
0.0926283440018256,1332.89619528555
0.0934207688619192,1332.90619528555
0.0964934983588109,1332.91619528555
0.101286816498941,1332.92619528555
0.105983741689783,1332.93619528555
0.110481614375634,1332.94619528555
0.113936946202123,1332.95619528555
0.115721398895119,1332.96619528555
0.116263192364752,1332.97619528555
0.11538042808112,1332.98619528555
0.112611459235479,1332.99619528555
0.108231327088003,1333.00619528555
0.102034065106333,1333.01619528555
0.0949765131088574,1333.02619528555
0.0876228727690253,1333.03619528555
0.0798858830688165,1333.04619528555
0.071833861238924,1333.05619528555
0.0636006571761427,1333.06619528555
0.0544414138455382,1333.07619528555
0.0454743625766629,1333.08619528555
0.0357666557316236,1333.09619528555
0.0255935498607762,1333.10619528555
0.0150388141437482,1333.11619528555
0.00408124132971338,1333.12619528555
-0.00664793736598284,1333.13619528555
-0.0174990259911471,1333.14619528555
-0.0272450336892567,1333.15619528555
-0.0369727444549564,1333.16619528555
-0.0462091070601829,1333.17619528555
-0.054929026729058,1333.18619528555
-0.0639113189365755,1333.19619528555
-0.0727514751780009,1333.20619528555
-0.0814656709991453,1333.21619528555
-0.0896985654863462,1333.22619528555
-0.0978739677421924,1333.23619528555
-0.106019298176805,1333.24619528555
-0.114546605716772,1333.25619528555
-0.1231476605338,1333.26619528555
-0.13216260706404,1333.27619528555
-0.141332039346172,1333.28619528555
-0.150541315190553,1333.29619528555
-0.159282812274934,1333.30619528555
-0.168316856479727,1333.31619528555
-0.176902785221268,1333.32619528555
-0.185489219684232,1333.33619528555
-0.193835738009654,1333.34619528555
-0.201899279093937,1333.35619528555
-0.209384526968335,1333.36619528555
-0.217276661815197,1333.37619528555
-0.225372875878287,1333.38619528555
-0.233910790600064,1333.39619528555
-0.24307140210697,1333.40619528555
-0.251980526707763,1333.41619528555
-0.260842646781658,1333.42619528555
-0.269329276469051,1333.43619528555
-0.277353468735168,1333.44619528555
-0.284804653461966,1333.45619528555
-0.292043806798364,1333.46619528555
-0.299434193678246,1333.47619528555
-0.307270446301555,1333.48619528555
-0.31544668876759,1333.49619528555
-0.32376424959194,1333.50619528555
-0.332530323949591,1333.51619528555
-0.340012584966546,1333.52619528555
-0.344714490957534,1333.53619528555
-0.342227733718313,1333.54619528555
-0.329013682694776,1333.55619528555
-0.302737859500357,1333.56619528555
-0.262339547929633,1333.57619528555
-0.209188331641472,1333.58619528555
-0.14744866812069,1333.59619528555
-0.0822027464479032,1333.60619528555
-0.0198083932293531,1333.61619528555
0.0342944450238646,1333.62619528555
0.0780381047530834,1333.63619528555
0.110293272975946,1333.64619528555
0.131489967816366,1333.65619528555
0.143026660538416,1333.66619528555
0.147175979552153,1333.67619528555
0.1456584312781,1333.68619528555
0.141027108792928,1333.69619528555
0.134741140193159,1333.70619528555
0.129142179975814,1333.71619528555
0.124887940265956,1333.72619528555
0.122293919921848,1333.73619528555
0.122161296743195,1333.74619528555
0.124446681403115,1333.75619528555
0.128973423079029,1333.76619528555
0.134796280811183,1333.77619528555
0.141139444895965,1333.78619528555
0.146609118630768,1333.79619528555
0.150662060985407,1333.80619528555
0.152270408242513,1333.81619528555
0.150485081841523,1333.82619528555
0.146000392336729,1333.83619528555
0.140060365387989,1333.84619528555
0.133999175829248,1333.85619528555
0.128733762115919,1333.86619528555
0.125247412081448,1333.87619528555
0.124164418741806,1333.88619528555
0.125286066814177,1333.89619528555
0.128511515056783,1333.90619528555
0.133264220963766,1333.91619528555
0.138336639020696,1333.92619528555
0.143898465827165,1333.93619528555
0.148525082713274,1333.94619528555
0.151459718591916,1333.95619528555
0.153069306960881,1333.96619528555
0.152820289816751,1333.97619528555
0.151175521947442,1333.98619528555
0.147432125743455,1333.99619528555
0.141929369498672,1334.00619528555
0.135785989468779,1334.01619528555
0.127965912584713,1334.02619528555
0.119467929941412,1334.03619528555
0.110966275020646,1334.04619528555
0.101870877706931,1334.05619528555
0.0921005965931405,1334.06619528555
0.0826563688319784,1334.07619528555
0.0723756353076938,1334.08619528555
0.0622868993218273,1334.09619528555
0.0525739870023489,1334.10619528555
0.042554647568141,1334.11619528555
0.0319087034512257,1334.12619528555
0.0209858737904006,1334.13619528555
0.0100741123284243,1334.14619528555
-0.00129735369851591,1334.15619528555
-0.0121895582318676,1334.16619528555
-0.0230896295780203,1334.17619528555
-0.0337139529063823,1334.18619528555
-0.0437803351708541,1334.19619528555
-0.0533595893555603,1334.20619528555
-0.0629317765761275,1334.21619528555
-0.0721320283799225,1334.22619528555
-0.0820599907288282,1334.23619528555
-0.0918688625437461,1334.24619528555
-0.101618144258579,1334.25619528555
-0.110580583609868,1334.26619528555
-0.119339555500427,1334.27619528555
-0.127905759749277,1334.28619528555
-0.136345004312383,1334.29619528555
-0.145469675720088,1334.30619528555
-0.15491203059,1334.31619528555
-0.164518835354821,1334.32619528555
-0.174159296482561,1334.33619528555
-0.183588587635289,1334.34619528555
-0.192657131850321,1334.35619528555
-0.201197164733299,1334.36619528555
-0.209655107488046,1334.37619528555
-0.217753228780585,1334.38619528555
-0.22582889287976,1334.39619528555
-0.233989126237746,1334.40619528555
-0.24291333942544,1334.41619528555
-0.251980277539581,1334.42619528555
-0.261331400631163,1334.43619528555
-0.271211083694711,1334.44619528555
-0.281109529625432,1334.45619528555
-0.290983440988196,1334.46619528555
-0.30101766830182,1334.47619528555
-0.310626069957766,1334.48619528555
-0.318749804853256,1334.49619528555
-0.322634118779628,1334.50619528555
-0.319147284870112,1334.51619528555
-0.305320820757551,1334.52619528555
-0.278464146809853,1334.53619528555
-0.238154729231463,1334.54619528555
-0.187602274017201,1334.55619528555
-0.130094994721605,1334.56619528555
-0.0705997133789433,1334.57619528555
-0.0144937051863933,1334.58619528555
0.0340372711897661,1334.59619528555
0.0727929829263949,1334.60619528555
0.0997019616982719,1334.61619528555
0.116252520890596,1334.62619528555
0.123542939777731,1334.63619528555
0.123586119597326,1334.64619528555
0.118074336645742,1334.65619528555
0.109395128436597,1334.66619528555
0.0997499760577144,1334.67619528555
0.0899722345729192,1334.68619528555
0.081554752523105,1334.69619528555
0.0738760306264083,1334.70619528555
0.0668888220884825,1334.71619528555
0.0622677917991864,1334.72619528555
0.0589105881769471,1334.73619528555
0.0570908754465083,1334.74619528555
0.0558956871678856,1334.75619528555
0.0537178342013076,1334.76619528555
0.050209505193181,1334.77619528555
0.0453009919034823,1334.78619528555
0.0387540527651497,1334.79619528555
0.0322723499780563,1334.80619528555
0.0270874515416939,1334.81619528555
0.0239925980637168,1334.82619528555
0.0232482208058059,1334.83619528555
0.0250921890645609,1334.84619528555
0.0294801663018444,1334.85619528555
0.0359024092627476,1334.86619528555
0.0437583942842897,1334.87619528555
0.0521094187178533,1334.88619528555
0.0597100154446966,1334.89619528555
0.0657974406247579,1334.90619528555
0.0700601593152119,1334.91619528555
0.0717216687618217,1334.92619528555
0.0709254411418486,1334.93619528555
0.0679592994211264,1334.94619528555
0.0630935894994003,1334.95619528555
0.0564644297954625,1334.96619528555
0.0491043147673171,1334.97619528555
0.041511573711496,1334.98619528555
0.0339324885215983,1334.99619528555
0.0265043465221187,1335.00619528555
0.0185749072424923,1335.01619528555
0.0102038082008497,1335.02619528555
0.00109114895263719,1335.03619528555
-0.0085469695266796,1335.04619528555
-0.0183173935331793,1335.05619528555
-0.0286972094233638,1335.06619528555
-0.0391404075554978,1335.07619528555
-0.0493949901836507,1335.08619528555
-0.0596945638957958,1335.09619528555
-0.0693776502190814,1335.10619528555
-0.0793268968541873,1335.11619528555
-0.0884962073102871,1335.12619528555
-0.0979318001527827,1335.13619528555
-0.106992397299488,1335.14619528555
-0.115865619225338,1335.15619528555
-0.124972392269375,1335.16619528555
-0.133826109378679,1335.17619528555
-0.14251870457056,1335.18619528555
-0.151620429547345,1335.19619528555
-0.160709848849596,1335.20619528555
-0.169401831507979,1335.21619528555
-0.177828267325769,1335.22619528555
-0.185690243913554,1335.23619528555
-0.192813287315325,1335.24619528555
-0.199926344372616,1335.25619528555
-0.206661400833523,1335.26619528555
-0.213722292420555,1335.27619528555
-0.22098683613889,1335.28619528555
-0.227998962432309,1335.29619528555
-0.236079067720559,1335.30619528555
-0.24369926346536,1335.31619528555
-0.251357591747219,1335.32619528555
-0.259101011016227,1335.33619528555
-0.266845906960817,1335.34619528555
-0.273257743224379,1335.35619528555
-0.275538288360956,1335.36619528555
-0.270381561909364,1335.37619528555
-0.253674630277115,1335.38619528555
-0.22255384568787,1335.39619528555
-0.177856496617001,1335.40619528555
-0.122067541921682,1335.41619528555
-0.0586404801299882,1335.42619528555
0.00703982740184523,1335.43619528555
0.0700790684348559,1335.44619528555
0.126019605009711,1335.45619528555
0.172116896969704,1335.46619528555
0.206879197573629,1335.47619528555
0.229673187288938,1335.48619528555
0.243182148635892,1335.49619528555
0.248123879142415,1335.50619528555
0.247633513141501,1335.51619528555
0.243408806514255,1335.52619528555
0.237429564115911,1335.53619528555
0.231035903771196,1335.54619528555
0.225004905996421,1335.55619528555
0.220177861783229,1335.56619528555
0.216429904173345,1335.57619528555
0.214095960562649,1335.58619528555
0.213438353123204,1335.59619528555
0.213624060920327,1335.60619528555
0.214665633065172,1335.61619528555
0.215552878769974,1335.62619528555
0.216043131440885,1335.63619528555
0.2151007401367,1335.64619528555
0.212611235010121,1335.65619528555
0.208264907175003,1335.66619528555
0.202739280591582,1335.67619528555
0.19657540540044,1335.68619528555
0.191235349751982,1335.69619528555
0.187307945595292,1335.70619528555
0.185831763736947,1335.71619528555
0.18651596124293,1335.72619528555
0.189650923912005,1335.73619528555
0.194807374000071,1335.74619528555
0.201174472003386,1335.75619528555
0.208239347711366,1335.76619528555
0.21440191751115,1335.77619528555
0.218845449690582,1335.78619528555
0.221892632197463,1335.79619528555
0.22229633774219,1335.80619528555
0.220347956579725,1335.81619528555
0.217039353239768,1335.82619528555
0.211562308009697,1335.83619528555
0.204828674833901,1335.84619528555
0.196539739061002,1335.85619528555
0.186509188780706,1335.86619528555
0.176231133288852,1335.87619528555
0.16559907786135,1335.88619528555
0.154731822459494,1335.89619528555
0.144109164660522,1335.90619528555
0.134096965321381,1335.91619528555
0.12426066527236,1335.92619528555
0.114022086026141,1335.93619528555
0.103054190914581,1335.94619528555
0.0917860228337135,1335.95619528555
0.0805180345453285,1335.96619528555
0.0689606736569136,1335.97619528555
0.057581985126452,1335.98619528555
0.0457828210743794,1335.99619528555
0.0343545464098403,1336.00619528555
0.022510873767762,1336.01619528555
0.0112637178127644,1336.02619528555
-3.05331089854883e-05,1336.03619528555
-0.0108535605100002,1336.04619528555
-0.0213594682547579,1336.05619528555
-0.0321105868636311,1336.06619528555
-0.0429564367326821,1336.07619528555
-0.0536611155484391,1336.08619528555
-0.0642765771839006,1336.09619528555
-0.074708287297229,1336.10619528555
-0.0852228498443942,1336.11619528555
-0.0949563676448537,1336.12619528555
-0.104441662528704,1336.13619528555
-0.113532771532607,1336.14619528555
-0.121968396157121,1336.15619528555
-0.130994541227013,1336.16619528555
-0.140021312768574,1336.17619528555
-0.148813364681763,1336.18619528555
-0.157539578765697,1336.19619528555
-0.165518407211213,1336.20619528555
-0.173503524450991,1336.21619528555
-0.181762060913832,1336.22619528555
-0.190679486778459,1336.23619528555
-0.19999376767404,1336.24619528555
-0.208511444825949,1336.25619528555
-0.214610992002808,1336.26619528555
-0.215432491725728,1336.27619528555
-0.206649287919372,1336.28619528555
-0.185353119647628,1336.29619528555
-0.149555201664223,1336.30619528555
-0.0984833484142457,1336.31619528555
-0.0357073057871478,1336.32619528555
0.0350495979627833,1336.33619528555
0.107396429909657,1336.34619528555
0.176270278916393,1336.35619528555
0.236562105087963,1336.36619528555
0.285397186449339,1336.37619528555
0.321356324831926,1336.38619528555
0.344964366482598,1336.39619528555
0.357772001444529,1336.40619528555
0.362142639991788,1336.41619528555
0.360565105230914,1336.42619528555
0.355014969920206,1336.43619528555
0.347108875580506,1336.44619528555
0.338419758988418,1336.45619528555
0.329666916695349,1336.46619528555
0.322138266561113,1336.47619528555
0.316360096119627,1336.48619528555
0.312966979652297,1336.49619528555
0.311378376265972,1336.50619528555
0.31129237490225,1336.51619528555
0.312294395283873,1336.52619528555
0.313422643613014,1336.53619528555
0.313601459904048,1336.54619528555
0.311711476735215,1336.55619528555
0.307576205583163,1336.56619528555
0.301161564709929,1336.57619528555
0.293431664479404,1336.58619528555
0.285096707811001,1336.59619528555
0.276988255391389,1336.60619528555
0.271186008390524,1336.61619528555
0.267607570302775,1336.62619528555
0.267105205378954,1336.63619528555
0.269293221921289,1336.64619528555
0.273664776919839,1336.65619528555
0.279026511298826,1336.66619528555
0.284835188319699,1336.67619528555
0.290011929687941,1336.68619528555
0.294034532488094,1336.69619528555
0.296494032426495,1336.70619528555
0.297015164457636,1336.71619528555
0.296049014803801,1336.72619528555
0.293017211128146,1336.73619528555
0.288197093322105,1336.74619528555
0.281471199335241,1336.75619528555
0.273219561804371,1336.76619528555
0.263750599422571,1336.77619528555
0.25338993644037,1336.78619528555
0.242213822822469,1336.79619528555
0.230658795144461,1336.80619528555
0.219672641991725,1336.81619528555
0.208347194727578,1336.82619528555
0.197477198452739,1336.83619528555
0.186367532086065,1336.84619528555
0.175884829480376,1336.85619528555
0.165371818474323,1336.86619528555
0.154870012694787,1336.87619528555
0.144286618218742,1336.88619528555
0.133033037109155,1336.89619528555
0.121682699518413,1336.90619528555
0.110146714077674,1336.91619528555
0.099009984772714,1336.92619528555
0.0880527150256994,1336.93619528555
0.0769881841131657,1336.94619528555
0.0663423010413067,1336.95619528555
0.05572108390642,1336.96619528555
0.0448896189749323,1336.97619528555
0.0340710856747999,1336.98619528555
0.0229014920078393,1336.99619528555
0.0121887706519216,1337.00619528555
0.0013226349333092,1337.01619528555
-0.00975663739264186,1337.02619528555
-0.0213041041846473,1337.03619528555
-0.0331837083776316,1337.04619528555
-0.0439360328167528,1337.05619528555
-0.0539943059006924,1337.06619528555
-0.063124516084886,1337.07619528555
-0.0717303637532476,1337.08619528555
-0.0803435136543002,1337.09619528555
-0.0889216854323652,1337.10619528555
-0.0983207313312806,1337.11619528555
-0.10810219599204,1337.12619528555
-0.117646981252744,1337.13619528555
-0.127384233640115,1337.14619528555
-0.137039503736726,1337.15619528555
-0.146706371428511,1337.16619528555
-0.156170475744991,1337.17619528555
-0.164388034410969,1337.18619528555
-0.168522175309601,1337.19619528555
-0.165010524044174,1337.20619528555
-0.149718991647433,1337.21619528555
-0.119677413312274,1337.22619528555
-0.0734929515668809,1337.23619528555
-0.0125628451262077,1337.24619528555
0.0577658088317346,1337.25619528555
0.133246772306865,1337.26619528555
0.207883008953107,1337.27619528555
0.275950319086802,1337.28619528555
0.333187993801066,1337.29619528555
0.37822727048202,1337.30619528555
0.410337246076299,1337.31619528555
0.430025731098045,1337.32619528555
0.440342848959008,1337.33619528555
0.442126796549213,1337.34619528555
0.438722436359309,1337.35619528555
0.431173938045359,1337.36619528555
0.421565316329511,1337.37619528555
0.411742037790698,1337.38619528555
0.402203516540247,1337.39619528555
0.394543340341508,1337.40619528555
0.388860883835756,1337.41619528555
0.385109201063903,1337.42619528555
0.383424424366941,1337.43619528555
0.382928244252431,1337.44619528555
0.382878914805311,1337.45619528555
0.382582541888521,1337.46619528555
0.380650880774438,1337.47619528555
0.376291883996611,1337.48619528555
0.369607185114805,1337.49619528555
0.361541789701353,1337.50619528555
0.352978933507602,1337.51619528555
0.345000232957777,1337.52619528555
0.338961756847439,1337.53619528555
0.334858607902765,1337.54619528555
0.332962838971979,1337.55619528555
0.333473971661347,1337.56619528555
0.335454811252333,1337.57619528555
0.338446783704012,1337.58619528555
0.342362404656811,1337.59619528555
0.346060243443879,1337.60619528555
0.349559140592946,1337.61619528555
0.352585843949349,1337.62619528555
0.353988043362919,1337.63619528555
0.353835992480351,1337.64619528555
0.351511573849747,1337.65619528555
0.347193012319566,1337.66619528555
0.341085650596237,1337.67619528555
0.332908409116468,1337.68619528555
0.323957949810315,1337.69619528555
0.313452075919962,1337.70619528555
0.302059830345083,1337.71619528555
0.2911176026388,1337.72619528555
0.279980020505649,1337.73619528555
0.268360360164914,1337.74619528555
0.25734306554999,1337.75619528555
0.245866686507379,1337.76619528555
0.23386114192346,1337.77619528555
0.220785901997761,1337.78619528555
0.208507081918644,1337.79619528555
0.195659269635019,1337.80619528555
0.18316504018114,1337.81619528555
0.171829223560356,1337.82619528555
0.160412305209247,1337.83619528555
0.149612473441721,1337.84619528555
0.138741478364258,1337.85619528555
0.127639022011751,1337.86619528555
0.116440954183021,1337.87619528555
0.105345353153954,1337.88619528555
0.0938556631033199,1337.89619528555
0.0825362490548742,1337.90619528555
0.0717159105258958,1337.91619528555
0.0607138853533104,1337.92619528555
0.0502041330660919,1337.93619528555
0.0398810141014068,1337.94619528555
0.0292489259078393,1337.95619528555
0.0183483614774542,1337.96619528555
0.00750453713842536,1337.97619528555
-0.00343911166976462,1337.98619528555
-0.0141765455064084,1337.99619528555
-0.0253892994192392,1338.00619528555
-0.0368618355521086,1338.01619528555
-0.0483840091549067,1338.02619528555
-0.0600896522043071,1338.03619528555
-0.0715144898678336,1338.04619528555
-0.0829215455261563,1338.05619528555
-0.0936219337192231,1338.06619528555
-0.103997251218065,1338.07619528555
-0.111822318065983,1338.08619528555
-0.114868908037092,1338.09619528555
-0.109328372741047,1338.10619528555
-0.0916388685767453,1338.11619528555
-0.0585750843820394,1338.12619528555
-0.0105775039405352,1338.13619528555
0.0510871682728186,1338.14619528555
0.122212166246538,1338.15619528555
0.196852243098565,1338.16619528555
0.268771920267688,1338.17619528555
0.333500536179283,1338.18619528555
0.385490128440438,1338.19619528555
0.424205937178202,1338.20619528555
0.45001574090818,1338.21619528555
0.464310326699951,1338.22619528555
0.469476389623369,1338.23619528555
0.467528329567438,1338.24619528555
0.460208051600045,1338.25619528555
0.450032759163556,1338.26619528555
0.438417511581839,1338.27619528555
0.426845842608891,1338.28619528555
0.416558498424489,1338.29619528555
0.407151876855476,1338.30619528555
0.399863215703301,1338.31619528555
0.394170259459569,1338.32619528555
0.389955825477287,1338.33619528555
0.386397157087693,1338.34619528555
0.383478290319586,1338.35619528555
0.379326184168071,1338.36619528555
0.373692800633008,1338.37619528555
0.365951784369167,1338.38619528555
0.356011274978271,1338.39619528555
0.344055129651941,1338.40619528555
0.332609971012019,1338.41619528555
0.323054507830917,1338.42619528555
0.316247432403139,1338.43619528555
0.312547392986901,1338.44619528555
0.311314078208162,1338.45619528555
0.312817427086298,1338.46619528555
0.31514326247079,1338.47619528555
0.318118665310678,1338.48619528555
0.320957796023221,1338.49619528555
0.323737807883991,1338.50619528555
0.324566726742221,1338.51619528555
0.325000723827201,1338.52619528555
0.323558363827824,1338.53619528555
0.320041276916109,1338.54619528555
0.314858537996843,1338.55619528555
0.307821157668058,1338.56619528555
0.299523283723149,1338.57619528555
0.290087551103406,1338.58619528555
0.279036168300018,1338.59619528555
0.267779182077151,1338.60619528555
0.255825422591587,1338.61619528555
0.243280947203141,1338.62619528555
0.230547098168295,1338.63619528555
0.217011143071528,1338.64619528555
0.203238905826686,1338.65619528555
0.189930731308891,1338.66619528555
0.176635161897512,1338.67619528555
0.163300587957357,1338.68619528555
0.149789832818345,1338.69619528555
0.13618359298113,1338.70619528555
0.122383816124507,1338.71619528555
0.108516454315189,1338.72619528555
0.0947640552972398,1338.73619528555
0.0811920999243419,1338.74619528555
0.067857459015489,1338.75619528555
0.0548034614927205,1338.76619528555
0.0420071121187028,1338.77619528555
0.0302041224347948,1338.78619528555
0.01839921657505,1338.79619528555
0.00696259434073477,1338.80619528555
-0.00425675404873534,1338.81619528555
-0.0153301019484727,1338.82619528555
-0.026262311493518,1338.83619528555
-0.0372871749807883,1338.84619528555
-0.0485854123202684,1338.85619528555
-0.0602758917472977,1338.86619528555
-0.0720441333419691,1338.87619528555
-0.0840910295267174,1338.88619528555
-0.0964607816263541,1338.89619528555
-0.108597463708809,1338.90619528555
-0.120129060389703,1338.91619528555
-0.131308121708424,1338.92619528555
-0.140937149288862,1338.93619528555
-0.149266070692983,1338.94619528555
-0.152501733062769,1338.95619528555
-0.147207138254867,1338.96619528555
-0.130001802269782,1338.97619528555
-0.0970563856969871,1338.98619528555
-0.0486189700284807,1338.99619528555
0.013197872329673,1339.00619528555
0.0829433676631931,1339.01619528555
0.154911442876416,1339.02619528555
0.223751095748434,1339.03619528555
0.283374467909831,1339.04619528555
0.330808848143296,1339.05619528555
0.364509207288628,1339.06619528555
0.385954965583077,1339.07619528555
0.397149752939509,1339.08619528555
0.400364692342002,1339.09619528555
0.397863486825251,1339.10619528555
0.391596850600748,1339.11619528555
0.381552159374523,1339.12619528555
0.369962744387478,1339.13619528555
0.357953268868522,1339.14619528555
0.346718649852518,1339.15619528555
0.336787273823493,1339.16619528555
0.328459940809275,1339.17619528555
