PPG,time
-0.11720349902489,3749.5799607711
-0.237027651196783,3749.5899607711
-0.214572083397494,3749.5999607711
-0.232405103299055,3749.6099607711
-0.224705251969887,3749.6199607711
-0.23134469552755,3749.6299607711
-0.2285916666776,3749.6399607711
-0.231687798908768,3749.6499607711
-0.23132565747722,3749.6599607711
-0.233448747321558,3749.6699607711
-0.23594511479695,3749.6799607711
-0.239315821954399,3749.6899607711
-0.243580180397494,3749.69996077109
-0.248862471317259,3749.7099607711
-0.255126698584196,3749.71996077109
-0.262104158373366,3749.7299607711
-0.269608858843333,3749.73996077109
-0.277842696347567,3749.7499607711
-0.286699878917463,3749.75996077109
-0.296059023905792,3749.7699607711
-0.305770561400628,3749.77996077109
-0.315476425921304,3749.7899607711
-0.325049503970097,3749.79996077109
-0.334452482341432,3749.8099607711
-0.343717773214237,3749.81996077109
-0.352835749953304,3749.8299607711
-0.361873689609375,3749.8399607711
-0.371617336704784,3749.8499607711
-0.381538353473984,3749.8599607711
-0.39154207312651,3749.8699607711
-0.401706988756773,3749.8799607711
-0.411711163668989,3749.8899607711
-0.421971969150573,3749.8999607711
-0.432010905811309,3749.9099607711
-0.442602334555765,3749.9199607711
-0.452871550985116,3749.9299607711
-0.462093596091857,3749.9399607711
-0.471610515825089,3749.94996077109
-0.480404833634915,3749.9599607711
-0.489883142157259,3749.96996077109
-0.499120634979392,3749.9799607711
-0.508040742695415,3749.98996077109
-0.517207133154706,3749.9999607711
-0.525827192768882,3750.00996077109
-0.534251715281668,3750.0199607711
-0.542052687667172,3750.02996077109
-0.549507544669067,3750.0399607711
-0.556920815251674,3750.04996077109
-0.564375352704409,3750.0599607711
-0.571871203378832,3750.06996077109
-0.578105906565258,3750.0799607711
-0.58218392650998,3750.0899607711
-0.582465712398935,3750.0999607711
-0.578166311314645,3750.1099607711
-0.569173565413672,3750.1199607711
-0.55604332782171,3750.1299607711
-0.540589809134024,3750.1399607711
-0.523805977974634,3750.1499607711
-0.507140836951344,3750.1599607711
-0.491098107670396,3750.1699607711
-0.476716130580074,3750.1799607711
-0.464846492640999,3750.1899607711
-0.456502912786944,3750.19996077109
-0.450510038760795,3750.2099607711
-0.44671579668376,3750.21996077109
-0.445063198808674,3750.2299607711
-0.444524517758956,3750.23996077109
-0.445686295866614,3750.2499607711
-0.447525513746434,3750.25996077109
-0.450158196583031,3750.2699607711
-0.453024724689548,3750.27996077109
-0.45603690163694,3750.2899607711
-0.459308420675166,3750.29996077109
-0.461869466815375,3750.3099607711
-0.464273892570394,3750.31996077109
-0.466479842888084,3750.3299607711
-0.469648842203949,3750.3399607711
-0.473873381700347,3750.3499607711
-0.480026282321674,3750.3599607711
-0.487291103814387,3750.3699607711
-0.495439597649669,3750.3799607711
-0.503268900699079,3750.3899607711
-0.510723434526134,3750.3999607711
-0.516780830892781,3750.4099607711
-0.521952126642648,3750.4199607711
-0.525629308170318,3750.4299607711
-0.527112313848633,3750.4399607711
-0.527237997754265,3750.44996077109
-0.525066871465334,3750.4599607711
-0.521229194261561,3750.46996077109
-0.516887621575159,3750.4799607711
-0.512460345529097,3750.48996077109
-0.508929897036539,3750.4999607711
-0.506535090782916,3750.50996077109
-0.505370740729533,3750.5199607711
-0.505205272329954,3750.52996077109
-0.506931388571791,3750.5399607711
-0.509540711385955,3750.54996077109
-0.512971637649569,3750.5599607711
-0.516719457092637,3750.56996077109
-0.520468549299773,3750.5799607711
-0.524764312989867,3750.5899607711
-0.529602928882872,3750.5999607711
-0.534724486353908,3750.6099607711
-0.540573187169514,3750.6199607711
-0.5469883353831,3750.6299607711
-0.553995583372541,3750.6399607711
-0.560832219113459,3750.6499607711
-0.568107644601851,3750.6599607711
-0.574979974572773,3750.6699607711
-0.581493530815125,3750.6799607711
-0.587681551062624,3750.6899607711
-0.59361600858853,3750.69996077109
-0.599852356296714,3750.7099607711
-0.605466437265532,3750.71996077109
-0.611103083183728,3750.7299607711
-0.616690088859374,3750.73996077109
-0.622850220127861,3750.7499607711
-0.628287371843568,3750.75996077109
-0.633640551712962,3750.7699607711
-0.63872445290199,3750.77996077109
-0.643806001152467,3750.7899607711
-0.649496733669044,3750.79996077109
-0.655160928248067,3750.8099607711
-0.660966554313618,3750.81996077109
-0.666719703584707,3750.8299607711
-0.671730176880031,3750.8399607711
-0.676189280215187,3750.8499607711
-0.679559777171705,3750.8599607711
-0.680428444835012,3750.8699607711
-0.677697658221589,3750.8799607711
-0.669798907680265,3750.8899607711
-0.657575817358508,3750.8999607711
-0.641347796830147,3750.9099607711
-0.622432378252694,3750.9199607711
-0.602530552230975,3750.9299607711
-0.582863640673405,3750.9399607711
-0.564563037863378,3750.94996077109
-0.548364096338928,3750.9599607711
-0.535008383131165,3750.96996077109
-0.524290780570451,3750.9799607711
-0.515643644925387,3750.98996077109
-0.508093295012945,3750.9999607711
-0.502453476727749,3751.00996077109
-0.498079144431454,3751.0199607711
-0.495023221446493,3751.02996077109
-0.493192846185954,3751.0399607711
-0.491960613711957,3751.04996077109
-0.491586815521657,3751.0599607711
-0.491840452185018,3751.06996077109
-0.492393960037123,3751.0799607711
-0.493266790733957,3751.0899607711
-0.494670513815157,3751.0999607711
-0.495476022227373,3751.1099607711
-0.496834678309845,3751.1199607711
-0.498637423790223,3751.1299607711
-0.501396643675007,3751.1399607711
-0.505764040340624,3751.1499607711
-0.510365520746223,3751.1599607711
-0.515414711606256,3751.1699607711
-0.520575397889335,3751.1799607711
-0.524614890234959,3751.1899607711
-0.527353194342943,3751.19996077109
-0.528386769951427,3751.2099607711
-0.52761884165906,3751.21996077109
-0.524864110087126,3751.2299607711
-0.520811380055646,3751.23996077109
-0.515378051376905,3751.2499607711
-0.509816651009479,3751.25996077109
-0.50391343864343,3751.2699607711
-0.498142902048416,3751.27996077109
-0.493218479758785,3751.2899607711
-0.489817610800081,3751.29996077109
-0.487399492705312,3751.3099607711
-0.486451069975563,3751.31996077109
-0.487112582528947,3751.3299607711
-0.489070814794394,3751.3399607711
-0.491763086942552,3751.3499607711
-0.495199275500807,3751.3599607711
-0.498892463579955,3751.3699607711
-0.502824983401116,3751.3799607711
-0.506964571252853,3751.3899607711
-0.511117111026387,3751.3999607711
-0.51527862024316,3751.4099607711
-0.519056863015171,3751.4199607711
-0.523351471615485,3751.4299607711
-0.52790265409191,3751.4399607711
-0.532484787512815,3751.44996077109
-0.537338999715186,3751.4599607711
-0.54241247093017,3751.46996077109
-0.547353936517977,3751.4799607711
-0.552031864109605,3751.48996077109
-0.556253468397154,3751.4999607711
-0.560153686765046,3751.50996077109
-0.563677810627538,3751.5199607711
-0.567061703574206,3751.52996077109
-0.570986416573984,3751.5399607711
-0.574741991104006,3751.54996077109
-0.579458653827814,3751.5599607711
-0.585032877688258,3751.56996077109
-0.591622363319387,3751.5799607711
-0.598356617667534,3751.5899607711
-0.604357379009353,3751.5999607711
-0.608884956578908,3751.6099607711
-0.611029214962757,3751.6199607711
-0.609901201109106,3751.6299607711
-0.604393168172017,3751.6399607711
-0.593296127430716,3751.6499607711
-0.576244530341166,3751.6599607711
-0.553928836676717,3751.6699607711
-0.527867432612042,3751.6799607711
-0.499388189924347,3751.6899607711
-0.471172945013813,3751.69996077109
-0.444172181011844,3751.7099607711
-0.419920693411332,3751.71996077109
-0.399439381487791,3751.7299607711
-0.382298914926457,3751.73996077109
-0.369120636056903,3751.7499607711
-0.359169817127275,3751.75996077109
-0.352378138235748,3751.7699607711
-0.347496341038751,3751.77996077109
-0.344027989292715,3751.7899607711
-0.34085195864463,3751.79996077109
-0.338267244388188,3751.8099607711
-0.335816956035918,3751.81996077109
-0.333310958713121,3751.8299607711
-0.330824292409694,3751.8399607711
-0.328304553564356,3751.8499607711
-0.325033616772366,3751.8599607711
-0.321885974676039,3751.8699607711
-0.319446639327386,3751.8799607711
-0.317549945432307,3751.8899607711
-0.316950312363146,3751.8999607711
-0.317970558242852,3751.9099607711
-0.320342970175112,3751.9199607711
-0.32403399331646,3751.9299607711
-0.328597041654428,3751.9399607711
-0.33320974252477,3751.94996077109
-0.336735388243903,3751.9599607711
-0.338108150682917,3751.96996077109
-0.337291797733498,3751.9799607711
-0.334157849752181,3751.98996077109
-0.32952871343946,3751.9999607711
-0.324054589902906,3752.00996077109
-0.318671128337462,3752.0199607711
-0.313241248615797,3752.02996077109
-0.308220492013327,3752.0399607711
-0.304240846264361,3752.04996077109
-0.301261002959493,3752.0599607711
-0.299332444777166,3752.06996077109
-0.298498688882911,3752.0799607711
-0.298689737182387,3752.0899607711
-0.299832469605898,3752.0999607711
-0.302235425343297,3752.1099607711
-0.305367704038874,3752.1199607711
-0.309002185368765,3752.1299607711
-0.313276275175643,3752.1399607711
-0.31767635577201,3752.1499607711
-0.322024434265423,3752.1599607711
-0.326919102119751,3752.1699607711
-0.331621873239112,3752.1799607711
-0.336190894405479,3752.1899607711
-0.34048323300962,3752.19996077109
-0.345094766579887,3752.2099607711
-0.349917259078853,3752.21996077109
-0.355984873502963,3752.2299607711
-0.362054458169035,3752.23996077109
-0.368039292588614,3752.2499607711
-0.37430271068634,3752.25996077109
-0.379964931332961,3752.2699607711
-0.385186694336375,3752.27996077109
-0.390283395200328,3752.2899607711
-0.395849637145224,3752.29996077109
-0.400797213558194,3752.3099607711
-0.405898503086763,3752.31996077109
-0.411466216551205,3752.3299607711
-0.417361334219622,3752.3399607711
-0.42287094983311,3752.3499607711
-0.428364520698207,3752.3599607711
-0.433744328134975,3752.3699607711
-0.43919213724664,3752.3799607711
-0.44471517594346,3752.3899607711
-0.450610374713138,3752.3999607711
-0.456300927119895,3752.4099607711
-0.461406630148701,3752.4199607711
-0.464787365052899,3752.4299607711
-0.464767295938502,3752.4399607711
-0.459538196510223,3752.44996077109
-0.447618057037665,3752.4599607711
-0.428963219937169,3752.46996077109
-0.404395532629095,3752.4799607711
-0.375834429334193,3752.48996077109
-0.345216200235616,3752.4999607711
-0.314565814265077,3752.50996077109
-0.285625040018395,3752.5199607711
-0.260136850631692,3752.52996077109
-0.239268433087072,3752.5399607711
-0.22290827549892,3752.54996077109
-0.210935998198629,3752.5599607711
-0.202660267481053,3752.56996077109
-0.196914321834393,3752.5799607711
-0.192641425556616,3752.5899607711
-0.189166886080373,3752.5999607711
-0.18677045215271,3752.6099607711
-0.184158554032304,3752.6199607711
-0.181266122624174,3752.6299607711
-0.177594762494058,3752.6399607711
-0.173454357931211,3752.6499607711
-0.168943564568495,3752.6599607711
-0.163490982702859,3752.6699607711
-0.15877288938851,3752.6799607711
-0.154790460105313,3752.6899607711
-0.151096178586338,3752.69996077109
-0.149333680427381,3752.7099607711
-0.149047671322771,3752.71996077109
-0.151441931069518,3752.7299607711
-0.155827628809809,3752.73996077109
-0.161665783728011,3752.7499607711
-0.167569390293726,3752.75996077109
-0.172239933921013,3752.7699607711
-0.174771834237809,3752.77996077109
-0.17551812549829,3752.7899607711
-0.174855582476442,3752.79996077109
-0.172895854498714,3752.8099607711
-0.169971481577645,3752.81996077109
-0.166696449165313,3752.8299607711
-0.163909604328351,3752.8399607711
-0.16115030335889,3752.8499607711
-0.159588816989567,3752.8599607711
-0.159239588688443,3752.8699607711
-0.160058596063407,3752.8799607711
-0.162242712330036,3752.8899607711
-0.165306826339327,3752.8999607711
-0.168773335188559,3752.9099607711
-0.17262406089007,3752.9199607711
-0.176475062223734,3752.9299607711
-0.1803244119885,3752.9399607711
-0.184783269746886,3752.94996077109
-0.189737073409789,3752.9599607711
-0.195456214749932,3752.96996077109
-0.201512298306349,3752.9799607711
-0.207867975026088,3752.98996077109
-0.213934864540323,3752.9999607711
-0.219974089328,3753.00996077109
-0.225958115002329,3753.0199607711
-0.231956600129088,3753.02996077109
-0.238719307996452,3753.0399607711
-0.246003003395679,3753.04996077109
-0.253280903828044,3753.0599607711
-0.260752205314283,3753.06996077109
-0.267700862165559,3753.0799607711
-0.274441484441677,3753.0899607711
-0.281139700044715,3753.0999607711
-0.287581126746175,3753.1099607711
-0.294323142407749,3753.1199607711
-0.301040327107288,3753.1299607711
-0.307451487728948,3753.1399607711
-0.313552798173738,3753.1499607711
-0.319720707703871,3753.1599607711
-0.325966736047536,3753.1699607711
-0.332558408916266,3753.1799607711
-0.33948847889046,3753.1899607711
-0.346359289334596,3753.19996077109
-0.353557896947128,3753.2099607711
-0.360959390627376,3753.21996077109
-0.368609191593979,3753.2299607711
-0.376049136311438,3753.23996077109
-0.383469975733549,3753.2499607711
-0.39093839474026,3753.25996077109
-0.398534928788932,3753.2699607711
-0.406257184527788,3753.27996077109
-0.414093524592273,3753.2899607711
-0.421367009869133,3753.29996077109
-0.428583480608955,3753.3099607711
-0.43570110444957,3753.31996077109
-0.442577431311213,3753.3299607711
-0.449781464647341,3753.3399607711
-0.456588973393925,3753.3499607711
-0.463453858317241,3753.3599607711
-0.470604587471677,3753.3699607711
-0.477488306928447,3753.3799607711
-0.483969416547664,3753.3899607711
-0.490394328583453,3753.3999607711
-0.49700841937958,3753.4099607711
-0.503629036270253,3753.4199607711
-0.510504668455803,3753.4299607711
-0.517729427011629,3753.4399607711
-0.524955893525462,3753.44996077109
-0.531002400845526,3753.4599607711
-0.535215733382234,3753.46996077109
-0.534930042783356,3753.4799607711
-0.52973246708338,3753.48996077109
-0.51814422510966,3753.4999607711
-0.502002358394748,3753.50996077109
-0.48291624990616,3753.5199607711
-0.463020177152637,3753.52996077109
-0.444064969672415,3753.5399607711
-0.42787444457389,3753.54996077109
-0.415453009216037,3753.5599607711
-0.407063986120487,3753.56996077109
-0.401627133046348,3753.5799607711
-0.399451213661701,3753.5899607711
-0.39962146793874,3753.5999607711
-0.401524685508605,3753.6099607711
-0.404171856759459,3753.6199607711
-0.407823261420397,3753.6299607711
-0.412145316367648,3753.6399607711
-0.415644307819045,3753.6499607711
-0.418797201796291,3753.6599607711
-0.420855509599887,3753.6699607711
-0.422718637966058,3753.6799607711
-0.424118260284187,3753.6899607711
-0.425180763590718,3753.69996077109
-0.426028810450053,3753.7099607711
-0.42678798208116,3753.71996077109
-0.427691192146655,3753.7299607711
-0.429090764899842,3753.73996077109
-0.431257122982577,3753.7499607711
-0.434943784614867,3753.75996077109
-0.440007823357939,3753.7699607711
-0.446371490781093,3753.77996077109
-0.45343665719919,3753.7899607711
-0.459923432059594,3753.79996077109
-0.466065308209217,3753.8099607711
-0.470956421881007,3753.81996077109
-0.474852050885199,3753.8299607711
-0.477090254856171,3753.8399607711
-0.478700685905372,3753.8499607711
-0.479939538144842,3753.8599607711
-0.480928818103736,3753.8699607711
-0.481923329551788,3753.8799607711
-0.483106466926736,3753.8899607711
-0.484772042265784,3753.8999607711
-0.486305534554665,3753.9099607711
-0.488438859996801,3753.9199607711
-0.491257811254615,3753.9299607711
-0.494548310755604,3753.9399607711
-0.498719263508544,3753.94996077109
-0.503198672405258,3753.9599607711
-0.508198461987837,3753.96996077109
-0.513729287414242,3753.9799607711
-0.519489014776053,3753.98996077109
-0.525108490249402,3753.9999607711
-0.530851118539432,3754.00996077109
-0.535901947673415,3754.0199607711
-0.540692060214288,3754.02996077109
-0.545769415547016,3754.0399607711
-0.550742898681489,3754.04996077109
-0.555848325991899,3754.0599607711
-0.560551378138969,3754.06996077109
-0.564764053195747,3754.0799607711
-0.568928170428242,3754.0899607711
-0.573286597836004,3754.0999607711
-0.578498439718785,3754.1099607711
-0.58426158265372,3754.1199607711
-0.590565862051969,3754.1299607711
-0.596313276817404,3754.1399607711
-0.602458491813872,3754.1499607711
-0.608334378688706,3754.1599607711
-0.613973087563329,3754.1699607711
-0.618822424757359,3754.1799607711
-0.623441129521957,3754.1899607711
-0.62806677089063,3754.19996077109
-0.63231491600663,3754.2099607711
-0.636366304700413,3754.21996077109
-0.640524817339881,3754.2299607711
-0.644589398236706,3754.23996077109
-0.648941284629073,3754.2499607711
-0.65316108909077,3754.25996077109
-0.657727994597425,3754.2699607711
-0.662594530448556,3754.27996077109
-0.66783867057204,3754.2899607711
-0.67337564843957,3754.29996077109
-0.678838925877801,3754.3099607711
-0.684998316490628,3754.31996077109
-0.690557791578094,3754.3299607711
-0.695485030434959,3754.3399607711
-0.69999920639492,3754.3499607711
-0.704395787703669,3754.3599607711
-0.708573573805938,3754.3699607711
-0.712446630970495,3754.3799607711
-0.716593508356366,3754.3899607711
-0.720894071551573,3754.3999607711
-0.725513662919802,3754.4099607711
-0.729934867238835,3754.4199607711
-0.735011268617088,3754.4299607711
-0.739420273931033,3754.4399607711
-0.743728614183294,3754.44996077109
-0.747986251139775,3754.4599607711
-0.751394018084269,3754.46996077109
-0.755025270394537,3754.4799607711
-0.75799324949809,3754.48996077109
-0.758736886339278,3754.4999607711
-0.756623991128762,3754.50996077109
-0.749787318767476,3754.5199607711
-0.738474535499515,3754.52996077109
-0.724411293732945,3754.5399607711
-0.709494516937119,3754.54996077109
-0.69522329530536,3754.5599607711
-0.683780575698441,3754.56996077109
-0.676071609855381,3754.5799607711
-0.672295770217068,3754.5899607711
-0.671597552478994,3754.5999607711
-0.673432846079185,3754.6099607711
-0.676855873675358,3754.6199607711
-0.681168461520697,3754.6299607711
-0.685600371188035,3754.6399607711
-0.690110853558303,3754.6499607711
-0.694558265142189,3754.6599607711
-0.698196934198728,3754.6699607711
-0.700935227438004,3754.6799607711
-0.703338057480717,3754.6899607711
-0.705052153138615,3754.69996077109
-0.705292462400036,3754.7099607711
-0.705620570766096,3754.71996077109
-0.706176459303473,3754.7299607711
-0.706994157267219,3754.73996077109
-0.70816753343408,3754.7499607711
-0.709311128228327,3754.75996077109
-0.711045600455545,3754.7699607711
-0.713261977166726,3754.77996077109
-0.71650972597109,3754.7899607711
-0.720138734949985,3754.79996077109
-0.724189345242672,3754.8099607711
-0.728428353202908,3754.81996077109
-0.73241611146818,3754.8299607711
-0.735612693509659,3754.8399607711
-0.738231132902307,3754.8499607711
-0.740208145604994,3754.8599607711
-0.741119419756426,3754.8699607711
-0.741645839860143,3754.8799607711
-0.74155444912179,3754.8899607711
-0.741006067754001,3754.8999607711
-0.740568600425553,3754.9099607711
-0.740477507119944,3754.9199607711
-0.740343430204253,3754.9299607711
-0.740773107006904,3754.9399607711
-0.741768426592098,3754.94996077109
-0.743172032314604,3754.9599607711
-0.745041359275383,3754.96996077109
-0.746827127196684,3754.9799607711
-0.749000973267038,3754.98996077109
-0.750889249365659,3754.9999607711
-0.753188182314704,3755.00996077109
-0.756067988360524,3755.0199607711
-0.758873935020359,3755.02996077109
-0.762070751458835,3755.0399607711
-0.764864137004632,3755.04996077109
-0.767782664971355,3755.0599607711
-0.770671007792603,3755.06996077109
-0.773184359043762,3755.0799607711
-0.776092707001911,3755.0899607711
-0.778824119365812,3755.0999607711
-0.78171865902527,3755.1099607711
-0.7845417825462,3755.1199607711
-0.786915237832519,3755.1299607711
-0.788554308708947,3755.1399607711
-0.790281459596671,3755.1499607711
-0.792523379934989,3755.1599607711
-0.79507631085458,3755.1699607711
-0.79798985957089,3755.1799607711
-0.800814668799623,3755.1899607711
-0.803405781706656,3755.19996077109
-0.805479858849396,3755.2099607711
-0.807538334750374,3755.21996077109
-0.808698757762208,3755.2299607711
-0.809467561263089,3755.23996077109
-0.810803404585907,3755.2499607711
-0.812746943304564,3755.25996077109
-0.815163566327612,3755.2699607711
-0.817962515014378,3755.27996077109
-0.820940339734137,3755.2899607711
-0.8244228908382,3755.29996077109
-0.827141757436614,3755.3099607711
-0.829143172376791,3755.31996077109
-0.831047392496474,3755.3299607711
-0.832123182223649,3755.3399607711
-0.832981629876975,3755.3499607711
-0.834115015994619,3755.3599607711
-0.835721911271599,3755.3699607711
-0.836880061640341,3755.3799607711
-0.838377225560552,3755.3899607711
-0.839717096657377,3755.3999607711
-0.841398984572794,3755.4099607711
-0.842643024959198,3755.4199607711
-0.843861677650217,3755.4299607711
-0.845414483936082,3755.4399607711
-0.847007773984727,3755.44996077109
-0.848616535096151,3755.4599607711
-0.850232278776257,3755.46996077109
-0.852336223514505,3755.4799607711
-0.854487981799106,3755.48996077109
-0.856533746914265,3755.4999607711
-0.857960588400436,3755.50996077109
-0.858032838551937,3755.5199607711
-0.854706364044224,3755.52996077109
-0.847665727909783,3755.5399607711
-0.836407338300986,3755.54996077109
-0.822160196028109,3755.5599607711
-0.806493397820406,3755.56996077109
-0.791142613848311,3755.5799607711
-0.778293263421514,3755.5899607711
-0.768209855816641,3755.5999607711
-0.761374336780771,3755.6099607711
-0.758516283453121,3755.6199607711
-0.758534595136164,3755.6299607711
-0.760604024564611,3755.6399607711
-0.764267834475965,3755.6499607711
-0.768612789262163,3755.6599607711
-0.77275007557627,3755.6699607711
-0.776197234159097,3755.6799607711
-0.778937174176414,3755.6899607711
-0.781339127404633,3755.69996077109
-0.782451889772597,3755.7099607711
-0.782938041391147,3755.71996077109
-0.782752533568046,3755.7299607711
-0.782199261810494,3755.73996077109
-0.78118652137739,3755.7499607711
-0.780620842123892,3755.75996077109
-0.780233343761555,3755.7699607711
-0.779672750328208,3755.77996077109
-0.779382120264605,3755.7899607711
-0.778674954136242,3755.79996077109
-0.778694269910262,3755.8099607711
-0.77973310386686,3755.81996077109
-0.781949742285857,3755.8299607711
-0.784424625368375,3755.8399607711
-0.787292556093311,3755.8499607711
-0.789626749212138,3755.8599607711
-0.791161618774261,3755.8699607711
-0.791244720907568,3755.8799607711
-0.790483327301437,3755.8899607711
-0.788443794655811,3755.8999607711
-0.785993819524437,3755.9099607711
-0.783224015028409,3755.9199607711
-0.780705816189322,3755.9299607711
-0.778743445384509,3755.9399607711
-0.777544691431614,3755.94996077109
-0.776793266572291,3755.9599607711
-0.776687503812967,3755.96996077109
-0.77678959809218,3755.9799607711
-0.777346674653413,3755.98996077109
-0.777902274078694,3755.9999607711
-0.778857743665701,3756.00996077109
-0.78028379492687,3756.0199607711
-0.78276012001864,3756.02996077109
-0.785500413440694,3756.0399607711
-0.788426514961779,3756.04996077109
-0.79076862931518,3756.0599607711
-0.792773840189329,3756.06996077109
-0.794436461308481,3756.0799607711
-0.795877123948915,3756.0899607711
-0.797001428966846,3756.0999607711
-0.797981624579436,3756.1099607711
-0.799103411475466,3756.1199607711
-0.799706910585859,3756.1299607711
-0.800092235826348,3756.1399607711
-0.800523637803179,3756.1499607711
-0.801114645829469,3756.1599607711
-0.801555353544639,3756.1699607711
-0.801596280481521,3756.1799607711
-0.801589155141941,3756.1899607711
-0.801966189152894,3756.19996077109
-0.802296092134768,3756.2099607711
-0.803192163663337,3756.21996077109
-0.803594087018169,3756.2299607711
-0.803924184200611,3756.23996077109
-0.803884595597387,3756.2499607711
-0.803996495988162,3756.25996077109
-0.804425690564128,3756.2699607711
-0.805553241200578,3756.27996077109
-0.807358763364062,3756.2899607711
-0.809090537753396,3756.29996077109
-0.810945743988909,3756.3099607711
-0.812395826025798,3756.31996077109
-0.813695534754934,3756.3299607711
-0.814611295556834,3756.3399607711
-0.814887745984917,3756.3499607711
-0.815386798245957,3756.3599607711
-0.816606143230913,3756.3699607711
-0.817603888335704,3756.3799607711
-0.818580491102916,3756.3899607711
-0.819377966544381,3756.3999607711
-0.819987618768339,3756.4099607711
-0.820501444059486,3756.4199607711
-0.820875783222136,3756.4299607711
-0.821201495095692,3756.4399607711
-0.82224580032961,3756.44996077109
-0.823715941879212,3756.4599607711
-0.825878461833936,3756.46996077109
-0.827720219206369,3756.4799607711
-0.828905172892276,3756.48996077109
-0.829514163405994,3756.4999607711
-0.828173267522693,3756.50996077109
-0.823909074941903,3756.5199607711
-0.815827950904443,3756.52996077109
-0.803574523653722,3756.5399607711
-0.788319368461842,3756.54996077109
-0.771673245258615,3756.5599607711
-0.75529117941734,3756.56996077109
-0.741679652371085,3756.5799607711
-0.73066441450831,3756.5899607711
-0.723856248939488,3756.5999607711
-0.720054823421645,3756.6099607711
-0.719114967369307,3756.6199607711
-0.720151282830859,3756.6299607711
-0.722059549013803,3756.6399607711
-0.724312452504312,3756.6499607711
-0.726493635038758,3756.6599607711
-0.728587892723202,3756.6699607711
-0.730298811382076,3756.6799607711
-0.731474234972024,3756.6899607711
-0.731738244057838,3756.69996077109
-0.731453463333621,3756.7099607711
-0.731157203993785,3756.71996077109
-0.730565161000223,3756.7299607711
-0.729906396658433,3756.73996077109
-0.728803670617208,3756.7499607711
-0.727229394159562,3756.75996077109
-0.725089029338092,3756.7699607711
-0.722891320093172,3756.77996077109
-0.721420374750579,3756.7899607711
-0.72140239971816,3756.79996077109
-0.723153984950905,3756.8099607711
-0.725522522073147,3756.81996077109
-0.72790189988159,3756.8299607711
-0.730235719665396,3756.8399607711
-0.731299790529576,3756.8499607711
-0.730567590971878,3756.8599607711
-0.728495619134078,3756.8699607711
-0.725701501986893,3756.8799607711
-0.721966013004763,3756.8899607711
-0.719117612419527,3756.8999607711
-0.716048722238212,3756.9099607711
-0.713519247143999,3756.9199607711
-0.711076518200553,3756.9299607711
-0.709034430834541,3756.9399607711
-0.706958649122995,3756.94996077109
-0.705357615623411,3756.9599607711
-0.70486264370687,3756.96996077109
-0.704769318223536,3756.9799607711
-0.705452796659124,3756.98996077109
-0.706224020989142,3756.9999607711
-0.707051310649937,3757.00996077109
-0.707263961514246,3757.0199607711
-0.707431769478955,3757.02996077109
-0.708162659169304,3757.0399607711
-0.70832369245889,3757.04996077109
-0.708777174616846,3757.0599607711
-0.709222348504246,3757.06996077109
-0.710034468442228,3757.0799607711
-0.710890631227434,3757.0899607711
-0.711741190819418,3757.0999607711
-0.712473389964426,3757.1099607711
-0.712876302876405,3757.1199607711
-0.71295591934753,3757.1299607711
-0.713197387358857,3757.1399607711
-0.713702404378159,3757.1499607711
-0.713729372922295,3757.1599607711
-0.71370152130213,3757.1699607711
-0.713806012700036,3757.1799607711
-0.71387553940884,3757.1899607711
-0.714386063626635,3757.19996077109
-0.714753347438587,3757.2099607711
-0.715382758175737,3757.21996077109
-0.715746852329434,3757.2299607711
-0.716019443610406,3757.23996077109
-0.716430723846298,3757.2499607711
-0.717039414716434,3757.25996077109
-0.718329689205587,3757.2699607711
-0.719330773551418,3757.27996077109
-0.719876809011816,3757.2899607711
-0.720045292651546,3757.29996077109
-0.720422876828916,3757.3099607711
-0.720519971291707,3757.31996077109
-0.720704210943813,3757.3299607711
-0.720727854063412,3757.3399607711
-0.720775322327929,3757.3499607711
-0.721201806588151,3757.3599607711
-0.721733885759352,3757.3699607711
-0.722420671633334,3757.3799607711
-0.723104593158129,3757.3899607711
-0.723175241253096,3757.3999607711
-0.723183738090276,3757.4099607711
-0.722727891186773,3757.4199607711
-0.720148702035711,3757.4299607711
-0.71532551598471,3757.4399607711
-0.706762905955653,3757.44996077109
-0.695001602307706,3757.4599607711
-0.680075352821584,3757.46996077109
-0.664143400754676,3757.4799607711
-0.648520682314303,3757.48996077109
-0.634258713870555,3757.4999607711
-0.623278686337136,3757.50996077109
-0.61507712620348,3757.5199607711
-0.609825455548749,3757.52996077109
-0.607201846525797,3757.5399607711
-0.605863344048971,3757.54996077109
-0.605844369606452,3757.5599607711
-0.60655260083455,3757.56996077109
-0.607498673223292,3757.5799607711
-0.608524088812023,3757.5899607711
-0.609418343733162,3757.5999607711
-0.610563218167964,3757.6099607711
-0.61127590775164,3757.6199607711
-0.611296435963053,3757.6299607711
-0.610997478207192,3757.6399607711
-0.610009073048762,3757.6499607711
-0.608700278132507,3757.6599607711
-0.607126888157866,3757.6699607711
-0.604883723018247,3757.6799607711
-0.602130884729485,3757.6899607711
-0.599916709708075,3757.69996077109
-0.59869596957245,3757.7099607711
-0.598462113992407,3757.71996077109
-0.599518059944638,3757.7299607711
-0.601792788447606,3757.73996077109
-0.604569811135521,3757.7499607711
-0.607206177888343,3757.75996077109
-0.608217155814026,3757.7699607711
-0.608390041968312,3757.77996077109
-0.607311605822333,3757.7899607711
-0.605089312179747,3757.79996077109
-0.602124150724205,3757.8099607711
-0.598490243620736,3757.81996077109
-0.594892515981843,3757.8299607711
-0.591109922007673,3757.8399607711
-0.588085977701639,3757.8499607711
-0.585339685228644,3757.8599607711
-0.584043833704524,3757.8699607711
-0.583291256208087,3757.8799607711
-0.583123016013577,3757.8899607711
-0.583029874894223,3757.8999607711
-0.583130378302401,3757.9099607711
-0.582745992524269,3757.9199607711
-0.582423368199622,3757.9299607711
-0.582070743074802,3757.9399607711
-0.581729631263792,3757.94996077109
-0.581387247646703,3757.9599607711
-0.581224052662228,3757.96996077109
-0.581454193194233,3757.9799607711
-0.582008937135925,3757.98996077109
-0.582718709969139,3757.9999607711
-0.583286081954851,3758.00996077109
-0.584238526690675,3758.0199607711
-0.585205554160943,3758.02996077109
-0.586707363150419,3758.0399607711
-0.587753556728879,3758.04996077109
-0.588536221628794,3758.0599607711
-0.589571743586551,3758.06996077109
-0.590214331944761,3758.0799607711
-0.590529008246909,3758.0899607711
-0.59080354849037,3758.0999607711
-0.590306165133589,3758.1099607711
-0.590194014489705,3758.1199607711
-0.590155193446739,3758.1299607711
-0.590480508430355,3758.1399607711
-0.59103181706878,3758.1499607711
-0.591426271608438,3758.1599607711
-0.591290284281157,3758.1699607711
-0.591441567682867,3758.1799607711
-0.591170385032025,3758.1899607711
-0.590879998250432,3758.19996077109
-0.590461790925929,3758.2099607711
-0.59003828661146,3758.21996077109
-0.589679757030171,3758.2299607711
-0.589625954871302,3758.23996077109
-0.590015067272961,3758.2499607711
-0.590817717237876,3758.25996077109
-0.59123257266396,3758.2699607711
-0.591781363084888,3758.27996077109
-0.591595920552367,3758.2899607711
-0.590163743625691,3758.29996077109
-0.585793546458345,3758.3099607711
-0.577611187822829,3758.31996077109
-0.565800664453181,3758.3299607711
-0.550824697968049,3758.3399607711
-0.534315209261569,3758.3499607711
-0.518148173794715,3758.3599607711
-0.504081133988051,3758.3699607711
-0.492155718114019,3758.3799607711
-0.483600995742146,3758.3899607711
-0.477908386547361,3758.3999607711
-0.474952013738071,3758.4099607711
-0.47408243054089,3758.4199607711
-0.474210031388653,3758.4299607711
-0.475220710216269,3758.4399607711
-0.476196842841406,3758.44996077109
-0.4766494947652,3758.4599607711
-0.475947767228578,3758.46996077109
-0.475041428688032,3758.4799607711
-0.472980027027398,3758.48996077109
-0.470636727175681,3758.4999607711
-0.468768447863078,3758.50996077109
-0.467156487804266,3758.5199607711
-0.465734152345573,3758.52996077109
-0.46369396383297,3758.5399607711
-0.461202988760693,3758.54996077109
-0.45880704786703,3758.5599607711
-0.45688933582308,3758.56996077109
-0.456234515795947,3758.5799607711
-0.45659815369099,3758.5899607711
-0.457843013043488,3758.5999607711
-0.459773371203958,3758.6099607711
-0.461835422641941,3758.6199607711
-0.462671691849811,3758.6299607711
-0.462735055612004,3758.6399607711
-0.46082618696773,3758.6499607711
-0.457118360859322,3758.6599607711
-0.452579207201211,3758.6699607711
-0.447479479548944,3758.6799607711
-0.442552195707623,3758.6899607711
-0.438030415989046,3758.69996077109
-0.43412768301764,3758.7099607711
-0.431158772191272,3758.71996077109
-0.428748732526765,3758.7299607711
-0.427204952815772,3758.73996077109
-0.425969913413934,3758.7499607711
-0.425979741388567,3758.75996077109
-0.426461664998339,3758.7699607711
-0.427059929761639,3758.77996077109
-0.427444890443578,3758.7899607711
-0.427101051212818,3758.79996077109
-0.426582849381154,3758.8099607711
-0.425582133662558,3758.81996077109
-0.425137643160726,3758.8299607711
-0.42467823235133,3758.8399607711
-0.425203870828807,3758.8499607711
-0.426297134696447,3758.8599607711
-0.427464091000388,3758.8699607711
-0.428483262867771,3758.8799607711
-0.429190308349924,3758.8899607711
-0.429646799518425,3758.8999607711
-0.429813268049892,3758.9099607711
-0.429515244972596,3758.9199607711
-0.429600388806847,3758.9299607711
-0.43040066362132,3758.9399607711
-0.430611317919562,3758.94996077109
-0.431123864190274,3758.9599607711
-0.43130106808405,3758.96996077109
-0.431172952993019,3758.9799607711
-0.431086388556695,3758.98996077109
-0.431286363092534,3758.9999607711
-0.431273754026801,3759.00996077109
-0.431714230475724,3759.0199607711
-0.432333999461732,3759.02996077109
-0.432971080678043,3759.0399607711
-0.433105966716849,3759.04996077109
-0.433421970306841,3759.0599607711
-0.433259193163363,3759.06996077109
-0.433004668332696,3759.0799607711
-0.432615076845936,3759.0899607711
-0.432656229720089,3759.0999607711
-0.432975946120429,3759.1099607711
-0.433337926311905,3759.1199607711
-0.433659531806411,3759.1299607711
-0.434075735803472,3759.1399607711
-0.434259617627004,3759.1499607711
-0.434207475288179,3759.1599607711
-0.433475641888297,3759.1699607711
-0.431581364689617,3759.1799607711
-0.427747880823483,3759.1899607711
-0.420384443457537,3759.19996077109
-0.409129956693613,3759.2099607711
-0.394313473571975,3759.21996077109
-0.377089532581097,3759.2299607711
-0.359442589605611,3759.23996077109
-0.342367959723746,3759.2499607711
-0.32732044554347,3759.25996077109
-0.314621633425542,3759.2699607711
-0.303937146002558,3759.27996077109
-0.295848222041964,3759.2899607711
-0.289451936968577,3759.29996077109
-0.284682932766252,3759.3099607711
-0.281362405198043,3759.31996077109
-0.278752776460453,3759.3299607711
-0.276243257166133,3759.3399607711
-0.274350735383113,3759.3499607711
-0.272469428912303,3759.3599607711
-0.270567294905043,3759.3699607711
-0.268719301077408,3759.3799607711
-0.266577721272024,3759.3899607711
-0.264217449106597,3759.3999607711
-0.261944837631215,3759.4099607711
-0.259108235683346,3759.4199607711
-0.255767552206518,3759.4299607711
-0.252113904706113,3759.4399607711
-0.249291033175562,3759.44996077109
-0.24661532950437,3759.4599607711
-0.245086805777775,3759.46996077109
-0.244231005668201,3759.4799607711
-0.243944851254135,3759.48996077109
-0.24423725322825,3759.4999607711
-0.244099854003841,3759.50996077109
-0.242113814363505,3759.5199607711
-0.239074510057002,3759.52996077109
-0.23446444510627,3759.5399607711
-0.228561401472069,3759.54996077109
-0.221777245575978,3759.5599607711
-0.214553753967755,3759.56996077109
-0.207509084417026,3759.5799607711
-0.201188508992966,3759.5899607711
-0.195702170613413,3759.5999607711
-0.190510685629862,3759.6099607711
-0.185812972585493,3759.6199607711
-0.181578519027793,3759.6299607711
-0.17744218646694,3759.6399607711
-0.174080246502761,3759.6499607711
-0.171771694463393,3759.6599607711
-0.169802379972185,3759.6699607711
-0.168083545866993,3759.6799607711
-0.166477254556676,3759.6899607711
-0.164214826424557,3759.69996077109
-0.162277638584256,3759.7099607711
-0.160616585766585,3759.71996077109
-0.159296713327863,3759.7299607711
-0.158949794916413,3759.73996077109
-0.158113890227804,3759.7499607711
-0.158110168372327,3759.75996077109
-0.158144651741785,3759.7699607711
-0.157729793632057,3759.77996077109
-0.157083447406901,3759.7899607711
-0.155494041964359,3759.79996077109
-0.153809058678521,3759.8099607711
-0.152210419908223,3759.81996077109
-0.150245586296025,3759.8299607711
-0.149181242796732,3759.8399607711
-0.148410116041861,3759.8499607711
-0.147602720290073,3759.8599607711
-0.146823269870836,3759.8699607711
-0.145916316129245,3759.8799607711
-0.14421761669623,3759.8899607711
-0.142476010526493,3759.8999607711
-0.140085031066553,3759.9099607711
-0.138133966224212,3759.9199607711
-0.136873338595008,3759.9299607711
-0.135693872995254,3759.9399607711
-0.135152799563102,3759.94996077109
-0.134182397314706,3759.9599607711
-0.132985904205718,3759.96996077109
-0.131918651902469,3759.9799607711
-0.131096158397288,3759.98996077109
-0.130705293796429,3759.9999607711
-0.130123310528569,3760.00996077109
-0.129292796656345,3760.0199607711
-0.127524217381809,3760.02996077109
-0.124035437411157,3760.0399607711
-0.118015426807123,3760.04996077109
-0.108143431985989,3760.0599607711
-0.0932040926907038,3760.06996077109
-0.0729132829322187,3760.0799607711
-0.0490888496674105,3760.0899607711
-0.0231349428339793,3760.0999607711
0.00359710146482383,3760.1099607711
0.0290257815431644,3760.1199607711
0.0525343999401451,3760.1299607711
0.0732745309439941,3760.1399607711
0.0915562280775358,3760.1499607711
0.107362848448303,3760.1599607711
0.121324673594048,3760.1699607711
0.13378259908282,3760.1799607711
0.144659637390137,3760.1899607711
0.154382720070576,3760.19996077109
0.162669845358058,3760.2099607711
0.17008507807523,3760.21996077109
0.176649532430917,3760.2299607711
0.182544217915831,3760.23996077109
0.188517150072951,3760.2499607711
0.194079783011119,3760.25996077109
0.200562482101491,3760.2699607711
0.207084574581183,3760.27996077109
0.213848856351014,3760.2899607711
0.219903097371273,3760.29996077109
0.224760950071769,3760.3099607711
0.228147546097818,3760.31996077109
0.230228684787873,3760.3299607711
0.231399937435136,3760.3399607711
0.231387423626046,3760.3499607711
0.231600247342932,3760.3599607711
0.232590355723926,3760.3699607711
0.234266724716603,3760.3799607711
0.237311150487717,3760.3899607711
0.24242002929943,3760.3999607711
0.248861141015482,3760.4099607711
0.256123893294216,3760.4199607711
0.263196937417937,3760.4299607711
0.270544820280611,3760.4399607711
0.277468412494283,3760.44996077109
0.283843735436708,3760.4599607711
0.289667578394593,3760.46996077109
0.294477874530101,3760.4799607711
0.298073184979509,3760.48996077109
0.300380818926373,3760.4999607711
0.302463732234542,3760.50996077109
0.3041160881149,3760.5199607711
0.305678129526749,3760.52996077109
0.307175699834701,3760.5399607711
0.308894037739117,3760.54996077109
0.309822617238977,3760.5599607711
0.310360623957918,3760.56996077109
0.31091529526486,3760.5799607711
0.310655001671845,3760.5899607711
0.309607548161042,3760.5999607711
0.308670524621327,3760.6099607711
0.307473046429193,3760.6199607711
0.306591331552797,3760.6299607711
0.30612201917986,3760.6399607711
0.305828542450534,3760.6499607711
0.305758257309805,3760.6599607711
0.305264269375984,3760.6699607711
0.30450476714647,3760.6799607711
0.303334543039226,3760.6899607711
0.301652808582607,3760.69996077109
0.300028107192943,3760.7099607711
0.297852147671233,3760.71996077109
0.296035076419817,3760.7299607711
0.293742886373784,3760.73996077109
0.291372281374923,3760.7499607711
0.289282538854853,3760.75996077109
0.286686758562229,3760.7699607711
0.284447314369981,3760.77996077109
0.282142549857699,3760.7899607711
0.280610452116797,3760.79996077109
0.278785097933172,3760.8099607711
0.276909832826471,3760.81996077109
0.275074082210793,3760.8299607711
0.27292366130137,3760.8399607711
0.270724905662721,3760.8499607711
0.268468166421451,3760.8599607711
0.266657898287228,3760.8699607711
0.264781039645421,3760.8799607711
0.262603379629364,3760.8899607711
0.259772848880766,3760.8999607711
0.256181242345163,3760.9099607711
0.252407369860699,3760.9199607711
0.248988433089155,3760.9299607711
0.246055606311054,3760.9399607711
0.24385132926048,3760.94996077109
0.24218808425675,3760.9599607711
0.241452077100005,3760.96996077109
0.243799694943609,3760.9799607711
0.251067413543291,3760.98996077109
0.264242503863475,3760.9999607711
0.284696962256784,3761.00996077109
0.311145476942285,3761.0199607711
0.342395095537495,3761.02996077109
0.375609852811415,3761.0399607711
0.409004824872591,3761.04996077109
0.440645820462324,3761.0599607711
0.468903441507865,3761.06996077109
0.493722841116647,3761.0799607711
0.51481337154789,3761.0899607711
0.5326230742815,3761.0999607711
0.547178799444045,3761.1099607711
0.55919713124607,3761.1199607711
0.568625809909791,3761.1299607711
0.577013887957094,3761.1399607711
0.584601258682181,3761.1499607711
0.591938363214342,3761.1599607711
0.599440660373754,3761.1699607711
0.607532600473165,3761.1799607711
0.615884999840418,3761.1899607711
0.624238734699804,3761.19996077109
0.632654269043533,3761.2099607711
0.641155751468455,3761.21996077109
0.64968083918724,3761.2299607711
0.657405924251634,3761.23996077109
0.664632510222045,3761.2499607711
0.670746999129871,3761.25996077109
0.675252298993157,3761.2699607711
0.67813288796404,3761.27996077109
0.679910034666827,3761.2899607711
0.680013044704219,3761.29996077109
0.679659645824379,3761.3099607711
0.679565250672251,3761.31996077109
0.68068344290046,3761.3299607711
0.683452418709786,3761.3399607711
0.687486532901389,3761.3499607711
0.693201745680734,3761.3599607711
0.700073172052509,3761.3699607711
0.707406666164053,3761.3799607711
0.715055796237066,3761.3899607711
0.722684965096261,3761.3999607711
0.729804663073745,3761.4099607711
0.736135760163438,3761.4199607711
0.741507165492264,3761.4299607711
0.745625126660246,3761.4399607711
0.748768708519859,3761.44996077109
0.750670136517065,3761.4599607711
0.751848664541049,3761.46996077109
0.752332926617527,3761.4799607711
0.752442472539767,3761.48996077109
0.752203688281101,3761.4999607711
0.751111508548629,3761.50996077109
0.749970574908501,3761.5199607711
0.74859251709574,3761.52996077109
0.746966218815259,3761.5399607711
0.744848188432953,3761.54996077109
0.742889796576905,3761.5599607711
0.739989993311285,3761.56996077109
0.736728034906216,3761.5799607711
0.733397250430641,3761.5899607711
0.729921953573396,3761.5999607711
0.726832842630177,3761.6099607711
0.724217095087931,3761.6199607711
0.721936818569187,3761.6299607711
0.719540086552265,3761.6399607711
0.716850301043169,3761.6499607711
0.713637219914289,3761.6599607711
0.710254976818533,3761.6699607711
0.706657620204226,3761.6799607711
0.702912180671257,3761.6899607711
0.699638410306702,3761.69996077109
0.695978067717392,3761.7099607711
0.692538915581024,3761.71996077109
0.68905735443579,3761.7299607711
0.685198506452168,3761.73996077109
0.680699597434151,3761.7499607711
0.675701837811199,3761.75996077109
0.671368165957799,3761.7699607711
0.66654484443359,3761.77996077109
0.661912122486751,3761.7899607711
0.657313804375904,3761.79996077109
0.652390029494038,3761.8099607711
0.647439788861363,3761.81996077109
0.642442763994272,3761.8299607711
0.637884848591554,3761.8399607711
0.632770004245879,3761.8499607711
0.627487898512204,3761.8599607711
0.621884224461993,3761.8699607711
0.615892744746246,3761.8799607711
0.609673901428033,3761.8899607711
0.602936143241728,3761.8999607711
0.597021202727492,3761.9099607711
0.59148043051202,3761.9199607711
0.586686418004341,3761.9299607711
0.582297019586891,3761.9399607711
0.578067371006961,3761.94996077109
0.573997847772549,3761.9599607711
0.571819772707995,3761.96996077109
0.57294789524638,3761.9799607711
0.580052172778297,3761.98996077109
0.594771701076332,3761.9999607711
0.61737059902854,3762.00996077109
0.64683947369956,3762.0199607711
0.680949305645338,3762.02996077109
0.717439716409058,3762.0399607711
0.754388405663479,3762.04996077109
0.789405847197454,3762.0599607711
0.820949102046553,3762.06996077109
0.848400156681222,3762.0799607711
0.871537179327949,3762.0899607711
0.889858297540434,3762.0999607711
0.903903380363228,3762.1099607711
0.914190469309256,3762.1199607711
0.922142403965413,3762.1299607711
0.928928738462755,3762.1399607711
0.934254143967408,3762.1499607711
0.939495806220433,3762.1599607711
0.944431819860695,3762.1699607711
0.949185392623751,3762.1799607711
0.953879277498018,3762.1899607711
0.959263059227106,3762.19996077109
0.965034888423515,3762.2099607711
0.971469561560987,3762.21996077109
0.978303692915941,3762.2299607711
0.984638153892179,3762.23996077109
0.989841627329918,3762.2499607711
0.993797229880711,3762.25996077109
0.996037439346147,3762.2699607711
0.995991816723462,3762.27996077109
0.994516390835231,3762.2899607711
0.99192938330977,3762.29996077109
0.9888382637727,3762.3099607711
0.986534557141101,3762.31996077109
0.985280639619067,3762.3299607711
0.986077533662421,3762.3399607711
0.988978869597826,3762.3499607711
0.992967848591222,3762.3599607711
0.9986970423053,3762.3699607711
1.00485354280443,3762.3799607711
1.01134110317266,3762.3899607711
1.01788516109769,3762.3999607711
1.02352131002938,3762.4099607711
1.02716546289427,3762.4199607711
1.02896131308026,3762.4299607711
1.02934967371388,3762.4399607711
1.02863852754518,3762.44996077109
1.02745636756584,3762.4599607711
1.02605174177811,3762.46996077109
1.02428839890228,3762.4799607711
1.02182079072937,3762.48996077109
1.01923623279082,3762.4999607711
1.01576038843085,3762.50996077109
1.01159044675967,3762.5199607711
1.00683501725203,3762.52996077109
1.00100699228464,3762.5399607711
0.99547112102681,3762.54996077109
0.989783965700321,3762.5599607711
0.983787668228024,3762.56996077109
0.977689351826412,3762.5799607711
0.972089743364284,3762.5899607711
0.966436850557095,3762.5999607711
0.960109330719615,3762.6099607711
0.954093834231207,3762.6199607711
0.947028690048279,3762.6299607711
0.940366687377531,3762.6399607711
0.933355486707967,3762.6499607711
0.926324859720695,3762.6599607711
0.919208990253423,3762.6699607711
0.912892283362172,3762.6799607711
0.906720241382579,3762.6899607711
0.900628898028038,3762.69996077109
0.894666447296264,3762.7099607711
0.888302268904914,3762.71996077109
0.881473513694702,3762.7299607711
0.873068232090581,3762.73996077109
0.864887269793794,3762.7499607711
0.856356341696546,3762.75996077109
0.847682080261876,3762.7699607711
0.839479943532239,3762.77996077109
0.831665635651857,3762.7899607711
0.824000818277499,3762.79996077109
0.816904023781169,3762.8099607711
0.809767103484771,3762.81996077109
0.802336394618724,3762.8299607711
0.794602808453515,3762.8399607711
0.78610472437984,3762.8499607711
0.777766127971969,3762.8599607711
0.769110647388171,3762.8699607711
0.760668354795439,3762.8799607711
0.752304946649767,3762.8899607711
0.74365430336393,3762.8999607711
0.73510152641276,3762.9099607711
0.726322817663015,3762.9199607711
0.717247468914486,3762.9299607711
0.708584983378478,3762.9399607711
0.699625613391517,3762.94996077109
0.690659792069012,3762.9599607711
0.681699474014542,3762.96996077109
0.673613610826863,3762.9799607711
0.665257403902142,3762.98996077109
0.65776397330783,3762.9999607711
0.651955995670461,3763.00996077109
0.649681943083431,3763.0199607711
0.653331415076397,3763.02996077109
0.665204227466329,3763.0399607711
0.685744306690692,3763.04996077109
0.714091725032557,3763.0599607711
0.74798929904441,3763.06996077109
0.785927124298665,3763.0799607711
0.82401855787577,3763.0899607711
0.860498340200589,3763.0999607711
0.893452387575303,3763.1099607711
0.922581783599053,3763.1199607711
0.947053734558145,3763.1299607711
0.966378678389278,3763.1399607711
0.980872714937708,3763.1499607711
0.991041899935974,3763.1599607711
0.998144706377011,3763.1699607711
1.00334196572676,3763.1799607711
1.00755025918309,3763.1899607711
1.010931301623,3763.19996077109
1.01364940504029,3763.2099607711
1.01649078841366,3763.21996077109
1.01899650734668,3763.2299607711
1.02101892298976,3763.23996077109
1.02297986945987,3763.2499607711
1.02355966325972,3763.25996077109
1.02439215135961,3763.2699607711
1.02444993089443,3763.27996077109
1.02447185856427,3763.2899607711
1.02321909076815,3763.29996077109
1.02047792915103,3763.3099607711
1.01589713509091,3763.31996077109
1.00959840439807,3763.3299607711
1.00265916482444,3763.3399607711
0.995898068323814,3763.3499607711
0.991101916226647,3763.3599607711
0.988412288624776,3763.3699607711
0.987954868227077,3763.3799607711
0.98945821026225,3763.3899607711
0.99244165649219,3763.3999607711
0.997094589288281,3763.4099607711
1.00305914224561,3763.4199607711
1.00952204195553,3763.4299607711
1.01625253156721,3763.4399607711
1.02231905279299,3763.44996077109
1.02704582728389,3763.4599607711
1.0300692854139,3763.46996077109
1.03131795537505,3763.4799607711
1.03119197736921,3763.48996077109
1.02965340525347,3763.4999607711
1.02746817114186,3763.50996077109
1.02400123701438,3763.5199607711
1.02022452824671,3763.52996077109
1.01582678106011,3763.5399607711
1.01034863745043,3763.54996077109
1.00483173231155,3763.5599607711
0.998578666036803,3763.56996077109
0.992520996792101,3763.5799607711
0.986077350750325,3763.5899607711
0.979109672100882,3763.5999607711
0.971803108897366,3763.6099607711
0.963744372277427,3763.6199607711
0.955016278800983,3763.6299607711
0.945879488470996,3763.6399607711
0.936754247765328,3763.6499607711
0.928117977158036,3763.6599607711
0.919690162945938,3763.6699607711
0.91150728710497,3763.6799607711
0.903093554306962,3763.6899607711
0.895135706758604,3763.69996077109
0.887331256267707,3763.7099607711
0.879315814020344,3763.71996077109
0.871232051551007,3763.7299607711
0.862819712539819,3763.73996077109
0.854590974092889,3763.7499607711
0.845923073049751,3763.75996077109
0.837031824948158,3763.7699607711
0.82864386830756,3763.77996077109
0.820138229731232,3763.7899607711
0.811695978775436,3763.79996077109
0.802919904504991,3763.8099607711
0.793981291611166,3763.81996077109
0.784862721234727,3763.8299607711
0.775125831886954,3763.8399607711
0.765575534136206,3763.8499607711
0.75597916835316,3763.8599607711
0.746285043455993,3763.8699607711
0.736456002314664,3763.8799607711
0.727194998531332,3763.8899607711
0.717617958316225,3763.8999607711
0.707907152580643,3763.9099607711
0.698338551731629,3763.9199607711
0.688620401303829,3763.9299607711
0.678508629290163,3763.9399607711
0.668770318982858,3763.94996077109
0.658905570730948,3763.9599607711
0.649151962975096,3763.96996077109
0.639503766806048,3763.9799607711
0.629721210543719,3763.98996077109
0.620570419546243,3763.9999607711
0.613020295619639,3764.00996077109
0.608828006785446,3764.0199607711
0.611571207922766,3764.02996077109
0.621893470052289,3764.0399607711
0.641631012385256,3764.04996077109
0.670588677500958,3764.0599607711
0.707111162224831,3764.06996077109
0.748596110778594,3764.0799607711
0.792989026532101,3764.0899607711
0.836402290998722,3764.0999607711
0.877287991260512,3764.1099607711
0.913330215050426,3764.1199607711
0.943313603121791,3764.1299607711
0.967472688891167,3764.1399607711
0.985405346364417,3764.1499607711
0.999497817188197,3764.1599607711
1.00995328391355,3764.1699607711
1.01734968510455,3764.1799607711
1.02288393107642,3764.1899607711
1.02712169688969,3764.19996077109
1.03056797052061,3764.2099607711
1.0337562016387,3764.21996077109
1.03711653940774,3764.2299607711
1.04000384689901,3764.23996077109
1.04226480773819,3764.2499607711
1.04400753040619,3764.25996077109
1.04621073669815,3764.2699607711
1.04810820830213,3764.27996077109
1.04970705444174,3764.2899607711
1.05147429344514,3764.29996077109
1.0515256840336,3764.3099607711
1.04834426140894,3764.31996077109
1.04214734635845,3764.3299607711
1.03374463020826,3764.3399607711
1.02475218496926,3764.3499607711
1.01688876501587,3764.3599607711
1.01291741344124,3764.3699607711
1.01214128850465,3764.3799607711
1.01340868523691,3764.3899607711
1.01623340808906,3764.3999607711
1.01960184003629,3764.4099607711
1.02366638734082,3764.4199607711
1.02770685310418,3764.4299607711
1.0324836269202,3764.4399607711
1.03722254590876,3764.44996077109
1.04121961902592,3764.4599607711
1.04318470750792,3764.46996077109
1.04419229028678,3764.4799607711
1.04351855604904,3764.48996077109
1.04154546228455,3764.4999607711
1.03940671576126,3764.50996077109
1.03687782650823,3764.5199607711
1.03326276898751,3764.52996077109
1.02817361363583,3764.5399607711
1.02187325013146,3764.54996077109
1.01454781741406,3764.5599607711
1.00615262813095,3764.56996077109
0.998114120485496,3764.5799607711
0.989809140359192,3764.5899607711
0.980582097510316,3764.5999607711
0.970937478984701,3764.6099607711
0.960892275275717,3764.6199607711
0.950603581657993,3764.6299607711
0.940606549009267,3764.6399607711
0.931065863128115,3764.6499607711
0.921989586135826,3764.6599607711
0.91277756842336,3764.6699607711
0.90308668992171,3764.6799607711
0.893452776439792,3764.6899607711
0.883721413690482,3764.69996077109
0.874007890606664,3764.7099607711
0.864491961373894,3764.71996077109
0.855318199108946,3764.7299607711
0.845357323105316,3764.73996077109
0.834295117949766,3764.7499607711
0.822777698665099,3764.75996077109
0.811329559060392,3764.7699607711
0.799763301107888,3764.77996077109
0.789118956960185,3764.7899607711
0.778642032432272,3764.79996077109
0.768251652228725,3764.8099607711
0.757160566430523,3764.81996077109
0.746270163697334,3764.8299607711
0.734816653952797,3764.8399607711
0.724016013486797,3764.8499607711
0.713386144700977,3764.8599607711
0.702398972915664,3764.8699607711
0.691225080606368,3764.8799607711
0.679730448532274,3764.8899607711
0.668341498666552,3764.8999607711
0.657088798659496,3764.9099607711
0.646400281805967,3764.9199607711
0.636972851162208,3764.9299607711
0.628184556467502,3764.9399607711
0.618304700177492,3764.94996077109
0.607457605415454,3764.9599607711
0.595446732203494,3764.96996077109
0.58292528589534,3764.9799607711
0.570066010139687,3764.98996077109
0.558450558964569,3764.9999607711
0.547351574224803,3765.00996077109
0.536262231885038,3765.0199607711
0.525531871300868,3765.02996077109
0.514713133795894,3765.0399607711
0.504395328351426,3765.04996077109
0.494958559640687,3765.0599607711
0.48962583541928,3765.06996077109
0.489584434883991,3765.0799607711
0.496237615560391,3765.0899607711
0.512015025041454,3765.0999607711
0.537249499502933,3765.1099607711
0.571915012411605,3765.1199607711
0.614167269113863,3765.1299607711
0.66225028878957,3765.1399607711
0.711827337819321,3765.1499607711
0.759803817531791,3765.1599607711
0.803053906163164,3765.1699607711
0.84076663010416,3765.1799607711
0.872224936419792,3765.1899607711
0.896840786412206,3765.19996077109
0.917272877292503,3765.2099607711
0.932539311104335,3765.21996077109
0.944015713902166,3765.2299607711
0.95212050161195,3765.23996077109
0.957877403771917,3765.2499607711
0.962394485749168,3765.25996077109
0.966178738872195,3765.2699607711
0.970312328951779,3765.27996077109
0.974668193305562,3765.2899607711
0.9782779908128,3765.29996077109
0.981596909769732,3765.3099607711
0.984292354099568,3765.31996077109
0.987230663255007,3765.3299607711
0.99044497294627,3765.3399607711
0.994051048019553,3765.3499607711
0.996898416090132,3765.3599607711
0.997687380258079,3765.3699607711
0.995220260541602,3765.3799607711
0.989881033509451,3765.3899607711
0.982540872567289,3765.3999607711
0.97423277753455,3765.4099607711
0.967612914069264,3765.4199607711
0.961971455076532,3765.4299607711
0.959026100509444,3765.4399607711
0.958123955606584,3765.44996077109
0.959204564291016,3765.4599607711
0.96213787624082,3765.46996077109
0.966113185272983,3765.4799607711
0.971384394120038,3765.48996077109
0.977488692373951,3765.4999607711
0.982773396228862,3765.50996077109
0.986799800031532,3765.5199607711
0.989364281636748,3765.52996077109
0.990898692456605,3765.5399607711
0.991238328724381,3765.54996077109
0.99029105041926,3765.5599607711
0.988621883883928,3765.56996077109
0.985072716922235,3765.5799607711
0.979705602639494,3765.5899607711
0.973675471744242,3765.5999607711
0.965943210984508,3765.6099607711
0.957740762168251,3765.6199607711
0.950199992228265,3765.6299607711
0.942333517073449,3765.6399607711
0.933873619180299,3765.6499607711
0.924673619012402,3765.6599607711
0.914671393642418,3765.6699607711
0.903913396140451,3765.6799607711
0.892317291929654,3765.6899607711
0.881158156541251,3765.69996077109
0.870271363366231,3765.7099607711
0.859826043919334,3765.71996077109
0.848513172538309,3765.7299607711
0.837349073148737,3765.73996077109
0.825606993220153,3765.7499607711
0.814575118943153,3765.75996077109
0.804315352201095,3765.7699607711
0.794372728474987,3765.77996077109
0.784689586798707,3765.7899607711
0.77394276900243,3765.79996077109
0.762447027653198,3765.8099607711
0.750260160300991,3765.81996077109
0.738387676109924,3765.8299607711
0.727042162700702,3765.8399607711
0.715830587508487,3765.8499607711
0.704326962897171,3765.8599607711
0.692344368200606,3765.8699607711
0.67964144178727,3765.8799607711
0.667036157869553,3765.8899607711
0.654878963446623,3765.8999607711
0.643536211554328,3765.9099607711
0.63185300609855,3765.9199607711
0.620209886244396,3765.9299607711
0.608385515285938,3765.9399607711
0.596334734043845,3765.94996077109
0.584083730687422,3765.9599607711
0.571932402113515,3765.96996077109
0.561167398378872,3765.9799607711
0.550557724578384,3765.98996077109
0.53902002666195,3765.9999607711
0.52682927827216,3766.00996077109
0.514030747832789,3766.0199607711
0.501725015025368,3766.02996077109
0.489085524914906,3766.0399607711
0.47729640329686,3766.04996077109
0.466473121456446,3766.0599607711
0.454975601938005,3766.06996077109
0.443202878210186,3766.0799607711
0.431369427667044,3766.0899607711
0.419221341273202,3766.0999607711
0.407494861375659,3766.1099607711
0.396847140391874,3766.1199607711
0.38597205893481,3766.1299607711
0.376230016660502,3766.1399607711
0.368753255796847,3766.1499607711
0.3668874709869,3766.1599607711
0.373068152678279,3766.1699607711
0.389747276186097,3766.1799607711
0.417886113370154,3766.1899607711
0.455198274127465,3766.19996077109
0.498691127317196,3766.2099607711
0.54560373709309,3766.21996077109
0.59333642335602,3766.2299607711
0.638996778809145,3766.23996077109
0.681030041599907,3766.2499607711
0.71824619510441,3766.25996077109
0.750115452912166,3766.2699607711
0.775631498170637,3766.27996077109
0.79580501683236,3766.2899607711
0.811061589703813,3766.29996077109
0.822601047862286,3766.3099607711
0.831375292037628,3766.31996077109
0.838421561736846,3766.3299607711
0.84401614909219,3766.3399607711
0.848407743447045,3766.3499607711
0.851039213845988,3766.3599607711
0.852970307886263,3766.3699607711
0.85436532795992,3766.3799607711
0.855750312731609,3766.3899607711
0.857504031401865,3766.3999607711
0.85997604845624,3766.4099607711
0.861578516152392,3766.4199607711
0.86223577271804,3766.4299607711
0.861968037399719,3766.4399607711
0.859682501771158,3766.44996077109
0.854987111798409,3766.4599607711
0.848780137969105,3766.46996077109
0.840617622880883,3766.4799607711
0.831294283931699,3766.48996077109
0.821789253667304,3766.4999607711
0.813620554153957,3766.50996077109
0.807848028503342,3766.5199607711
0.804774305213387,3766.52996077109
0.80536413126212,3766.5399607711
0.807915591325343,3766.54996077109
0.811644471864996,3766.5599607711
0.815642733217666,3766.56996077109
0.819868826583543,3766.5799607711
0.823320503297483,3766.5899607711
0.826448651497195,3766.5999607711
0.829184188604746,3766.6099607711
0.830636577113714,3766.6199607711
0.830679395774306,3766.6299607711
0.828750159665588,3766.6399607711
0.825513763421907,3766.6499607711
0.820833445761491,3766.6599607711
0.815468044573271,3766.6699607711
0.809385009227985,3766.6799607711
0.802625896658067,3766.6899607711
0.795151695478813,3766.69996077109
0.786743600616826,3766.7099607711
0.777299667519335,3766.71996077109
0.767287393588905,3766.7299607711
0.756049097154341,3766.73996077109
0.744798333749247,3766.7499607711
0.733496937643354,3766.75996077109
0.721585536919271,3766.7699607711
0.70991300425302,3766.77996077109
0.697361764644008,3766.7899607711
0.684451310289637,3766.79996077109
0.672489329529314,3766.8099607711
0.66097578881816,3766.81996077109
0.65020880688238,3766.8299607711
0.638358934203856,3766.8399607711
0.625760457901084,3766.8499607711
0.612397713243754,3766.8599607711
0.599045724049924,3766.8699607711
0.586373352633626,3766.8799607711
0.575046300669431,3766.8899607711
0.563871528372222,3766.8999607711
0.552374687520861,3766.9099607711
0.540420000178872,3766.9199607711
0.527631645883044,3766.9299607711
0.514393869309782,3766.9399607711
0.500921346550102,3766.94996077109
0.488042660197678,3766.9599607711
0.475208957450826,3766.96996077109
0.46191849122608,3766.9799607711
0.448558530031547,3766.98996077109
0.43513688269925,3766.9999607711
0.421987104328906,3767.00996077109
0.40999449290573,3767.0199607711
0.398715622105639,3767.02996077109
0.387677585698875,3767.0399607711
0.376209650268537,3767.04996077109
0.364087165106313,3767.0599607711
0.351231121174571,3767.06996077109
0.33823816111444,3767.0799607711
0.325461252356676,3767.0899607711
0.312389084776853,3767.0999607711
0.29936761549313,3767.1099607711
0.285820228426813,3767.1199607711
0.27283419269098,3767.1299607711
0.260333327242817,3767.1399607711
0.248203624624387,3767.1499607711
0.238224535275439,3767.1599607711
0.228798458880332,3767.1699607711
0.218232287008955,3767.1799607711
0.206137120951682,3767.1899607711
0.193896682095673,3767.19996077109
0.18311662552731,3767.2099607711
0.176290425843535,3767.21996077109
0.178973416216569,3767.2299607711
0.190807959087657,3767.23996077109
0.211499692910906,3767.2499607711
0.239524037947229,3767.25996077109
0.272889279740186,3767.2699607711
0.31019170336094,3767.27996077109
0.349075574492212,3767.2899607711
0.388658973851551,3767.29996077109
0.426560654431329,3767.3099607711
0.458953141168519,3767.31996077109
0.485160554085253,3767.3299607711
0.505356647765312,3767.3399607711
0.520952267203226,3767.3499607711
0.532743351341786,3767.3599607711
0.543013517695636,3767.3699607711
0.551422106642492,3767.3799607711
0.556565925923812,3767.3899607711
0.558774572224938,3767.3999607711
0.558658642365466,3767.4099607711
0.556877009780278,3767.4199607711
0.554594903106295,3767.4299607711
0.553333281832828,3767.4399607711
0.552333537838122,3767.44996077109
0.550368020188561,3767.4599607711
0.546756037176377,3767.46996077109
0.542233447952067,3767.4799607711
0.536962480849762,3767.48996077109
0.53086124074986,3767.4999607711
0.524820851285513,3767.50996077109
0.518398281660576,3767.5199607711
0.509736322592884,3767.52996077109
0.498933995399291,3767.5399607711
0.487716192010816,3767.54996077109
0.477202922210304,3767.5599607711
0.468599626232466,3767.56996077109
0.464655508455837,3767.5799607711
0.464741722930386,3767.5899607711
0.466401916443818,3767.5999607711
0.468784146880101,3767.6099607711
0.470893461858616,3767.6199607711
0.473680613396101,3767.6299607711
0.477139397568704,3767.6399607711
0.482457929002606,3767.6499607711
0.487749284690031,3767.6599607711
0.491072326009393,3767.6699607711
0.490900026737993,3767.6799607711
0.488249343274652,3767.6899607711
0.483286652168486,3767.69996077109
0.476802845482904,3767.7099607711
0.471104289746314,3767.71996077109
0.46577972741692,3767.7299607711
0.459793956815193,3767.73996077109
0.452478681064518,3767.7499607711
0.444436668352975,3767.75996077109
0.435864781437217,3767.7699607711
0.427138969359775,3767.77996077109
0.419927140066842,3767.7899607711
0.412609294261853,3767.79996077109
0.403973570818745,3767.8099607711
0.393247836225985,3767.81996077109
0.381151784897828,3767.8299607711
0.368636263693251,3767.8399607711
0.356627882428476,3767.8499607711
0.346734893249661,3767.8599607711
0.338203859305898,3767.8699607711
0.329092981575718,3767.8799607711
0.31842041026494,3767.8899607711
0.307175818145781,3767.8999607711
0.295833278558613,3767.9099607711
0.284288013126991,3767.9199607711
0.274058548598769,3767.9299607711
0.264272389445993,3767.9399607711
0.253418075002468,3767.94996077109
0.241476363232939,3767.9599607711
0.228469834402033,3767.96996077109
0.215928967203591,3767.9799607711
0.204227426294053,3767.98996077109
0.195064090991957,3767.9999607711
0.186747078523729,3768.00996077109
0.1779436780155,3768.0199607711
0.167238580986844,3768.02996077109
0.155133567546594,3768.0399607711
0.142435052442035,3768.04996077109
0.130146487546207,3768.0599607711
0.119967926076775,3768.06996077109
0.110790615256369,3768.0799607711
0.101252850635242,3768.0899607711
0.0900605310819755,3768.0999607711
0.0783351782907624,3768.1099607711
0.0654399724756137,3768.1199607711
0.053433986285089,3768.1299607711
0.0415719389852485,3768.1399607711
0.030618634767732,3768.1499607711
0.0221216282146536,3768.1599607711
0.0140207210111031,3768.1699607711
0.00595769588658755,3768.1799607711
-0.00215940682522615,3768.1899607711
-0.00682961436871599,3768.19996077109
-0.00572759133612133,3768.2099607711
0.0032418019815439,3768.21996077109
0.0230064786402097,3768.2299607711
0.0513807607835753,3768.23996077109
0.0849116554693091,3768.2499607711
0.121072926230869,3768.25996077109
0.158290030464374,3768.2699607711
0.19513577051556,3768.27996077109
0.229732456943521,3768.2899607711
0.262515340780849,3768.29996077109
0.292053666168351,3768.3099607711
0.316019212068094,3768.31996077109
0.333743163747645,3768.3299607711
0.346891060120378,3768.3399607711
0.355971827720775,3768.3499607711
0.362465718747897,3768.3599607711
0.368445112568679,3768.3699607711
0.373835807963815,3768.3799607711
0.377922243936613,3768.3899607711
0.379773017062553,3768.3999607711
0.380653772491079,3768.4099607711
0.381432227222115,3768.4199607711
0.381635672396345,3768.4299607711
0.384188017182796,3768.4399607711
0.387361994857195,3768.44996077109
0.38968524906009,3768.4599607711
0.390534901101222,3768.46996077109
0.389508479007155,3768.4799607711
0.387435089046573,3768.48996077109
0.383444406233792,3768.4999607711
0.379592606993364,3768.50996077109
0.374847551250968,3768.5199607711
0.367927097446358,3768.52996077109
0.359701191165626,3768.5399607711
0.351148279225256,3768.54996077109
0.345008171447506,3768.5599607711
0.340797370877714,3768.56996077109
0.341162715923947,3768.5799607711
0.344081660262917,3768.5899607711
0.347676690314396,3768.5999607711
0.350948688363639,3768.6099607711
0.353342326616332,3768.6199607711
0.356101901847837,3768.6299607711
0.357921713600968,3768.6399607711
0.361335733169764,3768.6499607711
0.364103874102287,3768.6599607711
0.365299557443845,3768.6699607711
0.364699639965904,3768.6799607711
0.36196782335631,3768.6899607711
0.357873890030653,3768.69996077109
0.353112244975317,3768.7099607711
0.34958254662338,3768.71996077109
0.346099841966202,3768.7299607711
0.340622286472227,3768.73996077109
0.332912345986782,3768.7499607711
0.323591174228935,3768.75996077109
0.314010557489568,3768.7699607711
0.304035338643443,3768.77996077109
0.295990468725675,3768.7899607711
0.287899187885015,3768.79996077109
0.278746276892927,3768.8099607711
0.268480546239995,3768.81996077109
0.257347624177694,3768.8299607711
0.245949301106569,3768.8399607711
0.2354855475518,3768.8499607711
0.226997458775348,3768.8599607711
0.219147685747371,3768.8699607711
0.211041996533321,3768.8799607711
0.20140506790319,3768.8899607711
0.190641028994995,3768.8999607711
0.17985831502882,3768.9099607711
0.168883342497153,3768.9199607711
0.160594712527315,3768.9299607711
0.152805665028079,3768.9399607711
0.143996421403143,3768.94996077109
0.134334800784618,3768.9599607711
0.123404295527494,3768.96996077109
0.111944960184459,3768.9799607711
0.0997690583130567,3768.98996077109
0.0897510486484464,3768.9999607711
0.0804830850165892,3769.00996077109
0.0706184846407076,3769.0199607711
0.0597883962580156,3769.02996077109
0.0485482457775611,3769.0399607711
0.0375087852570306,3769.04996077109
0.026912071884891,3769.0599607711
0.0187960065296486,3769.06996077109
0.0112556062920771,3769.0799607711
0.00292086043551829,3769.0899607711
-0.0068666419434671,3769.0999607711
-0.0180963273343786,3769.1099607711
-0.0296913796342872,3769.1199607711
-0.0406522655538003,3769.1299607711
-0.0504905497541398,3769.1399607711
-0.0604127438370477,3769.1499607711
-0.0680846458517367,3769.1599607711
-0.0746851733185508,3769.1699607711
-0.0824271220390935,3769.1799607711
-0.0915876706907451,3769.1899607711
-0.101919629514428,3769.19996077109
-0.112367937976051,3769.2099607711
-0.121861604834178,3769.21996077109
-0.125389635811545,3769.2299607711
-0.122346160160423,3769.23996077109
-0.111085606206365,3769.2499607711
-0.0914578695472341,3769.25996077109
-0.0640829987163119,3769.2699607711
-0.0299492997930052,3769.27996077109
0.00828205348831096,3769.2899607711
0.0509694473278631,3769.29996077109
0.0933099809469411,3769.3099607711
0.1329679968381,3769.31996077109
0.167847515401657,3769.3299607711
0.197576845074748,3769.3399607711
0.222897462792484,3769.3499607711
0.243999896995837,3769.3599607711
0.262769297353642,3769.3699607711
0.278900624154291,3769.3799607711
0.29101402416988,3769.3899607711
0.298776323807874,3769.3999607711
0.303808362799916,3769.4099607711
0.306278643918113,3769.4199607711
0.308513118805905,3769.4299607711
0.312226851576222,3769.4399607711
0.316950830292558,3769.44996077109
0.321108323213221,3769.4599607711
0.323606204812083,3769.46996077109
0.32563551916195,3769.4799607711
0.32759091984983,3769.48996077109
0.329507158470613,3769.4999607711
0.333041047591334,3769.50996077109
0.336860124174137,3769.5199607711
0.338403977199107,3769.52996077109
0.336402487520275,3769.5399607711
0.330670321132697,3769.54996077109
0.32228380121334,3769.5599607711
0.31288616484435,3769.56996077109
0.305621461754565,3769.5799607711
0.300885000907278,3769.5899607711
0.29809833462091,3769.5999607711
0.296712452731438,3769.6099607711
0.296796298757341,3769.6199607711
0.298449689243383,3769.6299607711
0.30149062650327,3769.6399607711
0.307493957580142,3769.6499607711
0.314330365101151,3769.6599607711
0.320469054700846,3769.6699607711
0.324427256877103,3769.6799607711
0.326474495743783,3769.6899607711
0.32707514276992,3769.69996077109
0.326562583625768,3769.7099607711
0.32713398783112,3769.71996077109
0.326926890425094,3769.7299607711
0.325110916048054,3769.73996077109
0.320944957813565,3769.7499607711
0.315282504776677,3769.75996077109
0.308721269651849,3769.7699607711
0.30201194477135,3769.77996077109
0.297208432871363,3769.7899607711
0.292525724921368,3769.79996077109
0.287254020412856,3769.8099607711
0.279698700796499,3769.81996077109
0.270624714703818,3769.8299607711
0.261305042760601,3769.8399607711
0.251552085707212,3769.8499607711
0.243358493341656,3769.8599607711
0.235850685057948,3769.8699607711
0.227737954089531,3769.8799607711
0.217695451178361,3769.8899607711
0.206847792649309,3769.8999607711
0.195908582490225,3769.9099607711
0.185024512927793,3769.9199607711
0.176212175585897,3769.9299607711
0.168467661784358,3769.9399607711
0.160354204505145,3769.94996077109
0.150673106733607,3769.9599607711
0.140245107058879,3769.96996077109
0.129407680776748,3769.9799607711
0.118345595465615,3769.98996077109
0.109474906840537,3769.9999607711
0.101791773415901,3770.00996077109
0.093493645499654,3770.0199607711
0.0843190847400033,3770.02996077109
0.0742781685819512,3770.0399607711
0.0633833611039982,3770.04996077109
0.0526092434173183,3770.0599607711
0.0437393993772928,3770.06996077109
0.0350494306358848,3770.0799607711
0.0259658846039064,3770.0899607711
0.0153005326580859,3770.0999607711
0.00379151980885052,3770.1099607711
-0.00810249187208947,3770.1199607711
-0.0192277515523987,3770.1299607711
-0.029618162830526,3770.1399607711
-0.0395818200385077,3770.1499607711
-0.0480222960092463,3770.1599607711
-0.0564776432422554,3770.1699607711
-0.0662994100442428,3770.1799607711
-0.077905033178731,3770.1899607711
-0.0904185305276072,3770.19996077109
-0.102465041930296,3770.2099607711
-0.114127720496895,3770.21996077109
-0.123048359307409,3770.2299607711
-0.129821776036838,3770.23996077109
-0.134582215285844,3770.2499607711
-0.135755293347721,3770.25996077109
-0.130391292383524,3770.2699607711
-0.116004289188231,3770.27996077109
-0.0922031285499794,3770.2899607711
-0.0581530850339138,3770.29996077109
-0.0173697529849373,3770.3099607711
0.0253902752774079,3770.31996077109
0.0682869521996135,3770.3299607711
0.109155529858977,3770.3399607711
0.146956539275405,3770.3499607711
0.181027045248698,3770.3599607711
0.212199859128117,3770.3699607711
0.238598099420758,3770.3799607711
0.258620765889888,3770.3899607711
0.272739483851969,3770.3999607711
0.282948631682833,3770.4099607711
0.290642065574875,3770.4199607711
0.296819677094766,3770.4299607711
0.303727421217273,3770.4399607711
0.310102688400232,3770.44996077109
0.315319612089297,3770.4599607711
0.318301668835656,3770.46996077109
0.320149322663765,3770.4799607711
0.321395795294077,3770.48996077109
0.322509671681531,3770.4999607711
0.325344176680237,3770.50996077109
0.328830637685039,3770.5199607711
0.331145378692733,3770.52996077109
0.331530437105129,3770.5399607711
0.329213411649079,3770.54996077109
0.324522039393152,3770.5599607711
0.318292900440249,3770.56996077109
0.312475659632761,3770.5799607711
0.306170543895433,3770.5899607711
0.299445492615772,3770.5999607711
0.292726192128128,3770.6099607711
0.287846314741493,3770.6199607711
0.285524929440308,3770.6299607711
0.285612543312725,3770.6399607711
0.289952436799959,3770.6499607711
0.296536660917655,3770.6599607711
0.303542263664979,3770.6699607711
0.309388805369274,3770.6799607711
0.31474023049777,3770.6899607711
0.31898328014319,3770.69996077109
0.32254669497882,3770.7099607711
0.326777883434287,3770.71996077109
0.331190532236282,3770.7299607711
0.332483191407718,3770.73996077109
0.331198511379575,3770.7499607711
0.32766895900583,3770.75996077109
0.323084440169694,3770.7699607711
0.317448877883001,3770.77996077109
0.3131975590473,3770.7899607711
0.309034076884125,3770.79996077109
0.30378997714701,3770.8099607711
0.296532261661594,3770.81996077109
0.287811299654933,3770.8299607711
0.27895958237728,3770.8399607711
0.269632784083005,3770.8499607711
0.262240750452385,3770.8599607711
0.255407269198178,3770.8699607711
0.247457178754006,3770.8799607711
0.237554409642435,3770.8899607711
0.226687406519648,3770.8999607711
0.21542726863931,3770.9099607711
0.204781346035031,3770.9199607711
0.196040982213495,3770.9299607711
0.187606541252518,3770.9399607711
0.178706819147579,3770.94996077109
0.168208256505423,3770.9599607711
0.157205019192103,3770.96996077109
0.146492777979695,3770.9799607711
0.135736756539208,3770.98996077109
0.127810455423837,3770.9999607711
0.120190474373423,3771.00996077109
0.112150101695328,3771.0199607711
0.102677069869383,3771.02996077109
0.0919451632813099,3771.0399607711
0.0813881677185059,3771.04996077109
0.0705974338091891,3771.0599607711
0.0620678659973145,3771.06996077109
0.0534519904951233,3771.0799607711
0.0440811787628583,3771.0899607711
0.033897466416902,3771.0999607711
0.0233752239910369,3771.1099607711
0.012288048207452,3771.1199607711
0.00166741800787302,3771.1299607711
-0.00860399521517013,3771.1399607711
-0.018929871190223,3771.1499607711
-0.0273236477746752,3771.1599607711
-0.0352704169070003,3771.1699607711
-0.043846644540608,3771.1799607711
-0.0534095056971073,3771.1899607711
-0.063008077097017,3771.19996077109
-0.0699818704147184,3771.2099607711
-0.071913048237778,3771.21996077109
-0.0636950393043341,3771.2299607711
-0.0458915597397102,3771.23996077109
-0.0191538583628151,3771.2499607711
0.0146190493215408,3771.25996077109
0.0539289115055557,3771.2699607711
0.0960639597119874,3771.27996077109
0.1398785764966,3771.2899607711
0.18420005346032,3771.29996077109
0.226888507774328,3771.3099607711
0.263990112817019,3771.31996077109
0.294866024784788,3771.3299607711
0.320889813380798,3771.3399607711
0.341147270695816,3771.3499607711
0.357234378464961,3771.3599607711
0.371194412038624,3771.3699607711
0.382429684550462,3771.3799607711
0.390134783771089,3771.3899607711
0.394577796262752,3771.3999607711
0.396393089512471,3771.4099607711
0.396767149371483,3771.4199607711
0.396688184226889,3771.4299607711
0.398267778725722,3771.4399607711
0.400716432673132,3771.44996077109
0.402437907535833,3771.4599607711
0.402872822784646,3771.46996077109
0.402230171822596,3771.4799607711
0.400167412707911,3771.48996077109
0.396588914981608,3771.4999607711
0.392969627726449,3771.50996077109
0.387221855777047,3771.5199607711
0.379099670143079,3771.52996077109
0.369095679105223,3771.5399607711
0.358611762156548,3771.54996077109
0.350453673209435,3771.5599607711
0.344990065085562,3771.56996077109
0.345400721240483,3771.5799607711
0.349696068538518,3771.5899607711
0.355391599280863,3771.5999607711
0.361357406418376,3771.6099607711
0.366750531661353,3771.6199607711
0.371830003703517,3771.6299607711
0.376164189237374,3771.6399607711
0.381401713101016,3771.6499607711
0.386461752370224,3771.6599607711
0.389530952476883,3771.6699607711
0.390200554023614,3771.6799607711
0.389232901986546,3771.6899607711
0.38689279308972,3771.69996077109
0.383071944800443,3771.7099607711
0.380178215032174,3771.71996077109
0.376987110992109,3771.7299607711
0.372205494793565,3771.73996077109
0.36554174802168,3771.7499607711
0.357361206792608,3771.75996077109
0.348308822991332,3771.7699607711
0.338875929859571,3771.77996077109
0.330521526857148,3771.7899607711
0.322693455020202,3771.79996077109
0.314008222570845,3771.8099607711
0.303927565709208,3771.81996077109
0.292805431729276,3771.8299607711
0.281539206405666,3771.8399607711
0.269958578451767,3771.8499607711
0.260385201274567,3771.8599607711
0.251200754220955,3771.8699607711
0.241521051560702,3771.8799607711
0.231165476965332,3771.8899607711
0.219959438976735,3771.8999607711
0.208759284817138,3771.9099607711
0.196944205869409,3771.9199607711
0.187514286292689,3771.9299607711
0.179141586904012,3771.9399607711
0.170244030711209,3771.94996077109
0.160370036929904,3771.9599607711
0.149540904540873,3771.96996077109
0.137962239468143,3771.9799607711
0.126636817954606,3771.98996077109
0.116730604183528,3771.9999607711
0.107927885896077,3772.00996077109
0.0986123322969352,3772.0199607711
0.0882744375124842,3772.02996077109
0.0775829192593297,3772.0399607711
0.0659867654972797,3772.04996077109
0.0541459090516668,3772.0599607711
0.0439258886241725,3772.06996077109
0.0348481176515672,3772.0799607711
0.025310797148655,3772.0899607711
0.0141627628646351,3772.0999607711
0.00168373235090823,3772.1099607711
-0.0112160216552181,3772.1199607711
-0.0241500188833269,3772.1299607711
-0.0364552495730036,3772.1399607711
-0.04841539670488,3772.1499607711
-0.0577542086583447,3772.1599607711
-0.0654971575837898,3772.1699607711
-0.0733915598669025,3772.1799607711
-0.0822354588045014,3772.1899607711
-0.0901420759288944,3772.19996077109
-0.0944563959222776,3772.2099607711
-0.0921956093335523,3772.21996077109
-0.0781093221910937,3772.2299607711
-0.0528749841661877,3772.23996077109
-0.0175511522231144,3772.2499607711
0.0256577129815319,3772.25996077109
0.0741435817445328,3772.2699607711
0.12539019700084,3772.27996077109
0.176614141185232,3772.2899607711
0.22793498592976,3772.29996077109
0.27581384608765,3772.3099607711
0.318754122089234,3772.31996077109
0.354834326674996,3772.3299607711
0.384517756062673,3772.3399607711
0.408718476818674,3772.3499607711
0.427490021669937,3772.3599607711
0.444246497876601,3772.3699607711
0.458564057766021,3772.3799607711
0.46992445918798,3772.3899607711
0.479109973312383,3772.3999607711
0.486244655338999,3772.4099607711
0.492554177639087,3772.4199607711
0.497575801602699,3772.4299607711
0.504097523281759,3772.4399607711
0.510872376831431,3772.44996077109
0.517478847836081,3772.4599607711
0.522816330443991,3772.46996077109
0.527359152712779,3772.4799607711
0.531002584405078,3772.48996077109
0.533693518323775,3772.4999607711
0.53627443382931,3772.50996077109
0.537006472662577,3772.5199607711
0.534316373965776,3772.52996077109
0.527625994506774,3772.5399607711
0.518620772017068,3772.54996077109
0.50975128869651,3772.5599607711
0.502621249898015,3772.56996077109
0.499807483969076,3772.5799607711
0.500533911108706,3772.5899607711
0.502977695548823,3772.5999607711
0.506272540146929,3772.6099607711
0.510240680364366,3772.6199607711
0.514452138583282,3772.6299607711
0.519351806895335,3772.6399607711
0.526299753893333,3772.6499607711
0.533436783668354,3772.6599607711
0.539692855340818,3772.6699607711
0.543082396526497,3772.6799607711
0.544813653677946,3772.6899607711
0.543981285624514,3772.69996077109
0.542476493894925,3772.7099607711
0.541410977079329,3772.71996077109
0.5396026081191,3772.7299607711
0.536198723743177,3772.73996077109
0.530657847508927,3772.7499607711
0.523257562207413,3772.75996077109
0.514369570261862,3772.7699607711
0.504913130349868,3772.77996077109
0.497118650386743,3772.7899607711
0.489799211102681,3772.79996077109
0.481157353920973,3772.8099607711
0.471218506519549,3772.81996077109
0.460090267339109,3772.8299607711
0.448076906100477,3772.8399607711
0.435325532211314,3772.8499607711
0.424945669509767,3772.8599607711
0.415397727470311,3772.8699607711
0.404636646193973,3772.8799607711
0.393113161019047,3772.8899607711
0.380338392277812,3772.8999607711
0.367032873111751,3772.9099607711
0.35333939905593,3772.9199607711
0.342260531135861,3772.9299607711
0.331342212462451,3772.9399607711
0.320477058655629,3772.94996077109
0.308520114986863,3772.9599607711
0.295869190370566,3772.96996077109
0.284006030379409,3772.9799607711
0.271500408402915,3772.98996077109
0.261086224804209,3772.9999607711
0.250765291100645,3773.00996077109
0.23967688922165,3773.0199607711
0.227250856979182,3773.02996077109
0.214053616780484,3773.0399607711
0.201048402934953,3773.04996077109
0.18789132897126,3773.0599607711
0.176689908758553,3773.06996077109
0.166392201029018,3773.0799607711
0.155770868601079,3773.0899607711
0.14423299944293,3773.0999607711
0.13193585997369,3773.1099607711
0.119641850354514,3773.1199607711
0.10779854815004,3773.1299607711
0.0964953405721397,3773.1399607711
0.0850934520855967,3773.1499607711
0.0760438995460379,3773.1599607711
0.0669535974136361,3773.1699607711
0.0566728990651397,3773.1799607711
0.0448285723002053,3773.1899607711
0.0318390989794743,3773.19996077109
0.0187575433917733,3773.2099607711
0.00507091140263861,3773.21996077109
-0.00530633683245597,3773.2299607711
-0.0121431855675798,3773.23996077109
-0.0135418987916494,3773.2499607711
-0.0073830899276681,3773.25996077109
0.00887508219145809,3773.2699607711
0.035998983290039,3773.27996077109
0.0735300064527845,3773.2899607711
0.120791113595787,3773.29996077109
0.174747070009267,3773.3099607711
0.231443644380203,3773.31996077109
0.286875575902076,3773.3299607711
0.339715303471234,3773.3399607711
0.387436079166825,3773.3499607711
0.428666196498435,3773.3599607711
0.465049250606518,3773.3699607711
0.495373906330494,3773.3799607711
0.519122695727663,3773.3899607711
0.536630564034858,3773.3999607711
0.549530102818408,3773.4099607711
0.55939250578588,3773.4199607711
0.567269823669917,3773.4299607711
0.576012717360916,3773.4399607711
0.584263232463296,3773.44996077109
0.59095137773524,3773.4599607711
0.595972994518646,3773.46996077109
0.599957016335452,3773.4799607711
0.603239715262038,3773.48996077109
0.606925576558196,3773.4999607711
0.611922975884813,3773.50996077109
0.616998642006622,3773.5199607711
0.620717917429312,3773.52996077109
0.621486218454555,3773.5399607711
0.618632490599262,3773.54996077109
0.613246184617446,3773.5599607711
0.6049371472593,3773.56996077109
0.596984338708993,3773.5799607711
0.58881342601709,3773.5899607711
0.580868002373862,3773.5999607711
0.574305517120311,3773.6099607711
0.569017483849982,3773.6199607711
0.566681988083826,3773.6299607711
0.567574212966954,3773.6399607711
0.572511453505597,3773.6499607711
0.579693793794643,3773.6599607711
0.586701939371159,3773.6699607711
0.592480060751869,3773.6799607711
0.596906128188786,3773.6899607711
0.600092637719033,3773.69996077109
0.602126307563626,3773.7099607711
0.605344991166604,3773.71996077109
0.607575052547785,3773.7299607711
0.607687964070292,3773.73996077109
0.604881699448926,3773.7499607711
0.59959697997715,3773.75996077109
0.592913098776148,3773.7699607711
0.584495636102439,3773.77996077109
0.577369181327518,3773.7899607711
0.570538345668941,3773.79996077109
0.56221962142203,3773.8099607711
0.551776016132743,3773.81996077109
0.539924521968063,3773.8299607711
0.526816294040013,3773.8399607711
0.513346645188332,3773.8499607711
0.501923050457124,3773.8599607711
0.490619951247328,3773.8699607711
0.478234891291977,3773.8799607711
0.464259452096273,3773.8899607711
0.449237049926968,3773.8999607711
0.43465262452829,3773.9099607711
0.420457647289357,3773.9199607711
0.408573335745617,3773.9299607711
0.397647073982157,3773.9399607711
0.386179292676473,3773.94996077109
0.373897443556298,3773.9599607711
0.360809019846156,3773.96996077109
0.347440061055684,3773.9799607711
0.334119319432463,3773.98996077109
0.322706615302933,3773.9999607711
0.311893277685615,3774.00996077109
0.300022703820708,3774.0199607711
0.286709674115687,3774.02996077109
0.272108702005935,3774.0399607711
0.256835276025883,3774.04996077109
0.241820541851515,3774.0599607711
0.228916927342558,3774.06996077109
0.216827128063008,3774.0799607711
0.204391882897051,3774.0899607711
0.191062517662015,3774.0999607711
0.176784361385317,3774.1099607711
0.162427684696424,3774.1199607711
0.148790702812822,3774.1299607711
0.135935787476717,3774.1399607711
0.123262966793202,3774.1499607711
0.112980108370588,3774.1599607711
0.10355430538572,3774.1699607711
0.0922500862788044,3774.1799607711
0.0794964249589234,3774.1899607711
0.0657823990240542,3774.19996077109
0.0515609461747825,3774.2099607711
0.0372866158909098,3774.21996077109
0.0259330453620198,3774.2299607711
0.015155545876738,3774.23996077109
0.00439635167338053,3774.2499607711
-0.00575955228951212,3774.25996077109
-0.0124191964435192,3774.2699607711
-0.0116338981596396,3774.27996077109
-0.00150609647979595,3774.2899607711
0.0220969611281203,3774.29996077109
0.0575612296038171,3774.3099607711
0.101853945581605,3774.31996077109
0.152532188193141,3774.3299607711
0.206429723278989,3774.3399607711
0.260407046560583,3774.3499607711
0.312293653868565,3774.3599607711
0.362475962947719,3774.3699607711
0.407132659269882,3774.3799607711
0.445089693232716,3774.3899607711
0.47526752132092,3774.3999607711
0.498343979007061,3774.4099607711
0.515960884409303,3774.4199607711
0.528759380700723,3774.4299607711
0.539737138530784,3774.4399607711
0.548579434239721,3774.44996077109
0.554457634830446,3774.4599607711
0.558000055302453,3774.46996077109
0.560042304356941,3774.4799607711
0.561307382064984,3774.48996077109
0.56231531371819,3774.4999607711
0.565016104504616,3774.50996077109
0.568262316762684,3774.5199607711
0.570164513654551,3774.52996077109
0.570583074892695,3774.5399607711
0.568760856276389,3774.54996077109
0.56481860982526,3774.5599607711
0.55862133717536,3774.56996077109
0.55204963310094,3774.5799607711
0.543569073673127,3774.5899607711
0.532955977731514,3774.5999607711
0.521139916885012,3774.6099607711
0.509592485091442,3774.6199607711
0.500471547022595,3774.6299607711
0.495067058937043,3774.6399607711
0.495236154596538,3774.6499607711
0.500350219443884,3774.6599607711
0.507727685086801,3774.6699607711
0.515254006281372,3774.6799607711
0.522531139633024,3774.6899607711
0.528561600377355,3774.69996077109
0.533102258421777,3774.7099607711
0.537752653857414,3774.71996077109
0.541721770330078,3774.7299607711
0.543843014038021,3774.73996077109
0.543685597467212,3774.7499607711
0.541839790276821,3774.75996077109
0.538126582031596,3774.7699607711
0.532923188151134,3774.77996077109
0.528422674747434,3774.7899607711
0.523135212062518,3774.79996077109
0.516477534889944,3774.8099607711
0.508272268792456,3774.81996077109
0.498728301647435,3774.8299607711
0.488201868902762,3774.8399607711
0.476765003633012,3774.8499607711
0.466264957842791,3774.8599607711
0.455828079108825,3774.8699607711
0.444747014816107,3774.8799607711
0.432425756179449,3774.8899607711
0.418992152819132,3774.8999607711
0.404191082246801,3774.9099607711
0.389142057752937,3774.9199607711
0.376030180911266,3774.9299607711
0.3637286683002,3774.9399607711
0.351147187426567,3774.94996077109
0.337631695815375,3774.9599607711
0.324016514873563,3774.96996077109
0.310690553365635,3774.9799607711
0.297958622307323,3774.98996077109
0.287287315171904,3774.9999607711
0.278162526945889,3775.00996077109
0.268229019468747,3775.0199607711
0.256769167273635,3775.02996077109
0.244147451160493,3775.0399607711
0.230601564597593,3775.04996077109
0.216836886071043,3775.0599607711
0.205213219016041,3775.06996077109
0.194062806027246,3775.0799607711
0.182067149818918,3775.0899607711
0.169218729984852,3775.0999607711
0.15544008410011,3775.1099607711
0.140919708530903,3775.1199607711
0.126479266781692,3775.1299607711
0.112779001210718,3775.1399607711
0.09956486846748,3775.1499607711
0.0885685547210993,3775.1599607711
0.0784110330565691,3775.1699607711
0.0676562455218707,3775.1799607711
0.0546360761600401,3775.1899607711
0.0414802854716189,3775.19996077109
0.0280422285218349,3775.2099607711
0.0173589071637,3775.21996077109
0.0133421656335449,3775.2299607711
0.0176484442697798,3775.23996077109
0.0323021045168449,3775.2499607711
0.0571508408267605,3775.25996077109
0.092872021494709,3775.2699607711
0.13826522488924,3775.27996077109
0.190970071152234,3775.2899607711
0.249184372601814,3775.29996077109
0.30836575104338,3775.3099607711
0.364794136032408,3775.31996077109
0.414989426284679,3775.3299607711
0.457814552253272,3775.3399607711
0.493418916715916,3775.3499607711
0.520975753479234,3775.3599607711
0.5449359026852,3775.3699607711
0.56326098105473,3775.3799607711
0.577254234285567,3775.3899607711
0.586286935246913,3775.3999607711
0.591548676600551,3775.4099607711
0.594225405659578,3775.4199607711
0.595497515959242,3775.4299607711
0.597938645815811,3775.4399607711
0.600855515801044,3775.44996077109
0.602810150344677,3775.4599607711
0.603679391687591,3775.46996077109
0.604366833598542,3775.4799607711
0.604444891730137,3775.48996077109
0.603761333777352,3775.4999607711
0.603351664541226,3775.50996077109
0.60106968119675,3775.5199607711
0.594869696811769,3775.52996077109
0.584443488724041,3775.5399607711
0.570783559148292,3775.54996077109
0.556259976492504,3775.5599607711
0.543128230312111,3775.56996077109
0.534646215156747,3775.5799607711
0.530431471672594,3775.5899607711
0.529370439771959,3775.5999607711
0.530556480353328,3775.6099607711
0.533600964398373,3775.6199607711
0.538652742310055,3775.6299607711
0.54467407960349,3775.6399607711
0.553245272042924,3775.6499607711
0.56186812173179,3775.6599607711
0.569460671419482,3775.6699607711
0.573821001984818,3775.6799607711
0.575798731855052,3775.6899607711
0.575706556277174,3775.69996077109
0.572972585873684,3775.7099607711
0.570283776788567,3775.71996077109
0.565739030489687,3775.7299607711
0.559316441499893,3775.73996077109
0.550749818786466,3775.7499607711
0.540201079195669,3775.75996077109
0.52917416081211,3775.7699607711
0.517765721432641,3775.77996077109
0.507509184286379,3775.7899607711
0.498011752590247,3775.79996077109
0.487366333465627,3775.8099607711
0.475004024318554,3775.81996077109
0.461817134973833,3775.8299607711
0.448024649535899,3775.8399607711
0.433568947239709,3775.8499607711
0.421262445635245,3775.8599607711
0.409663814416133,3775.8699607711
0.396362544114025,3775.8799607711
0.382180864166887,3775.8899607711
0.366832064099192,3775.8999607711
0.351699769562598,3775.9099607711
0.336663188311341,3775.9199607711
0.324143423042329,3775.9299607711
0.311670707106531,3775.9399607711
0.29847981075086,3775.94996077109
0.284393922842939,3775.9599607711
0.269434911695865,3775.96996077109
0.255200641382472,3775.9799607711
0.240861216777406,3775.98996077109
0.228591162015642,3775.9999607711
0.217035847078044,3776.00996077109
0.20473351280003,3776.0199607711
0.191067861153518,3776.02996077109
0.176281704290598,3776.0399607711
0.162112684395428,3776.04996077109
0.147376678005901,3776.0599607711
0.135280637688938,3776.06996077109
0.123298286946383,3776.0799607711
0.110946235950048,3776.0899607711
0.0974658837535739,3776.0999607711
0.0832624793522908,3776.1099607711
0.0692619469706817,3776.1199607711
0.0552046733961898,3776.1299607711
0.0417367273976612,3776.1399607711
0.0281306905986614,3776.1499607711
0.0169248280150629,3776.1599607711
0.00588859697253197,3776.1699607711
-0.00569042015582824,3776.1799607711
-0.0186289599378013,3776.1899607711
-0.032311699918608,3776.19996077109
-0.0454927990733117,3776.2099607711
-0.0578671422854168,3776.21996077109
-0.0650092723325754,3776.2299607711
-0.0659061901431895,3776.23996077109
-0.0578060177165186,3776.2499607711
-0.0391308035353613,3776.25996077109
-0.00811380161386949,3776.2699607711
0.0350174676812169,3776.27996077109
0.0887594653622514,3776.2899607711
0.151266173763826,3776.29996077109
0.218373081031223,3776.3099607711
0.284532019969076,3776.31996077109
0.34520892468499,3776.3299607711
0.398257693025159,3776.3399607711
0.443691406503405,3776.3499607711
0.480533693074956,3776.3599607711
0.511021759283742,3776.3699607711
0.53557201944834,3776.3799607711
0.553870998639139,3776.3899607711
0.566995836413591,3776.3999607711
0.576362322217769,3776.4099607711
0.583166673705507,3776.4199607711
0.588376886632094,3776.4299607711
0.594548303078156,3776.4399607711
0.601012159288489,3776.44996077109
0.607377061742162,3776.4599607711
0.612477139382256,3776.46996077109
0.616710449795877,3776.4799607711
0.621110111752286,3776.48996077109
0.626090250593076,3776.4999607711
0.632731693442642,3776.50996077109
0.639400996775106,3776.5199607711
0.643899246692635,3776.52996077109
0.644039677981399,3776.5399607711
0.639488179285732,3776.54996077109
0.630524809439053,3776.5599607711
0.618231698374549,3776.56996077109
0.606706692132907,3776.5799607711
0.596368045563778,3776.5899607711
0.587799752429427,3776.5999607711
0.581659680107993,3776.6099607711
0.578453025987124,3776.6199607711
0.577953730677776,3776.6299607711
0.579723799875138,3776.6399607711
0.584574851165132,3776.6499607711
0.59086748118239,3776.6599607711
0.596989286840806,3776.6699607711
0.602220863604809,3776.6799607711
0.606655164595634,3776.6899607711
0.61023432792982,3776.69996077109
0.612780735355521,3776.7099607711
0.615953568770672,3776.71996077109
0.617217864847329,3776.7299607711
0.616580058571219,3776.73996077109
0.612702457216339,3776.7499607711
0.606158814658692,3776.75996077109
0.59759773513834,3776.7699607711
0.588566490025377,3776.77996077109
0.580014153927805,3776.7899607711
0.571543399794399,3776.79996077109
0.561228943567727,3776.8099607711
0.549497469009674,3776.81996077109
0.535923031080587,3776.8299607711
0.52182898857978,3776.8399607711
0.507084948643171,3776.8499607711
0.493917769000349,3776.8599607711
0.481493693404766,3776.8699607711
0.468640330491658,3776.8799607711
0.454050977203103,3776.8899607711
0.438990207127472,3776.8999607711
0.423372885885969,3776.9099607711
0.408455621049742,3776.9199607711
0.395270369313118,3776.9299607711
0.382474093983344,3776.9399607711
0.369302311625758,3776.94996077109
0.354316477988223,3776.9599607711
0.338337032419505,3776.96996077109
0.322559734670135,3776.9799607711
0.306664416824672,3776.98996077109
0.292944142920407,3776.9999607711
0.280445575719918,3777.00996077109
0.267524171530767,3777.0199607711
0.253528594584233,3777.02996077109
0.238768733871751,3777.0399607711
0.223185267587057,3777.04996077109
0.208191409677967,3777.0599607711
0.195198300928145,3777.06996077109
0.18302896296375,3777.0799607711
0.170300963743717,3777.0899607711
0.156976527960738,3777.0999607711
0.142671974944205,3777.1099607711
0.128059565469861,3777.1199607711
0.114119752368685,3777.1299607711
0.101023338303663,3777.1399607711
0.0888376575962128,3777.1499607711
0.078825194392835,3777.1599607711
0.0693468199274751,3777.1699607711
0.0582525732522595,3777.1799607711
0.0453100514692895,3777.1899607711
0.0318721034825652,3777.19996077109
0.0180127857085106,3777.2099607711
0.00378218846113778,3777.21996077109
-0.00780873024279409,3777.2299607711
-0.018941713952013,3777.23996077109
-0.0313920837279796,3777.2499607711
-0.0451241965155863,3777.25996077109
-0.0599049330136123,3777.2699607711
-0.0741724165315662,3777.27996077109
-0.0868396559756213,3777.2899607711
-0.0935824002537712,3777.29996077109
-0.092773006141887,3777.3099607711
-0.0829830945101635,3777.31996077109
-0.0626873425958411,3777.3299607711
-0.0306766751113394,3777.3399607711
0.0130368426343997,3777.3499607711
0.0664582259490513,3777.3599607711
0.127765312409193,3777.3699607711
0.193013546486102,3777.3799607711
0.25605230542103,3777.3899607711
0.314102989915333,3777.3999607711
0.365181548491043,3777.4099607711
0.408812779422764,3777.4199607711
0.445044287027819,3777.4299607711
0.476000936972614,3777.4399607711
0.501540376300361,3777.44996077109
0.521369581192659,3777.4599607711
0.535473509287463,3777.46996077109
0.545354723835322,3777.4799607711
0.552449321754358,3777.48996077109
0.55760078735934,3777.4999607711
0.563667782775589,3777.50996077109
0.570218420056161,3777.5199607711
0.576059907847408,3777.52996077109
0.581421506189493,3777.5399607711
0.586636441415074,3777.54996077109
0.592134721798368,3777.5599607711
0.597938971527388,3777.56996077109
0.604871669260853,3777.5799607711
0.611171625557763,3777.5899607711
0.613911001835857,3777.5999607711
0.611982145937636,3777.6099607711
0.604702917919076,3777.6199607711
0.593763610754682,3777.6299607711
0.580973659310354,3777.6399607711
0.569743196977907,3777.6499607711
0.561214556605363,3777.6599607711
0.555019490570123,3777.6699607711
0.551149490166634,3777.6799607711
0.549487971968917,3777.6899607711
0.550440999653333,3777.69996077109
0.554098763144189,3777.7099607711
0.561374938153984,3777.71996077109
0.571174186841627,3777.7299607711
0.580377996799932,3777.73996077109
0.587651956965017,3777.7499607711
0.592885233668285,3777.75996077109
0.595873541771062,3777.7699607711
0.596800048449135,3777.77996077109
0.598155043983194,3777.7899607711
0.598179867456175,3777.79996077109
0.596216945024663,3777.8099607711
0.591673882984117,3777.81996077109
0.584681578570623,3777.8299607711
0.576179908110964,3777.8399607711
0.566176740270182,3777.8499607711
0.557198691060124,3777.8599607711
0.547574242277101,3777.8699607711
0.536325736656056,3777.8799607711
0.523371818686173,3777.8899607711
0.509286897696399,3777.8999607711
0.494843034343994,3777.9099607711
0.480047977211027,3777.9199607711
0.466703196287351,3777.9299607711
0.453982289457172,3777.9399607711
0.440053728755447,3777.94996077109
0.424410739744941,3777.9599607711
0.408400761500781,3777.96996077109
0.392176717053128,3777.9799607711
0.375799276926017,3777.98996077109
0.361592597173475,3777.9999607711
0.348495263976475,3778.00996077109
0.335270977974851,3778.0199607711
0.321465265239352,3778.02996077109
0.306763807626058,3778.0399607711
0.291894117734009,3778.04996077109
0.276687811589912,3778.0599607711
0.262937977332337,3778.06996077109
0.24983993609471,3778.0799607711
0.235660851528679,3778.0899607711
0.220641111195268,3778.0999607711
0.205262590454127,3778.1099607711
0.189834569939165,3778.1199607711
0.175581487106383,3778.1299607711
0.161992545378092,3778.1399607711
0.148512432911851,3778.1499607711
0.137482867708839,3778.1599607711
0.126842635355906,3778.1699607711
0.115245646587066,3778.1799607711
0.102701504844241,3778.1899607711
0.0882922605970599,3778.19996077109
0.0740583076682555,3778.2099607711
0.0595025531318652,3778.21996077109
0.0464933107691533,3778.2299607711
0.0348231647174263,3778.23996077109
0.022104382214599,3778.2499607711
0.00819834645887965,3778.25996077109
-0.00672107577973935,3778.2699607711
-0.021993819813367,3778.27996077109
-0.0373187234172947,3778.2899607711
-0.0501560324126415,3778.29996077109
-0.0625057910091704,3778.3099607711
-0.0746612151601919,3778.31996077109
-0.0880745101207788,3778.3299607711
-0.101248987827726,3778.3399607711
-0.111287795197838,3778.3499607711
-0.115372525818447,3778.3599607711
-0.107391350975254,3778.3699607711
-0.0868049181396082,3778.3799607711
-0.0538057490098077,3778.3899607711
-0.0106430782960394,3778.3999607711
0.0408620577077482,3778.4099607711
0.0986581349389078,3778.4199607711
0.158832141472249,3778.4299607711
0.220358546944906,3778.4399607711
0.278663495151668,3778.44996077109
0.330217061611366,3778.4599607711
0.373297333888182,3778.46996077109
0.407803840037891,3778.4799607711
0.434483126994745,3778.48996077109
0.455126508457543,3778.4999607711
0.47240436263525,3778.50996077109
0.48665524541503,3778.5199607711
0.497180461379132,3778.52996077109
0.504579123950733,3778.5399607711
0.509244230193149,3778.54996077109
0.512379655831374,3778.5599607711
0.51441448273528,3778.56996077109
0.517543884684201,3778.5799607711
0.520606009894582,3778.5899607711
0.522806600415359,3778.5999607711
0.52417362183541,3778.6099607711
0.524518571125732,3778.6199607711
0.523881533183372,3778.6299607711
0.52162509956633,3778.6399607711
0.519002566971851,3778.6499607711
0.514260050794393,3778.6599607711
0.505871559460735,3778.6699607711
0.493737912570907,3778.6799607711
0.47890215273556,3778.6899607711
0.464482978591904,3778.69996077109
0.452539757548493,3778.7099607711
0.446378474053513,3778.71996077109
0.445803936564761,3778.7299607711
0.449006390902446,3778.73996077109
0.454017947078433,3778.7499607711
0.460310511925687,3778.75996077109
0.467369432367001,3778.7699607711
0.474651069804361,3778.77996077109
0.482964005813767,3778.7899607711
0.490834450064388,3778.79996077109
0.496575863294994,3778.8099607711
0.499372216354794,3778.81996077109
0.49998134488271,3778.8299607711
0.498545458955053,3778.8399607711
0.495425471158281,3778.8499607711
0.492783104003311,3778.8599607711
0.489496259937853,3778.8699607711
0.484285909446418,3778.8799607711
0.476820157877945,3778.8899607711
0.46657533193539,3778.8999607711
0.454627194453473,3778.9099607711
0.441422876233177,3778.9199607711
0.42973522352489,3778.9299607711
0.418376606500562,3778.9399607711
0.406459978251555,3778.94996077109
0.393166017072791,3778.9599607711
0.378887235095547,3778.96996077109
0.364098941578395,3778.9799607711
0.349077517281896,3778.98996077109
0.335935731986069,3778.9999607711
0.323266824023188,3779.00996077109
0.310352561344931,3779.0199607711
0.296690125214587,3779.02996077109
0.282649104084457,3779.0399607711
0.268096623375644,3779.04996077109
0.253585751431034,3779.0599607711
0.240722700517421,3779.06996077109
0.228243139676464,3779.0799607711
0.215133121303104,3779.0899607711
0.200747162468902,3779.0999607711
0.185646730868036,3779.1099607711
0.170333621145454,3779.1199607711
0.155156474084944,3779.1299607711
0.140983234683272,3779.1399607711
0.1273415548467,3779.1499607711
0.115443573854644,3779.1599607711
0.104617499552301,3779.1699607711
0.0926298422171994,3779.1799607711
0.0794642664485882,3779.1899607711
0.0651299096678395,3779.19996077109
0.0502250576983864,3779.2099607711
0.0354918394643264,3779.21996077109
0.0230931553015299,3779.2299607711
0.0115499259908469,3779.23996077109
-0.000231702556849509,3779.2499607711
-0.0130303611552734,3779.25996077109
-0.0268259888543955,3779.2699607711
-0.0406814696124295,3779.27996077109
-0.0547240198642564,3779.2899607711
-0.066970216548035,3779.29996077109
-0.0780284875914697,3779.3099607711
-0.0888533155873134,3779.31996077109
-0.0976779538706498,3779.3299607711
-0.101841269225497,3779.3399607711
-0.0968150351536068,3779.3499607711
-0.0800764900202234,3779.3599607711
-0.0487864187463924,3779.3699607711
-0.0048299696475411,3779.3799607711
0.0488627420287561,3779.3899607711
0.107549959808288,3779.3999607711
0.168319127250889,3779.4099607711
0.22874481418235,3779.4199607711
0.285100044433884,3779.4299607711
0.337890169859016,3779.4399607711
0.384275093507883,3779.44996077109
0.422353748603723,3779.4599607711
0.451952005226988,3779.46996077109
0.473968423838546,3779.4799607711
0.48957109128388,3779.48996077109
0.501087165451855,3779.4999607711
0.510859849225656,3779.50996077109
0.518558779100633,3779.5199607711
0.523689587512464,3779.52996077109
0.525833608709801,3779.5399607711
0.526263749332645,3779.54996077109
0.525546988242195,3779.5599607711
0.524928308601084,3779.56996077109
0.526271099718817,3779.5799607711
0.528237397201635,3779.5899607711
0.529495555385312,3779.5999607711
0.528450385213867,3779.6099607711
0.524940313045845,3779.6199607711
0.518059431453684,3779.6299607711
0.507914374405381,3779.6399607711
0.496981343657215,3779.6499607711
0.485031881364098,3779.6599607711
0.471891517046197,3779.6699607711
0.458847245347436,3779.6799607711
0.448225039416653,3779.6899607711
0.441486834451191,3779.69996077109
0.438337721551525,3779.7099607711
0.440787908125491,3779.71996077109
0.446563648187279,3779.7299607711
0.453905852674894,3779.73996077109
0.460786609229787,3779.7499607711
0.467464186918419,3779.75996077109
0.473342681185358,3779.7699607711
0.47782966613106,3779.77996077109
0.482341141233855,3779.7899607711
0.485545257513967,3779.79996077109
0.486063931328721,3779.8099607711
0.483707625875098,3779.81996077109
0.478315658164926,3779.8299607711
0.471449960795536,3779.8399607711
0.463227248572598,3779.8499607711
0.456235194250959,3779.8599607711
0.449351751196158,3779.8699607711
0.440183121436576,3779.8799607711
0.428782560864319,3779.8899607711
0.415674561407488,3779.8999607711
0.401261880932461,3779.9099607711
0.386271340368863,3779.9199607711
0.372549635473682,3779.9299607711
0.359402376103,3779.9399607711
0.345717083762996,3779.94996077109
0.330731108609405,3779.9599607711
0.314925420966368,3779.96996077109
0.299002651788425,3779.9799607711
0.283051726783062,3779.98996077109
0.26862659355114,3779.9999607711
0.255085739851387,3780.00996077109
0.241038863160361,3780.0199607711
0.225895284713116,3780.02996077109
0.209909136420434,3780.0399607711
0.193425501318382,3780.04996077109
0.177481701539834,3780.0599607711
0.163353771484187,3780.06996077109
0.150381401961354,3780.0799607711
0.137322895527429,3780.0899607711
0.123135930439546,3780.0999607711
0.1085281722245,3780.1099607711
0.0924758590411468,3780.1199607711
0.0768724343279659,3780.1299607711
0.0611450792277708,3780.1399607711
0.0457997916102824,3780.1499607711
0.0326236825692138,3780.1599607711
0.0206323319795158,3780.1699607711
0.0084366050515106,3780.1799607711
-0.00520408722339601,3780.1899607711
-0.019741170877216,3780.19996077109
-0.0348521640593806,3780.2099607711
-0.0502336791908376,3780.21996077109
-0.0634620274240687,3780.2299607711
-0.0762561130005965,3780.23996077109
-0.0900521303743946,3780.2499607711
-0.104920539318675,3780.25996077109
-0.121160202934239,3780.2699607711
-0.137229371419613,3780.27996077109
-0.152764130368893,3780.2899607711
-0.166051482453746,3780.29996077109
-0.177883578439862,3780.3099607711
-0.190087703411517,3780.31996077109
-0.202387645876645,3780.3299607711
-0.213245726659566,3780.3399607711
-0.218800022105802,3780.3499607711
-0.215792007105041,3780.3599607711
-0.199313757840683,3780.3699607711
-0.169274420035177,3780.3799607711
-0.127318434138508,3780.3899607711
-0.0756500434292044,3780.3999607711
-0.0172923159709159,3780.4099607711
0.0461575970710239,3780.4199607711
0.110552879452872,3780.4299607711
0.175223341009134,3780.4399607711
0.236907852567422,3780.44996077109
0.291341325860697,3780.4599607711
0.337371104350645,3780.46996077109
0.37512231499288,3780.4799607711
0.405123849834944,3780.48996077109
0.428679531158243,3780.4999607711
0.449126899822113,3780.50996077109
0.465571140434388,3780.5199607711
0.477884574818368,3780.52996077109
0.485952176550553,3780.5399607711
0.491703388467613,3780.54996077109
0.496099077805044,3780.5599607711
0.499774322073622,3780.56996077109
0.50613173110959,3780.5799607711
0.513313761114274,3780.5899607711
0.520172397545742,3780.5999607711
0.526345256738203,3780.6099607711
0.530711262484855,3780.6199607711
0.534405570120626,3780.6299607711
0.536105363288807,3780.6399607711
0.537688345716083,3780.6499607711
0.536474374959916,3780.6599607711
0.5313835812001,3780.6699607711
0.521699008535341,3780.6799607711
0.509005280894214,3780.6899607711
0.496076350053807,3780.69996077109
0.484878301215955,3780.7099607711
0.478532000797937,3780.71996077109
0.476259364129537,3780.7299607711
0.47556640442283,3780.73996077109
0.476979301374962,3780.7499607711
0.479125061714837,3780.75996077109
0.482193816980137,3780.7699607711
0.487196277338838,3780.77996077109
0.493726930249127,3780.7899607711
0.500577032387784,3780.79996077109
0.50603799287501,3780.8099607711
0.508982515617537,3780.81996077109
0.509409592806531,3780.8299607711
0.508043528231621,3780.8399607711
0.50482191902556,3780.8499607711
0.500846702876918,3780.8599607711
0.49581759230306,3780.8699607711
0.488213687330065,3780.8799607711
0.477567667701369,3780.8899607711
0.46592260010021,3780.8999607711
0.453298487331702,3780.9099607711
0.440820033563061,3780.9199607711
0.429381044739981,3780.9299607711
0.418089573074931,3780.9399607711
0.405459867718788,3780.94996077109
0.390200100819433,3780.9599607711
0.37309776233596,3780.96996077109
0.355239759809856,3780.9799607711
0.337414223616106,3780.98996077109
0.32159800119753,3780.9999607711
0.306625997558182,3781.00996077109
0.291519850681477,3781.0199607711
0.275457669028315,3781.02996077109
0.25876994698068,3781.0399607711
0.24257619631824,3781.04996077109
0.226313400448704,3781.0599607711
0.212044475888771,3781.06996077109
0.198354395224147,3781.0799607711
0.183908404256116,3781.0899607711
0.168256920660958,3781.0999607711
0.151972720085234,3781.1099607711
0.134919243129607,3781.1199607711
0.11864275721556,3781.1299607711
0.102503732366941,3781.1399607711
0.0864375428017217,3781.1499607711
0.0730291055539025,3781.1599607711
0.0598849520439486,3781.1699607711
0.0459441037485425,3781.1799607711
0.030718385217385,3781.1899607711
0.0150370782260258,3781.19996077109
-0.000636177918625804,3781.2099607711
-0.0161865059361336,3781.21996077109
-0.0299668395260023,3781.2299607711
-0.0426001854429344,3781.23996077109
-0.0564255005993658,3781.2499607711
-0.0709715399315048,3781.25996077109
-0.0864084354485229,3781.2699607711
-0.101394680360765,3781.27996077109
-0.116430741172465,3781.2899607711
-0.129162834874707,3781.29996077109
-0.141224518374632,3781.3099607711
-0.155042515970985,3781.31996077109
-0.170212367941037,3781.3299607711
-0.186601204468769,3781.3399607711
-0.202437622862586,3781.3499607711
-0.216742721015106,3781.3599607711
-0.227811287162406,3781.3699607711
-0.233338329969417,3781.3799607711
-0.232167874291574,3781.3899607711
-0.221775676836104,3781.3999607711
-0.200014981802801,3781.4099607711
-0.166283325404146,3781.4199607711
-0.120644049530738,3781.4299607711
-0.0637703332206548,3781.4399607711
-0.000378027540959588,3781.44996077109
0.0642891662524391,3781.4599607711
0.126937369916036,3781.46996077109
0.185820320029445,3781.4799607711
0.239186452485147,3781.48996077109
0.28588431296085,3781.4999607711
0.327824911124105,3781.50996077109
0.36348022285147,3781.5199607711
0.391751331393016,3781.52996077109
0.412498729310733,3781.5399607711
0.42722443826305,3781.54996077109
0.437397569168471,3781.5599607711
0.444021001683354,3781.56996077109
0.450552433145682,3781.5799607711
0.456988505101467,3781.5899607711
0.462878053934041,3781.5999607711
0.467285063384494,3781.6099607711
0.470621066291493,3781.6199607711
0.473428779564581,3781.6299607711
0.47602561188182,3781.6399607711
0.480000475605332,3781.6499607711
0.48354823971604,3781.6599607711
0.484980716061731,3781.6699607711
0.483122616531897,3781.6799607711
0.477146124003446,3781.6899607711
0.467239432005951,3781.69996077109
0.454352937530623,3781.7099607711
0.441215760490659,3781.71996077109
0.427938398650838,3781.7299607711
0.415678876430279,3781.73996077109
0.405021185902748,3781.7499607711
0.397363304318416,3781.75996077109
0.393517454499559,3781.7699607711
0.392978365126637,3781.77996077109
0.396758992845228,3781.7899607711
0.403011812037405,3781.79996077109
0.409352876261908,3781.8099607711
0.415041896377237,3781.81996077109
0.419591897560748,3781.8299607711
0.422787827165146,3781.8399607711
0.424604436058413,3781.8499607711
0.425831436445918,3781.8599607711
0.425322153826195,3781.8699607711
0.422623574430605,3781.8799607711
0.417190561922137,3781.8899607711
0.409495243844318,3781.8999607711
0.400663429371613,3781.9099607711
0.390055867348426,3781.9199607711
0.37997135937129,3781.9299607711
0.368937379310581,3781.9399607711
0.356323039713735,3781.94996077109
0.341810920145728,3781.9599607711
0.326072900470894,3781.96996077109
0.30986226068376,3781.9799607711
0.293066479043251,3781.98996077109
0.277374751894175,3781.9999607711
0.261561184996846,3782.00996077109
0.244550183090529,3782.0199607711
0.225514260195537,3782.02996077109
0.205980935802154,3782.0399607711
0.186824252739628,3782.04996077109
0.168329319933575,3782.0599607711
0.152601561589055,3782.06996077109
0.137874320055153,3782.0799607711
0.122359853019643,3782.0899607711
0.105701619504689,3782.0999607711
0.0887740094242637,3782.1099607711
0.0710229471508248,3782.1199607711
0.0533968465589738,3782.1299607711
0.0359322227493992,3782.1399607711
0.0185086193967174,3782.1499607711
0.00356406661932467,3782.1599607711
-0.0102040069972855,3782.1699607711
-0.0239899789856249,3782.1799607711
-0.0386793320727634,3782.1899607711
-0.0538976968169999,3782.19996077109
-0.0699818178206855,3782.2099607711
-0.0861968400209244,3782.21996077109
-0.100176792416437,3782.2299607711
-0.113687983236149,3782.23996077109
-0.127636975295018,3782.2499607711
-0.142809733533691,3782.25996077109
-0.158982487548723,3782.2699607711
-0.175736667197304,3782.27996077109
-0.191963906353876,3782.2899607711
-0.206448684860142,3782.29996077109
-0.220068860509691,3782.3099607711
-0.234836801814904,3782.31996077109
-0.251008748120674,3782.3299607711
-0.267999185964334,3782.3399607711
-0.284376722587291,3782.3499607711
-0.299672055942323,3782.3599607711
-0.311257624906946,3782.3699607711
-0.31890516547588,3782.3799607711
-0.321957906524021,3782.3899607711
-0.3184274925057,3782.3999607711
-0.305288961592031,3782.4099607711
-0.281341007099428,3782.4199607711
-0.246645494038118,3782.4299607711
-0.200650681944173,3782.4399607711
-0.148098225164547,3782.44996077109
-0.092430312374789,3782.4599607711
-0.0376760504580384,3782.46996077109
0.0145245150405188,3782.4799607711
0.0627113270983145,3782.48996077109
0.104984863994844,3782.4999607711
0.14278594758679,3782.50996077109
0.174155617117626,3782.5199607711
0.197730094908733,3782.52996077109
0.21403239136741,3782.5399607711
0.224641071522959,3782.54996077109
0.23041993507549,3782.5599607711
0.23355955554124,3782.56996077109
0.236789278860917,3782.5799607711
0.23942899050144,3782.5899607711
0.240536972317092,3782.5999607711
0.240017461384715,3782.6099607711
0.238417701462178,3782.6199607711
0.235980431619175,3782.6299607711
0.232983555022364,3782.6399607711
0.230686501959925,3782.6499607711
0.227182239329405,3782.6599607711
0.221159505079582,3782.6699607711
0.211496005307702,3782.6799607711
0.19871365666298,3782.6899607711
0.18363389849348,3782.69996077109
0.167508957558179,3782.7099607711
0.153655019610474,3782.71996077109
0.142613591222919,3782.7299607711
0.133929513371864,3782.73996077109
0.127723684240633,3782.7499607711
0.125014059327762,3782.75996077109
0.125281541697002,3782.7699607711
0.128031004412423,3782.77996077109
0.1341249086563,3782.7899607711
0.141936720367308,3782.79996077109
0.149261782823787,3782.8099607711
0.154914761504527,3782.81996077109
0.158770270625217,3782.8299607711
0.160595279872953,3782.8399607711
0.16115075783389,3782.8499607711
0.161077473518983,3782.8599607711
0.159870251075452,3782.8699607711
0.156512206825503,3782.8799607711
0.150420551642989,3782.8899607711
0.14246346625605,3782.8999607711
0.132585912227164,3782.9099607711
0.122118134261229,3782.9199607711
0.112253617959936,3782.9299607711
0.102646555859092,3782.9399607711
0.0911330020682264,3782.94996077109
0.0784319828217466,3782.9599607711
0.0640109760854474,3782.96996077109
0.0485790734925317,3782.9799607711
0.0331678325310389,3782.98996077109
0.0196729836322864,3782.9999607711
0.00646450405984565,3783.00996077109
-0.00752703937409802,3783.0199607711
-0.0229982962603847,3783.02996077109
-0.0393293070977494,3783.0399607711
-0.0552386016245159,3783.04996077109
-0.0704074678306003,3783.0599607711
-0.0836726570885129,3783.06996077109
-0.0962397515787207,3783.0799607711
-0.109682688376205,3783.0899607711
-0.124106324860301,3783.0999607711
-0.139673591548834,3783.1099607711
-0.155229354655981,3783.1199607711
-0.170448441292532,3783.1299607711
-0.185485956497839,3783.1399607711
-0.199819711606037,3783.1499607711
-0.212309114938871,3783.1599607711
-0.22430675207293,3783.1699607711
-0.237369695898966,3783.1799607711
-0.251740320091354,3783.1899607711
-0.266414071915827,3783.19996077109
-0.281055053229172,3783.2099607711
-0.295373755473423,3783.21996077109
-0.307578780392586,3783.2299607711
-0.318361869615698,3783.23996077109
-0.330182694800571,3783.2499607711
-0.343215901865809,3783.25996077109
-0.357733209285765,3783.2699607711
-0.373038458520731,3783.27996077109
-0.388556263378947,3783.2899607711
-0.401899721842849,3783.29996077109
-0.41445654759973,3783.3099607711
-0.426969502098102,3783.31996077109
-0.439387681943551,3783.3299607711
-0.450277830936113,3783.3399607711
-0.456084805586891,3783.3499607711
-0.453549302453804,3783.3599607711
-0.439116540895691,3783.3699607711
-0.412488666055703,3783.3799607711
-0.375823787266127,3783.3899607711
-0.331093975112852,3783.3999607711
-0.280240886934864,3783.4099607711
-0.225403392974632,3783.4199607711
-0.169664261170004,3783.4299607711
-0.113806089697285,3783.4399607711
-0.0613598748588646,3783.44996077109
-0.0154125801128848,3783.4599607711
0.0228341113519782,3783.46996077109
0.0533273432594763,3783.4799607711
0.0774538944950886,3783.48996077109
0.0958140612552752,3783.4999607711
0.110907952175087,3783.50996077109
0.122851265420662,3783.5199607711
0.130859950977506,3783.52996077109
0.135768234396903,3783.5399607711
0.139558977590007,3783.54996077109
0.142681316465236,3783.5599607711
0.146588160498421,3783.56996077109
0.152671878765562,3783.5799607711
0.159239996713824,3783.5899607711
0.165312776024331,3783.5999607711
0.169763567493551,3783.6099607711
0.172589698289179,3783.6199607711
0.173584158309368,3783.6299607711
0.172569477950003,3783.6399607711
0.170062523864545,3783.6499607711
0.164321139302588,3783.6599607711
0.155277083498226,3783.6699607711
0.14291521138745,3783.6799607711
0.129826045386419,3783.6899607711
0.117689362919645,3783.69996077109
0.10799126918869,3783.7099607711
0.103269694582637,3783.71996077109
0.102175639561075,3783.7299607711
0.10345652468539,3783.73996077109
0.105661053620388,3783.7499607711
0.108587449081187,3783.75996077109
0.112321460044788,3783.7699607711
0.115866983090941,3783.77996077109
0.120272135690454,3783.7899607711
0.124737992119372,3783.79996077109
0.126593968918804,3783.8099607711
0.125821289336153,3783.81996077109
0.122891805755238,3783.8299607711
0.118444020173849,3783.8399607711
0.112829261310198,3783.8499607711
0.108104148773282,3783.8599607711
0.102381548673516,3783.8699607711
0.0949272158223568,3783.8799607711
0.0850102907133575,3783.8899607711
0.0730833776876857,3783.8999607711
0.0600786669426336,3783.9099607711
0.0468776474291411,3783.9199607711
0.0352327577846207,3783.9299607711
0.0243005180604427,3783.9399607711
0.0128462686576956,3783.94996077109
-0.000101435537868564,3783.9599607711
-0.0140155224085275,3783.96996077109
-0.0288395935532252,3783.9799607711
-0.0441050630846575,3783.98996077109
-0.0575502699299579,3783.9999607711
-0.0708405867091602,3784.00996077109
-0.0847340763501108,3784.0199607711
-0.0996774284037549,3784.02996077109
-0.115781105759064,3784.0399607711
-0.131354651218698,3784.04996077109
-0.146650359319032,3784.0599607711
-0.159720671016337,3784.06996077109
-0.171388738654504,3784.0799607711
-0.18372493652833,3784.0899607711
-0.197376885651779,3784.0999607711
-0.212387100939258,3784.1099607711
-0.227673881381062,3784.1199607711
-0.243256023582625,3784.1299607711
-0.25818511183417,3784.1399607711
-0.272598392505601,3784.1499607711
-0.284614369296436,3784.1599607711
-0.295873816666744,3784.1699607711
-0.307610856442374,3784.1799607711
-0.321084477876575,3784.1899607711
-0.335541054263902,3784.19996077109
-0.350410939057179,3784.2099607711
