PPG,time
-0.045663325746244,2430.85016454977
-0.104116067264591,2430.86016454977
-0.111964520871946,2430.87016454977
-0.135873380023709,2430.88016454977
-0.151486083621654,2430.89016454977
-0.172872620106227,2430.90016454977
-0.191607755513768,2430.91016454977
-0.212581890772107,2430.92016454977
-0.232463912544656,2430.93016454977
-0.253343951509254,2430.94016454977
-0.273396143710592,2430.95016454977
-0.293693712947244,2430.96016454977
-0.313484110931041,2430.97016454977
-0.332329227160768,2430.98016454977
-0.350891062753905,2430.99016454977
-0.368843197357858,2431.00016454977
-0.386258341992878,2431.01016454977
-0.403288027833085,2431.02016454977
-0.420379489345049,2431.03016454977
-0.437714315594489,2431.04016454977
-0.455373835033582,2431.05016454977
-0.473281269798611,2431.06016454977
-0.491299139509086,2431.07016454977
-0.509124640222535,2431.08016454977
-0.527176489007519,2431.09016454977
-0.545264581165296,2431.10016454977
-0.563196610609662,2431.11016454977
-0.580954887446019,2431.12016454977
-0.59804506598656,2431.13016454977
-0.614707381699289,2431.14016454977
-0.630760280850356,2431.15016454977
-0.647154841668807,2431.16016454977
-0.662768529021574,2431.17016454977
-0.678658960830875,2431.18016454977
-0.694337764991513,2431.19016454977
-0.706983680670821,2431.20016454977
-0.712415293256217,2431.21016454977
-0.705017328756075,2431.22016454977
-0.679707675793416,2431.23016454977
-0.635736313004825,2431.24016454977
-0.573876140863603,2431.25016454977
-0.498177692992398,2431.26016454977
-0.41502744894724,2431.27016454977
-0.330215410542632,2431.28016454977
-0.247726082349324,2431.29016454977
-0.171226862916013,2431.30016454977
-0.103552398039043,2431.31016454977
-0.0456346513802151,2431.32016454977
0.00167438005507548,2431.33016454977
0.0390905012548777,2431.34016454977
0.0681507342489097,2431.35016454977
0.0910555064196883,2431.36016454977
0.110160783438129,2431.37016454977
0.126610050101099,2431.38016454977
0.14210583074041,2431.39016454977
0.157387940209962,2431.40016454977
0.172949182120959,2431.41016454977
0.188501935765015,2431.42016454977
0.202771738698106,2431.43016454977
0.214879734409822,2431.44016454977
0.224256360088759,2431.45016454977
0.228413001822027,2431.46016454977
0.226445377505694,2431.47016454977
0.217306676715304,2431.48016454977
0.202743380322006,2431.49016454977
0.183961170671997,2431.50016454977
0.163859979033627,2431.51016454977
0.144053662285907,2431.52016454977
0.12709771589244,2431.53016454977
0.113583200410545,2431.54016454977
0.103384875136664,2431.55016454977
0.095966282264712,2431.56016454977
0.0900440394013308,2431.57016454977
0.0864715229658893,2431.58016454977
0.0839977435606731,2431.59016454977
0.0810049609088555,2431.60016454977
0.0781643138858933,2431.61016454977
0.0736120934457693,2431.62016454977
0.0660047695909807,2431.63016454977
0.0553616859679857,2431.64016454977
0.0423623032550655,2431.65016454977
0.0278776111798088,2431.66016454977
0.0136533978027939,2431.67016454977
-0.000965733862604026,2431.68016454977
-0.0167462042422506,2431.69016454977
-0.0334912841349094,2431.70016454977
-0.0512826487871729,2431.71016454977
-0.0696346822025243,2431.72016454977
-0.0889300990426867,2431.73016454977
-0.108286348775014,2431.74016454977
-0.127983477564272,2431.75016454977
-0.147811537915888,2431.76016454977
-0.167483526526247,2431.77016454977
-0.187510020615913,2431.78016454977
-0.208214791409985,2431.79016454977
-0.22899623810013,2431.80016454977
-0.250096279908752,2431.81016454977
-0.270738341060445,2431.82016454977
-0.291113936350905,2431.83016454977
-0.310973199059947,2431.84016454977
-0.330682320534199,2431.85016454977
-0.349975326505815,2431.86016454977
-0.369073653166467,2431.87016454977
-0.387542829584939,2431.88016454977
-0.405754295839007,2431.89016454977
-0.4243955635406,2431.90016454977
-0.443759659533614,2431.91016454977
-0.463004130366215,2431.92016454977
-0.481649089407693,2431.93016454977
-0.500044302056831,2431.94016454977
-0.518663616684532,2431.95016454977
-0.536851952118332,2431.96016454977
-0.555051937984716,2431.97016454977
-0.572806909378695,2431.98016454977
-0.590470182619758,2431.99016454977
-0.607635342797519,2432.00016454977
-0.624483588712124,2432.01016454977
-0.641494093774721,2432.02016454977
-0.658118653796847,2432.03016454977
-0.674696819692159,2432.04016454977
-0.691589562392581,2432.05016454977
-0.708191364902221,2432.06016454977
-0.722485411730276,2432.07016454977
-0.729107817261455,2432.08016454977
-0.722812002253419,2432.09016454977
-0.698329785160584,2432.10016454977
-0.653716842278506,2432.11016454977
-0.59075903023355,2432.12016454977
-0.513544309876491,2432.13016454977
-0.427161729840994,2432.14016454977
-0.337079363348572,2432.15016454977
-0.247262917131295,2432.16016454977
-0.161704715388226,2432.17016454977
-0.0837171586345209,2432.18016454977
-0.0156838889015722,2432.19016454977
0.0415121174362749,2432.20016454977
0.0888459782355392,2432.21016454977
0.127317600181041,2432.22016454977
0.159468380831759,2432.23016454977
0.187356255893023,2432.24016454977
0.211613799381171,2432.25016454977
0.235207913368757,2432.26016454977
0.257678036137714,2432.27016454977
0.279264184897284,2432.28016454977
0.300426308751457,2432.29016454977
0.320202495982271,2432.30016454977
0.337986681067549,2432.31016454977
0.352915514805595,2432.32016454977
0.365495954360569,2432.33016454977
0.374575016236217,2432.34016454977
0.378857985260178,2432.35016454977
0.376570559648886,2432.36016454977
0.367081110873366,2432.37016454977
0.352064366194186,2432.38016454977
0.332396956410715,2432.39016454977
0.31126906359092,2432.40016454977
0.291028918670367,2432.41016454977
0.273206094073274,2432.42016454977
0.258305124511583,2432.43016454977
0.247092320033399,2432.44016454977
0.239148636812203,2432.45016454977
0.233459711922051,2432.46016454977
0.229580601977352,2432.47016454977
0.226432261335345,2432.48016454977
0.223532592148088,2432.49016454977
0.219621985481816,2432.50016454977
0.214067698497445,2432.51016454977
0.206310586805838,2432.52016454977
0.195881037218129,2432.53016454977
0.183503229828404,2432.54016454977
0.1690765017143,2432.55016454977
0.153288617524948,2432.56016454977
0.136145178607692,2432.57016454977
0.117685885577532,2432.58016454977
0.0988876066981418,2432.59016454977
0.0804375320738757,2432.60016454977
0.062276997956352,2432.61016454977
0.0437775932385468,2432.62016454977
0.0247936202085518,2432.63016454977
0.00475435288513696,2432.64016454977
-0.0154524864380441,2432.65016454977
-0.0363630699483811,2432.66016454977
-0.0574681428596435,2432.67016454977
-0.0787978054351856,2432.68016454977
-0.100259187902295,2432.69016454977
-0.121096665605738,2432.70016454977
-0.141768440222115,2432.71016454977
-0.161519208281964,2432.72016454977
-0.182016795550901,2432.73016454977
-0.202903676254289,2432.74016454977
-0.224211969026866,2432.75016454977
-0.245491879106277,2432.76016454977
-0.265940162321109,2432.77016454977
-0.28677807905868,2432.78016454977
-0.306685099260733,2432.79016454977
-0.326429264818896,2432.80016454977
-0.345688141332971,2432.81016454977
-0.364712862314532,2432.82016454977
-0.383700335531527,2432.83016454977
-0.402138308959947,2432.84016454977
-0.420411620939643,2432.85016454977
-0.438214215323204,2432.86016454977
-0.456285350198802,2432.87016454977
-0.474525925657884,2432.88016454977
-0.49389715058019,2432.89016454977
-0.514216710522136,2432.90016454977
-0.534010847703375,2432.91016454977
-0.553274465987804,2432.92016454977
-0.57151540681643,2432.93016454977
-0.588757265026321,2432.94016454977
-0.605561087989551,2432.95016454977
-0.622093228941789,2432.96016454977
-0.638435717697261,2432.97016454977
-0.655662075205275,2432.98016454977
-0.673865943622508,2432.99016454977
-0.691253288833443,2433.00016454977
-0.703553552617577,2433.01016454977
-0.704123444123022,2433.02016454977
-0.687415650264874,2433.03016454977
-0.649689975926261,2433.04016454977
-0.590897308495447,2433.05016454977
-0.514748842557861,2433.06016454977
-0.42660803903941,2433.07016454977
-0.331619220846385,2433.08016454977
-0.235242723754226,2433.09016454977
-0.14177097933393,2433.10016454977
-0.054332188879494,2433.11016454977
0.0238028746531957,2433.12016454977
0.0910786690360038,2433.13016454977
0.146728703339164,2433.14016454977
0.192305144901736,2433.15016454977
0.228584624222418,2433.16016454977
0.257807709465158,2433.17016454977
0.282206623395656,2433.18016454977
0.303696398800049,2433.19016454977
0.323630091331387,2433.20016454977
0.342980021876281,2433.21016454977
0.362356013817103,2433.22016454977
0.381293194309867,2433.23016454977
0.399353645987036,2433.24016454977
0.414871346410278,2433.25016454977
0.428771395419477,2433.26016454977
0.439799699617187,2433.27016454977
0.446090097196399,2433.28016454977
0.447396922116832,2433.29016454977
0.441247933089285,2433.30016454977
0.428359190822191,2433.31016454977
0.409603385873516,2433.32016454977
0.387995046397114,2433.33016454977
0.365996326507084,2433.34016454977
0.345824140687893,2433.35016454977
0.328907166687949,2433.36016454977
0.315839126598277,2433.37016454977
0.305765398089165,2433.38016454977
0.297739402445387,2433.39016454977
0.290876439971911,2433.40016454977
0.283960606963251,2433.41016454977
0.278080541763408,2433.42016454977
0.271454173522245,2433.43016454977
0.265064938961919,2433.44016454977
0.257546869443561,2433.45016454977
0.248288318415271,2433.46016454977
0.237489642504413,2433.47016454977
0.224436810847566,2433.48016454977
0.209793862983701,2433.49016454977
0.193466686468905,2433.50016454977
0.176320699215888,2433.51016454977
0.158343245492481,2433.52016454977
0.140060183879243,2433.53016454977
0.121575427079327,2433.54016454977
0.103321894461439,2433.55016454977
0.0847276648268599,2433.56016454977
0.0659812729586425,2433.57016454977
0.0463129892077737,2433.58016454977
0.0258710469934242,2433.59016454977
0.00453204809091151,2433.60016454977
-0.0173470631971609,2433.61016454977
-0.0390946922131843,2433.62016454977
-0.0608671895566339,2433.63016454977
-0.082850267294172,2433.64016454977
-0.104630879435692,2433.65016454977
-0.12698655943272,2433.66016454977
-0.149895298855734,2433.67016454977
-0.171805788492937,2433.68016454977
-0.191036328772112,2433.69016454977
-0.209281622475814,2433.70016454977
-0.226799539167647,2433.71016454977
-0.244273664154732,2433.72016454977
-0.261619815113526,2433.73016454977
-0.279582421022582,2433.74016454977
-0.297501529732274,2433.75016454977
-0.315695589532704,2433.76016454977
-0.33399833147888,2433.77016454977
-0.351996186560392,2433.78016454977
-0.370472344231375,2433.79016454977
-0.38900262104336,2433.80016454977
-0.407940980906209,2433.81016454977
-0.426717000922607,2433.82016454977
-0.444783550354051,2433.83016454977
-0.463036552629212,2433.84016454977
-0.480763595692061,2433.85016454977
-0.498481844455905,2433.86016454977
-0.516551937321514,2433.87016454977
-0.534807431632732,2433.88016454977
-0.553128063301915,2433.89016454977
-0.571829505758145,2433.90016454977
-0.590526170847861,2433.91016454977
-0.609533533111849,2433.92016454977
-0.62897436912273,2433.93016454977
-0.646727158485996,2433.94016454977
-0.659595151982375,2433.95016454977
-0.661808390186942,2433.96016454977
-0.647701031136163,2433.97016454977
-0.613848427062682,2433.98016454977
-0.558480473797192,2433.99016454977
-0.486142918744862,2434.00016454977
-0.400843477006672,2434.01016454977
-0.309081736012165,2434.02016454977
-0.216566636340922,2434.03016454977
-0.126998456900222,2434.04016454977
-0.0452334898272067,2434.05016454977
0.0268745470079103,2434.06016454977
0.0871139177661647,2434.07016454977
0.134624584859886,2434.08016454977
0.170892352852149,2434.09016454977
0.197316843824377,2434.10016454977
0.217491541075437,2434.11016454977
0.232429760043147,2434.12016454977
0.244741575122127,2434.13016454977
0.256053206400441,2434.14016454977
0.26676494231997,2434.15016454977
0.277290553464274,2434.16016454977
0.287385287060162,2434.17016454977
0.296831913493015,2434.18016454977
0.304886070369915,2434.19016454977
0.310139719630231,2434.20016454977
0.311043158427149,2434.21016454977
0.305613996164372,2434.22016454977
0.29360261792558,2434.23016454977
0.275296523478031,2434.24016454977
0.253319355691364,2434.25016454977
0.23015761971976,2434.26016454977
0.208909980289122,2434.27016454977
0.191242618201061,2434.28016454977
0.178093704371926,2434.29016454977
0.169346292187137,2434.30016454977
0.164033490492052,2434.31016454977
0.161561546203934,2434.32016454977
0.160109109153118,2434.33016454977
0.158719920525375,2434.34016454977
0.157063937702018,2434.35016454977
0.15521583969944,2434.36016454977
0.153195698775288,2434.37016454977
0.149194867610671,2434.38016454977
0.142915929257019,2434.39016454977
0.133647930210902,2434.40016454977
0.120998638145833,2434.41016454977
0.106539394279347,2434.42016454977
0.0904990681013364,2434.43016454977
0.0736349853638351,2434.44016454977
0.055819767914654,2434.45016454977
0.0373788074638838,2434.46016454977
0.0188076180450121,2434.47016454977
-0.000270849566486901,2434.48016454977
-0.0197872271414155,2434.49016454977
-0.0395558295365096,2434.50016454977
-0.0592239297014058,2434.51016454977
-0.0793058953062424,2434.52016454977
-0.0989045208532262,2434.53016454977
-0.118913605311672,2434.54016454977
-0.139133615744,2434.55016454977
-0.159220633239417,2434.56016454977
-0.179288463876799,2434.57016454977
-0.199015492291602,2434.58016454977
-0.218367517427472,2434.59016454977
-0.238191886734732,2434.60016454977
-0.258207543570028,2434.61016454977
-0.277599257984603,2434.62016454977
-0.296260075539412,2434.63016454977
-0.314319725619541,2434.64016454977
-0.331916923991534,2434.65016454977
-0.350395774691911,2434.66016454977
-0.369478107148315,2434.67016454977
-0.389159848857267,2434.68016454977
-0.409608241741929,2434.69016454977
-0.429892428838753,2434.70016454977
-0.44919499290586,2434.71016454977
-0.468387491608061,2434.72016454977
-0.48675165926822,2434.73016454977
-0.504921936211432,2434.74016454977
-0.523253871701035,2434.75016454977
-0.541205490959118,2434.76016454977
-0.558734331531306,2434.77016454977
-0.574804205607761,2434.78016454977
-0.588990682079599,2434.79016454977
-0.59824009277532,2434.80016454977
-0.596607254336076,2434.81016454977
-0.577529707726588,2434.82016454977
-0.537065892051028,2434.83016454977
-0.474698206251491,2434.84016454977
-0.394601971296465,2434.85016454977
-0.30244590252955,2434.86016454977
-0.20475742061683,2434.87016454977
-0.106676665421852,2434.88016454977
-0.0131718023090884,2434.89016454977
0.0720952393387542,2434.90016454977
0.146533544689949,2434.91016454977
0.208676569005377,2434.92016454977
0.257623528178835,2434.93016454977
0.294876846192362,2434.94016454977
0.322456329854318,2434.95016454977
0.34252289815788,2434.96016454977
0.358576859175443,2434.97016454977
0.372000440910306,2434.98016454977
0.384417810522616,2434.99016454977
0.396816285795236,2435.00016454977
0.408512686165747,2435.01016454977
0.419357345617246,2435.02016454977
0.429509571035254,2435.03016454977
0.438368979152276,2435.04016454977
0.443132052339763,2435.05016454977
0.443132520536181,2435.06016454977
0.436356631041768,2435.07016454977
0.422072735871323,2435.08016454977
0.402243622940847,2435.09016454977
0.378503686894961,2435.10016454977
0.354072391115362,2435.11016454977
0.331737701045615,2435.12016454977
0.313594390815504,2435.13016454977
0.299985203257973,2435.14016454977
0.29162848667946,2435.15016454977
0.287515700173093,2435.16016454977
0.286373785239012,2435.17016454977
0.286656576445769,2435.18016454977
0.286990804402476,2435.19016454977
0.285605069830578,2435.20016454977
0.282128446316015,2435.21016454977
0.27662493606343,2435.22016454977
0.268658699963971,2435.23016454977
0.258553656924576,2435.24016454977
0.245745504667907,2435.25016454977
0.231313222239095,2435.26016454977
0.214907137830805,2435.27016454977
0.197009684463945,2435.28016454977
0.178651003613915,2435.29016454977
0.15976649538026,2435.30016454977
0.140461857440574,2435.31016454977
0.120791523122489,2435.32016454977
0.100549835026897,2435.33016454977
0.0802863346745369,2435.34016454977
0.0590388856098274,2435.35016454977
0.0372807826320165,2435.36016454977
0.014742273482668,2435.37016454977
-0.0079477592745946,2435.38016454977
-0.0310689471081502,2435.39016454977
-0.0539859416331149,2435.40016454977
-0.0765728514470946,2435.41016454977
-0.099292489507193,2435.42016454977
-0.120988687287489,2435.43016454977
-0.141266462682181,2435.44016454977
-0.16078126770991,2435.45016454977
-0.180506474886943,2435.46016454977
-0.20020990756456,2435.47016454977
-0.220405192956315,2435.48016454977
-0.241388530709748,2435.49016454977
-0.262895643610649,2435.50016454977
-0.284792409214431,2435.51016454977
-0.30639525259338,2435.52016454977
-0.327936056453194,2435.53016454977
-0.348820349206216,2435.54016454977
-0.368538166587339,2435.55016454977
-0.387673169951714,2435.56016454977
-0.406348230010847,2435.57016454977
-0.424566912956514,2435.58016454977
-0.443070247752863,2435.59016454977
-0.461602148887267,2435.60016454977
-0.4795030394369,2435.61016454977
-0.495192760697425,2435.62016454977
-0.50317610930982,2435.63016454977
-0.497185476617452,2435.64016454977
-0.470356202797756,2435.65016454977
-0.419087046346801,2435.66016454977
-0.345295327242211,2435.67016454977
-0.252660149586548,2435.68016454977
-0.147840937130229,2435.69016454977
-0.0372096465576892,2435.70016454977
0.0733846214978909,2435.71016454977
0.178694899485047,2435.72016454977
0.274570959225334,2435.73016454977
0.356959431577871,2435.74016454977
0.424407810880477,2435.75016454977
0.47729683012962,2435.76016454977
0.517604438272045,2435.77016454977
0.548740977996627,2435.78016454977
0.573615860536317,2435.79016454977
0.595882661163758,2435.80016454977
0.616689067745452,2435.81016454977
0.6370363710535,2435.82016454977
0.657463560116068,2435.83016454977
0.677170308168273,2435.84016454977
0.696696960199329,2435.85016454977
0.714670711620063,2435.86016454977
0.729528964835302,2435.87016454977
0.741327111103006,2435.88016454977
0.747388157098881,2435.89016454977
0.746946567529439,2435.90016454977
0.738717254275835,2435.91016454977
0.722572658497666,2435.92016454977
0.699995817266285,2435.93016454977
0.672719827101872,2435.94016454977
0.643886581777307,2435.95016454977
0.617391693534938,2435.96016454977
0.594814584710705,2435.97016454977
0.577476388310895,2435.98016454977
0.564666326129692,2435.99016454977
0.555758858947035,2436.00016454977
0.549479127493419,2436.01016454977
0.544475129255959,2436.02016454977
0.5396944649981,2436.03016454977
0.53434386870526,2436.04016454977
0.527499732428473,2436.05016454977
0.518646749013948,2436.06016454977
0.507803801008726,2436.07016454977
0.494018611211851,2436.08016454977
0.477239213193973,2436.09016454977
0.457934291378719,2436.10016454977
0.4374888933082,2436.11016454977
0.416209369508622,2436.12016454977
0.393834876699176,2436.13016454977
0.371322363516972,2436.14016454977
0.34804792826433,2436.15016454977
0.3240869209847,2436.16016454977
0.299788661375006,2436.17016454977
0.274469886278877,2436.18016454977
0.249462554131382,2436.19016454977
0.2234122737055,2436.20016454977
0.197439955676868,2436.21016454977
0.171886543449833,2436.22016454977
0.146008031004306,2436.23016454977
0.120513034687707,2436.24016454977
0.0950928797098802,2436.25016454977
0.0707889749122318,2436.26016454977
0.0465361628168362,2436.27016454977
0.0231285911841204,2436.28016454977
8.94561405808095e-05,2436.29016454977
-0.022031140935282,2436.30016454977
-0.044540651561507,2436.31016454977
-0.0671258380868651,2436.32016454977
-0.0901375364260013,2436.33016454977
-0.11365348402978,2436.34016454977
-0.138068709688094,2436.35016454977
-0.1624230124064,2436.36016454977
-0.186252652301111,2436.37016454977
-0.209423066269772,2436.38016454977
-0.232870795281474,2436.39016454977
-0.256288487754577,2436.40016454977
-0.279475781619596,2436.41016454977
-0.302241545013196,2436.42016454977
-0.324324652536614,2436.43016454977
-0.345980067792236,2436.44016454977
-0.366368634693383,2436.45016454977
-0.386031665835163,2436.46016454977
-0.404855122567468,2436.47016454977
-0.421264098076247,2436.48016454977
-0.431549342809875,2436.49016454977
-0.428987563566017,2436.50016454977
-0.406391961461958,2436.51016454977
-0.359688555493095,2436.52016454977
-0.29030103247349,2436.53016454977
-0.201997376628401,2436.54016454977
-0.101588899231524,2436.55016454977
0.00491500930997922,2436.56016454977
0.11073847608764,2436.57016454977
0.210935813749626,2436.58016454977
0.300837922571517,2436.59016454977
0.377235198420228,2436.60016454977
0.438999443210837,2436.61016454977
0.486839206358529,2436.62016454977
0.522940601560759,2436.63016454977
0.550264202671729,2436.64016454977
0.571478562232306,2436.65016454977
0.589011779144305,2436.66016454977
0.605432348317967,2436.67016454977
0.62166954304266,2436.68016454977
0.637457009979657,2436.69016454977
0.653674696990904,2436.70016454977
0.668772773542773,2436.71016454977
0.682977725612562,2436.72016454977
0.694448167786432,2436.73016454977
0.702403194901298,2436.74016454977
0.704809557896644,2436.75016454977
0.699084288554683,2436.76016454977
0.686935252886124,2436.77016454977
0.668573893682718,2436.78016454977
0.645092957845353,2436.79016454977
0.617470434431884,2436.80016454977
0.588248336727166,2436.81016454977
0.559950086469157,2436.82016454977
0.533545058825748,2436.83016454977
0.511190105608386,2436.84016454977
0.492711073904202,2436.85016454977
0.477921966246183,2436.86016454977
0.466143463063028,2436.87016454977
0.45596157924922,2436.88016454977
0.446877415406646,2436.89016454977
0.436706319324044,2436.90016454977
0.425328593354173,2436.91016454977
0.412536981360796,2436.92016454977
0.398029286574013,2436.93016454977
0.381333426854771,2436.94016454977
0.362895650380099,2436.95016454977
0.342450536901296,2436.96016454977
0.320162600335917,2436.97016454977
0.296614898668218,2436.98016454977
0.272115835880748,2436.99016454977
0.24739809666597,2437.00016454977
0.221133621918472,2437.01016454977
0.193081570637981,2437.02016454977
0.165039330408734,2437.03016454977
0.1385602690817,2437.04016454977
0.114107296094969,2437.05016454977
0.0902229188019089,2437.06016454977
0.0658675250991173,2437.07016454977
0.0401189601149831,2437.08016454977
0.0135130350950876,2437.09016454977
-0.0133799877892793,2437.10016454977
-0.0407587521148044,2437.11016454977
-0.0680300048451619,2437.12016454977
-0.0947012740875419,2437.13016454977
-0.12070375960046,2437.14016454977
-0.145933363081437,2437.15016454977
-0.170597837013165,2437.16016454977
-0.194956660092544,2437.17016454977
-0.219100738786118,2437.18016454977
-0.242740955804917,2437.19016454977
-0.266223027845479,2437.20016454977
-0.289101534251638,2437.21016454977
-0.311536949311534,2437.22016454977
-0.33413708458751,2437.23016454977
-0.356907519264268,2437.24016454977
-0.378862111808489,2437.25016454977
-0.401347276242631,2437.26016454977
-0.423646348578658,2437.27016454977
-0.446523116706543,2437.28016454977
-0.469098326645311,2437.29016454977
-0.491040342296512,2437.30016454977
-0.512116098768602,2437.31016454977
-0.532635498981141,2437.32016454977
-0.55250268204235,2437.33016454977
-0.571599411187754,2437.34016454977
-0.58871301399289,2437.35016454977
-0.602482399022237,2437.36016454977
-0.609034901628838,2437.37016454977
-0.600938234603945,2437.38016454977
-0.573476320699321,2437.39016454977
-0.524735435785574,2437.40016454977
-0.457540866003055,2437.41016454977
-0.377753405690484,2437.42016454977
-0.293015500054594,2437.43016454977
-0.209415397398327,2437.44016454977
-0.130721163468947,2437.45016454977
-0.0600171224070383,2437.46016454977
0.000384233671154927,2437.47016454977
0.0500212743331649,2437.48016454977
0.0893809674415132,2437.49016454977
0.12001932647872,2437.50016454977
0.143545994745105,2437.51016454977
0.161503309753636,2437.52016454977
0.175556087266009,2437.53016454977
0.186658253501319,2437.54016454977
0.196749000336692,2437.55016454977
0.206049440441583,2437.56016454977
0.214859856600769,2437.57016454977
0.223193830750758,2437.58016454977
0.231024028836915,2437.59016454977
0.237886447532838,2437.60016454977
0.242658132800884,2437.61016454977
0.244308621223152,2437.62016454977
0.240699233668528,2437.63016454977
0.230893661864488,2437.64016454977
0.215533909480944,2437.65016454977
0.194891848712868,2437.66016454977
0.171799512189499,2437.67016454977
0.147630680145485,2437.68016454977
0.124792703509112,2437.69016454977
0.104963356351136,2437.70016454977
0.0901133558936056,2437.71016454977
0.0803172624834178,2437.72016454977
0.0745978735510201,2437.73016454977
0.0708801309830189,2437.74016454977
0.0677634506957966,2437.75016454977
0.0638414529481833,2437.76016454977
0.0582251246669824,2437.77016454977
0.0503981423155148,2437.78016454977
0.040131908589851,2437.79016454977
0.028466996504813,2437.80016454977
0.0148763200437362,2437.81016454977
-7.33177579955265e-05,2437.82016454977
-0.0160955096793992,2437.83016454977
-0.0328095401952715,2437.84016454977
-0.0502888566574722,2437.85016454977
-0.0683877149091777,2437.86016454977
-0.0867406983805577,2437.87016454977
-0.105423014260773,2437.88016454977
-0.124605986338285,2437.89016454977
-0.144271847393519,2437.90016454977
-0.164887277717756,2437.91016454977
-0.186147988688616,2437.92016454977
-0.207506191270315,2437.93016454977
-0.229544116931695,2437.94016454977
-0.252425031977565,2437.95016454977
-0.275617772802437,2437.96016454977
-0.297587702089489,2437.97016454977
-0.317782253271417,2437.98016454977
-0.337040137095368,2437.99016454977
-0.355431776915737,2438.00016454977
-0.373255540654983,2438.01016454977
-0.391408695390859,2438.02016454977
-0.410139424392031,2438.03016454977
-0.429003647191913,2438.04016454977
-0.44808628958321,2438.05016454977
-0.467048250685175,2438.06016454977
-0.485654807507749,2438.07016454977
-0.503920167309814,2438.08016454977
-0.521430120049272,2438.09016454977
-0.539154264179648,2438.10016454977
-0.557222533024564,2438.11016454977
-0.574658918523566,2438.12016454977
-0.590592643178583,2438.13016454977
-0.605739223181864,2438.14016454977
-0.620935174114195,2438.15016454977
-0.636404793485855,2438.16016454977
-0.652262862132979,2438.17016454977
-0.667676358596838,2438.18016454977
-0.678572442603301,2438.19016454977
-0.681206816478151,2438.20016454977
-0.669316632644994,2438.21016454977
-0.638750092357073,2438.22016454977
-0.590108267758694,2438.23016454977
-0.526323552127497,2438.24016454977
-0.453779388803383,2438.25016454977
-0.37834260205033,2438.26016454977
-0.30545955318412,2438.27016454977
-0.239509502945518,2438.28016454977
-0.182625570739594,2438.29016454977
-0.1363914826444,2438.30016454977
-0.100023044671445,2438.31016454977
-0.0727963464554832,2438.32016454977
-0.0519610382820919,2438.33016454977
-0.0360443072857786,2438.34016454977
-0.0228815367618914,2438.35016454977
-0.0114965316156996,2438.36016454977
-0.00207874684307265,2438.37016454977
0.00685802184754777,2438.38016454977
0.015157103715817,2438.39016454977
0.0228741987318191,2438.40016454977
0.030276194831997,2438.41016454977
0.0365287932483807,2438.42016454977
0.0397043141436467,2438.43016454977
0.0386687340599196,2438.44016454977
0.0332362076155215,2438.45016454977
0.0220375666488496,2438.46016454977
0.0058819150054488,2438.47016454977
-0.0124926390775513,2438.48016454977
-0.0322585617600432,2438.49016454977
-0.0502336652895716,2438.50016454977
-0.0651874628580745,2438.51016454977
-0.0761703381370877,2438.52016454977
-0.0826661697148641,2438.53016454977
-0.0855024847548784,2438.54016454977
-0.0857476460349098,2438.55016454977
-0.085544348164448,2438.56016454977
-0.0854160113474211,2438.57016454977
-0.0869444845750658,2438.58016454977
-0.0889891246711145,2438.59016454977
-0.0935207226305107,2438.60016454977
-0.100230738911706,2438.61016454977
-0.109561963614274,2438.62016454977
-0.121857791962166,2438.63016454977
-0.135549897169789,2438.64016454977
-0.149137348963082,2438.65016454977
-0.16248893791975,2438.66016454977
-0.176149467793484,2438.67016454977
-0.19003305539616,2438.68016454977
-0.20431109834153,2438.69016454977
-0.219559003626012,2438.70016454977
-0.235608481637853,2438.71016454977
-0.252234673325915,2438.72016454977
-0.268537448561542,2438.73016454977
-0.284916777899208,2438.74016454977
-0.301396856380488,2438.75016454977
-0.317748552593708,2438.76016454977
-0.334333720698657,2438.77016454977
-0.350687667350967,2438.78016454977
-0.367721181621777,2438.79016454977
-0.384125033516645,2438.80016454977
-0.399899175818157,2438.81016454977
-0.415352927548471,2438.82016454977
-0.430529658623374,2438.83016454977
-0.445536504514949,2438.84016454977
-0.460659794028667,2438.85016454977
-0.475952006776397,2438.86016454977
-0.492006327597453,2438.87016454977
-0.508722078247943,2438.88016454977
-0.525750520364576,2438.89016454977
-0.542483146890147,2438.90016454977
-0.558177830791656,2438.91016454977
-0.573734853941678,2438.92016454977
-0.588291331839514,2438.93016454977
-0.602676722687428,2438.94016454977
-0.616566938149968,2438.95016454977
-0.630236631185644,2438.96016454977
-0.643882267834851,2438.97016454977
-0.656057854006478,2438.98016454977
-0.663533178476265,2438.99016454977
-0.661114138541759,2439.00016454977
-0.643283584455472,2439.01016454977
-0.607102120058273,2439.02016454977
-0.553055714038541,2439.03016454977
-0.485464447592518,2439.04016454977
-0.40956665828164,2439.05016454977
-0.331365807980012,2439.06016454977
-0.256308405339066,2439.07016454977
-0.187572009062772,2439.08016454977
-0.12878925431629,2439.09016454977
-0.0801039323826417,2439.10016454977
-0.0403146791288435,2439.11016454977
-0.00897334386340298,2439.12016454977
0.0174073950553112,2439.13016454977
0.0403196109015759,2439.14016454977
0.0614384558554951,2439.15016454977
0.0820035694016864,2439.16016454977
0.101587798607332,2439.17016454977
0.120814895261924,2439.18016454977
0.139156429578797,2439.19016454977
0.156501417108979,2439.20016454977
0.173206498422027,2439.21016454977
0.187969493328382,2439.22016454977
0.200541321648105,2439.23016454977
0.210071320469146,2439.24016454977
0.215776156155217,2439.25016454977
0.215529319117727,2439.26016454977
0.209146003899036,2439.27016454977
0.195760516692208,2439.28016454977
0.177293430791386,2439.29016454977
0.155747370811919,2439.30016454977
0.134328506303026,2439.31016454977
0.116472909998577,2439.32016454977
0.103485178973541,2439.33016454977
0.0952568794636547,2439.34016454977
0.0907680852077214,2439.35016454977
0.0883813219701522,2439.36016454977
0.0866236124684031,2439.37016454977
0.0842424809856319,2439.38016454977
0.0812678702798176,2439.39016454977
0.0767217481972154,2439.40016454977
0.0711246862593677,2439.41016454977
0.0644150634544161,2439.42016454977
0.0557699177173548,2439.43016454977
0.0455483115500467,2439.44016454977
0.0331003039498008,2439.45016454977
0.0193453357943441,2439.46016454977
0.00401045342458858,2439.47016454977
-0.0114923316433919,2439.48016454977
-0.0268169275562501,2439.49016454977
-0.0425130790068816,2439.50016454977
-0.0583066259265378,2439.51016454977
-0.0741305514194708,2439.52016454977
-0.0910612550717415,2439.53016454977
-0.108209538118234,2439.54016454977
-0.126393677666001,2439.55016454977
-0.144936930710048,2439.56016454977
-0.163020133387769,2439.57016454977
-0.181115083960315,2439.58016454977
-0.199475281541902,2439.59016454977
-0.217256652844298,2439.60016454977
-0.235091721670572,2439.61016454977
-0.252885315017834,2439.62016454977
-0.270388003749522,2439.63016454977
-0.288176331660205,2439.64016454977
-0.305704164209925,2439.65016454977
-0.322872359359787,2439.66016454977
-0.338876359480008,2439.67016454977
-0.355200396816421,2439.68016454977
-0.371800741745489,2439.69016454977
-0.389703271585519,2439.70016454977
-0.408312121469605,2439.71016454977
-0.42686720761878,2439.72016454977
-0.444844807585901,2439.73016454977
-0.461281251209107,2439.74016454977
-0.477618363720241,2439.75016454977
-0.492712259028389,2439.76016454977
-0.508023012037586,2439.77016454977
-0.523627987640901,2439.78016454977
-0.538545718245285,2439.79016454977
-0.553953471622434,2439.80016454977
-0.568244852994084,2439.81016454977
-0.582513177379019,2439.82016454977
-0.595753794288414,2439.83016454977
-0.607033470763933,2439.84016454977
-0.614172514317267,2439.85016454977
-0.61074143402911,2439.86016454977
-0.59232109767643,2439.87016454977
-0.554933510201684,2439.88016454977
-0.499770821937208,2439.89016454977
-0.431231710993035,2439.90016454977
-0.355952699483069,2439.91016454977
-0.280877076174979,2439.92016454977
-0.210535058560695,2439.93016454977
-0.149341627629555,2439.94016454977
-0.0985052503151112,2439.95016454977
-0.0577941739524782,2439.96016454977
-0.0263571891243045,2439.97016454977
-0.00218291272497914,2439.98016454977
0.017087002663316,2439.99016454977
0.0341314378187283,2440.00016454977
0.0494154199816241,2440.01016454977
0.0646581336183158,2440.02016454977
0.0793212551549306,2440.03016454977
0.0934060691567016,2440.04016454977
0.106512117215763,2440.05016454977
0.118977858264695,2440.06016454977
0.130917009787469,2440.07016454977
0.141873995834706,2440.08016454977
0.15144876776703,2440.09016454977
0.157849724477306,2440.10016454977
0.160050947370616,2440.11016454977
0.157359330284275,2440.12016454977
0.149184681833884,2440.13016454977
0.135789908106145,2440.14016454977
0.118205307992146,2440.15016454977
0.0985236194293994,2440.16016454977
0.0780385713143634,2440.17016454977
0.0579399640122458,2440.18016454977
0.0408949542774676,2440.19016454977
0.0264649352391369,2440.20016454977
0.0156263738041134,2440.21016454977
0.00710112485884934,2440.22016454977
0.00125049865340781,2440.23016454977
-0.00419264664348827,2440.24016454977
-0.00963172158298846,2440.25016454977
-0.0162166206389155,2440.26016454977
-0.0247976414764338,2440.27016454977
-0.0356251921979896,2440.28016454977
-0.0485826448451263,2440.29016454977
-0.0633756227722542,2440.30016454977
-0.0797260401264833,2440.31016454977
-0.0972893460376897,2440.32016454977
-0.115228037533341,2440.33016454977
-0.132891494450112,2440.34016454977
-0.150601082782381,2440.35016454977
-0.168739919533172,2440.36016454977
-0.187761206324406,2440.37016454977
-0.207519970137063,2440.38016454977
-0.227409117773371,2440.39016454977
-0.246311319040558,2440.40016454977
-0.264839305559515,2440.41016454977
-0.283739698068833,2440.42016454977
-0.302857013321083,2440.43016454977
-0.322554175655001,2440.44016454977
-0.342428113276682,2440.45016454977
-0.362354644016702,2440.46016454977
-0.381212921068092,2440.47016454977
-0.399670993305266,2440.48016454977
-0.417564769562489,2440.49016454977
-0.434667433314862,2440.50016454977
-0.451380563470832,2440.51016454977
-0.467952674430449,2440.52016454977
-0.484656046972132,2440.53016454977
-0.500907294619994,2440.54016454977
-0.517392047502849,2440.55016454977
-0.533528774531292,2440.56016454977
-0.549632718478282,2440.57016454977
-0.565789996456951,2440.58016454977
-0.582034223154592,2440.59016454977
-0.59873709506882,2440.60016454977
-0.615214387933106,2440.61016454977
-0.632114243503221,2440.62016454977
-0.64874734179718,2440.63016454977
-0.665914032868305,2440.64016454977
-0.681843771188596,2440.65016454977
-0.697257502059617,2440.66016454977
-0.712745538558817,2440.67016454977
-0.72811031851408,2440.68016454977
-0.743935179995126,2440.69016454977
-0.759626498863792,2440.70016454977
-0.775267699394966,2440.71016454977
-0.790544197172607,2440.72016454977
-0.804996718219382,2440.73016454977
-0.818802682411851,2440.74016454977
-0.831752455136797,2440.75016454977
-0.843525918507725,2440.76016454977
-0.85298701022941,2440.77016454977
-0.855969664446925,2440.78016454977
-0.847414018159806,2440.79016454977
-0.823110182168841,2440.80016454977
-0.781756609793423,2440.81016454977
-0.727696504702836,2440.82016454977
-0.666875375483387,2440.83016454977
-0.606229595262969,2440.84016454977
-0.55137980429134,2440.85016454977
-0.505631350556872,2440.86016454977
-0.471021332211087,2440.87016454977
-0.447110979617105,2440.88016454977
-0.431471228324501,2440.89016454977
-0.42234438801835,2440.90016454977
-0.416663738756537,2440.91016454977
-0.412321617125202,2440.92016454977
-0.407896297481509,2440.93016454977
-0.402412318436983,2440.94016454977
-0.395631097563031,2440.95016454977
-0.388024673545095,2440.96016454977
-0.380200064213795,2440.97016454977
-0.373447719631118,2440.98016454977
-0.367468633055371,2440.99016454977
-0.362919892326406,2441.00016454977
-0.359663114267886,2441.01016454977
-0.358510344461439,2441.02016454977
-0.360296291548747,2441.03016454977
-0.366347015041878,2441.04016454977
-0.376913721951238,2441.05016454977
-0.390614946382133,2441.06016454977
-0.405388789636541,2441.07016454977
-0.419441346747729,2441.08016454977
-0.432503158634132,2441.09016454977
-0.442838168544668,2441.10016454977
-0.450927345306743,2441.11016454977
-0.456292811618935,2441.12016454977
-0.460123844800166,2441.13016454977
-0.462735403916612,2441.14016454977
-0.464743502441768,2441.15016454977
-0.467580701554502,2441.16016454977
-0.470817780735549,2441.17016454977
-0.475824999013306,2441.18016454977
-0.482284924561205,2441.19016454977
-0.491055165032954,2441.20016454977
-0.500718111816143,2441.21016454977
-0.511538018857392,2441.22016454977
-0.522844731217029,2441.23016454977
-0.534085901324772,2441.24016454977
-0.545544382040333,2441.25016454977
-0.557721854325888,2441.26016454977
-0.569566685978092,2441.27016454977
-0.581775852368458,2441.28016454977
-0.59435040722959,2441.29016454977
-0.607947493732529,2441.30016454977
-0.622771029399206,2441.31016454977
-0.63698175619897,2441.32016454977
-0.650801660333041,2441.33016454977
-0.663621702108344,2441.34016454977
-0.675823456801493,2441.35016454977
-0.688427888299536,2441.36016454977
-0.701505492677125,2441.37016454977
-0.715145774773685,2441.38016454977
-0.729137815144658,2441.39016454977
-0.743227942413327,2441.40016454977
-0.757176608938658,2441.41016454977
-0.770261813181378,2441.42016454977
-0.783036652967266,2441.43016454977
-0.795480973516476,2441.44016454977
-0.807841509091251,2441.45016454977
-0.820976565192748,2441.46016454977
-0.834277390478026,2441.47016454977
-0.847020344092749,2441.48016454977
-0.858432074351036,2441.49016454977
-0.86924489809438,2441.50016454977
-0.879851656713501,2441.51016454977
-0.89054184920656,2441.52016454977
-0.901682569002747,2441.53016454977
-0.91316564149434,2441.54016454977
-0.924761527752375,2441.55016454977
-0.93670308094254,2441.56016454977
-0.948694516479402,2441.57016454977
-0.960494357380976,2441.58016454977
-0.972095051711429,2441.59016454977
-0.982543852273029,2441.60016454977
-0.993159696443165,2441.61016454977
-1.00312746028229,2441.62016454977
-1.01356772260934,2441.63016454977
-1.023293420518,2441.64016454977
-1.03274755841711,2441.65016454977
-1.0422269324972,2441.66016454977
-1.05156216934945,2441.67016454977
-1.06038409639022,2441.68016454977
-1.06634976679016,2441.69016454977
-1.06584989939908,2441.70016454977
-1.05437079030397,2441.71016454977
-1.0291265048057,2441.72016454977
-0.989918723948758,2441.73016454977
-0.940069269418995,2441.74016454977
-0.884580606727757,2441.75016454977
-0.829558189455876,2441.76016454977
-0.781145488778832,2441.77016454977
-0.742635285901649,2441.78016454977
-0.715352073331192,2441.79016454977
-0.697799790124309,2441.80016454977
-0.688351160937982,2441.81016454977
-0.684355367858804,2441.82016454977
-0.682622313954368,2441.83016454977
-0.681590271645311,2441.84016454977
-0.679429099578633,2441.85016454977
-0.675782048160305,2441.86016454977
-0.66984859383016,2441.87016454977
-0.662187881038716,2441.88016454977
-0.653416364410233,2441.89016454977
-0.644068530030532,2441.90016454977
-0.635775756695115,2441.91016454977
-0.627747259332884,2441.92016454977
-0.620201633950922,2441.93016454977
-0.613688678647651,2441.94016454977
-0.608494595360832,2441.95016454977
-0.606715860277361,2441.96016454977
-0.608709646795067,2441.97016454977
-0.615402449405608,2441.98016454977
-0.625366063886885,2441.99016454977
-0.636250213794165,2442.00016454977
-0.645261565346748,2442.01016454977
-0.65167446475086,2442.02016454977
-0.655469230877711,2442.03016454977
-0.656640373463839,2442.04016454977
-0.656519881506036,2442.05016454977
-0.655228498647783,2442.06016454977
-0.653303571556797,2442.07016454977
-0.651670233757941,2442.08016454977
-0.650857501197833,2442.09016454977
-0.650790353105918,2442.10016454977
-0.652183214055358,2442.11016454977
-0.654929659215334,2442.12016454977
-0.65948243028999,2442.13016454977
-0.665605401170009,2442.14016454977
-0.671710923015764,2442.15016454977
-0.678552474699265,2442.16016454977
-0.685267099477359,2442.17016454977
-0.692018214103891,2442.18016454977
-0.698783576768492,2442.19016454977
-0.705700991463474,2442.20016454977
-0.713513351852682,2442.21016454977
-0.721746618628295,2442.22016454977
-0.730867447808792,2442.23016454977
-0.741188269542324,2442.24016454977
-0.751383956486245,2442.25016454977
-0.761380038070948,2442.26016454977
-0.770941744960815,2442.27016454977
-0.77965828522646,2442.28016454977
-0.788339154271715,2442.29016454977
-0.797131429948251,2442.30016454977
-0.805894712448368,2442.31016454977
-0.814818482143065,2442.32016454977
-0.824089004401245,2442.33016454977
-0.833493240724938,2442.34016454977
-0.843208163750581,2442.35016454977
-0.852834312736213,2442.36016454977
-0.862397025116766,2442.37016454977
-0.871750175286959,2442.38016454977
-0.882041911196477,2442.39016454977
-0.892385982406701,2442.40016454977
-0.902144145543077,2442.41016454977
-0.910595463128891,2442.42016454977
-0.917831858212839,2442.43016454977
-0.924722914054796,2442.44016454977
-0.932022833888597,2442.45016454977
-0.939838984254866,2442.46016454977
-0.947865927995707,2442.47016454977
-0.956459680869887,2442.48016454977
-0.9661788233642,2442.49016454977
-0.975780513350512,2442.50016454977
-0.985500106751264,2442.51016454977
-0.995062933583433,2442.52016454977
-1.00444645186192,2442.53016454977
-1.01348809162229,2442.54016454977
-1.02242790432339,2442.55016454977
-1.03056071119402,2442.56016454977
-1.03873543447322,2442.57016454977
-1.04699406146755,2442.58016454977
-1.05548393708578,2442.59016454977
-1.06485154398099,2442.60016454977
-1.07322951503772,2442.61016454977
-1.08126821914969,2442.62016454977
-1.08699751657767,2442.63016454977
-1.08779459432818,2442.64016454977
-1.07910004347913,2442.65016454977
-1.0576857036453,2442.66016454977
-1.02199511836354,2442.67016454977
-0.974720774981197,2442.68016454977
-0.921884635892846,2442.69016454977
-0.868610153188361,2442.70016454977
-0.821022626795134,2442.71016454977
-0.781769673209676,2442.72016454977
-0.751829612328371,2442.73016454977
-0.731099125672775,2442.74016454977
-0.717857787753089,2442.75016454977
-0.710428859449944,2442.76016454977
-0.706345470122471,2442.77016454977
-0.703115754969374,2442.78016454977
-0.700051146422999,2442.79016454977
-0.696037518345975,2442.80016454977
-0.691304453626296,2442.81016454977
-0.685101504216285,2442.82016454977
-0.677776568114769,2442.83016454977
-0.670249036603867,2442.84016454977
-0.662058458584388,2442.85016454977
-0.653821082353075,2442.86016454977
-0.645163700983742,2442.87016454977
-0.637232661691395,2442.88016454977
-0.630999427216114,2442.89016454977
-0.628181504121957,2442.90016454977
-0.629490775658358,2442.91016454977
-0.634648348443083,2442.92016454977
-0.641690401914872,2442.93016454977
-0.648512431600832,2442.94016454977
-0.654198335402572,2442.95016454977
-0.658324375509166,2442.96016454977
-0.659769578692588,2442.97016454977
-0.658971815174011,2442.98016454977
-0.656926676670803,2442.99016454977
-0.653437045080349,2443.00016454977
-0.650162207027407,2443.01016454977
-0.647112469019457,2443.02016454977
-0.6450906317338,2443.03016454977
-0.644671346064829,2443.04016454977
-0.645227336992939,2443.05016454977
-0.647393240268398,2443.06016454977
-0.65122211900657,2443.07016454977
-0.656217051421477,2443.08016454977
-0.661465742804071,2443.09016454977
-0.666745159822478,2443.10016454977
-0.672075799167191,2443.11016454977
-0.677809196665473,2443.12016454977
-0.684503835487651,2443.13016454977
-0.691252790622814,2443.14016454977
-0.698529419313613,2443.15016454977
-0.70614496549279,2443.16016454977
-0.714255498314059,2443.17016454977
-0.722382299081277,2443.18016454977
-0.731369146790727,2443.19016454977
-0.740046162982752,2443.20016454977
-0.748697074139044,2443.21016454977
-0.757386716258846,2443.22016454977
-0.765773833976833,2443.23016454977
-0.773624755241769,2443.24016454977
-0.781723542789436,2443.25016454977
-0.78920806025384,2443.26016454977
-0.797041900388061,2443.27016454977
-0.804879103070279,2443.28016454977
-0.812570415230716,2443.29016454977
-0.820732589670417,2443.30016454977
-0.829048869600778,2443.31016454977
-0.838255242141792,2443.32016454977
-0.848413558317919,2443.33016454977
-0.858093155266662,2443.34016454977
-0.867641878423697,2443.35016454977
-0.875896732583555,2443.36016454977
-0.883974747281482,2443.37016454977
-0.892163716299218,2443.38016454977
-0.900350972956754,2443.39016454977
-0.909442588825582,2443.40016454977
-0.918320804036453,2443.41016454977
-0.927178319521439,2443.42016454977
-0.936510370013719,2443.43016454977
-0.945475140471895,2443.44016454977
-0.954724014051705,2443.45016454977
-0.962984508704574,2443.46016454977
-0.970524594735293,2443.47016454977
-0.977619249431375,2443.48016454977
-0.984715372066524,2443.49016454977
-0.99120726091161,2443.50016454977
-0.995420247014421,2443.51016454977
-0.994595253110264,2443.52016454977
-0.983638132798012,2443.53016454977
-0.960729472552879,2443.54016454977
-0.925680325922987,2443.55016454977
-0.881367844986725,2443.56016454977
-0.832071766557174,2443.57016454977
-0.783594270150997,2443.58016454977
-0.740514350827614,2443.59016454977
-0.704040559721759,2443.60016454977
-0.675350341707433,2443.61016454977
-0.653898520155378,2443.62016454977
-0.639524935824601,2443.63016454977
-0.629876432813935,2443.64016454977
-0.623799431796489,2443.65016454977
-0.619394880249386,2443.66016454977
-0.615210014765348,2443.67016454977
-0.609526741301795,2443.68016454977
-0.602959273452598,2443.69016454977
-0.594838590653133,2443.70016454977
-0.585654826243732,2443.71016454977
-0.575813217894326,2443.72016454977
-0.565984745322962,2443.73016454977
-0.556437260856075,2443.74016454977
-0.548239789930149,2443.75016454977
-0.541433248015356,2443.76016454977
-0.537446984411986,2443.77016454977
-0.536798187626952,2443.78016454977
-0.538901039357929,2443.79016454977
-0.542545934010914,2443.80016454977
-0.546238043733332,2443.81016454977
-0.548505058436897,2443.82016454977
-0.548949525143465,2443.83016454977
-0.547103621112385,2443.84016454977
-0.543010723573775,2443.85016454977
-0.537373868862387,2443.86016454977
-0.530810591011065,2443.87016454977
-0.524450413115035,2443.88016454977
-0.519458555572479,2443.89016454977
-0.515701820964998,2443.90016454977
-0.51392694742146,2443.91016454977
-0.514289379920721,2443.92016454977
-0.516339033537213,2443.93016454977
-0.520096604968031,2443.94016454977
-0.524725359942409,2443.95016454977
-0.530450149658051,2443.96016454977
-0.536387415577874,2443.97016454977
-0.542696134678595,2443.98016454977
-0.549172933217933,2443.99016454977
-0.55511002010746,2444.00016454977
-0.560699902541077,2444.01016454977
-0.566480231300296,2444.02016454977
-0.572653225346198,2444.03016454977
-0.579352992371069,2444.04016454977
-0.586464204090518,2444.05016454977
-0.593822848849853,2444.06016454977
-0.600951267551466,2444.07016454977
-0.608449183986735,2444.08016454977
-0.615768081327632,2444.09016454977
-0.622939878634528,2444.10016454977
-0.629482261030549,2444.11016454977
-0.635081350480044,2444.12016454977
-0.640622911608884,2444.13016454977
-0.645468081364046,2444.14016454977
-0.651280525854146,2444.15016454977
-0.657680181882809,2444.16016454977
-0.664341411337821,2444.17016454977
-0.671888542583852,2444.18016454977
-0.680167738970808,2444.19016454977
-0.689074725652849,2444.20016454977
-0.698878502619492,2444.21016454977
-0.709175092206763,2444.22016454977
-0.719871143854463,2444.23016454977
-0.731662443630135,2444.24016454977
-0.743103920056958,2444.25016454977
-0.754414199692001,2444.26016454977
-0.764944231575722,2444.27016454977
-0.774254019188115,2444.28016454977
-0.782866504374493,2444.29016454977
-0.790875421599193,2444.30016454977
-0.797941231583877,2444.31016454977
-0.802854790958922,2444.32016454977
-0.801600834963211,2444.33016454977
-0.790113257109825,2444.34016454977
-0.765514551977515,2444.35016454977
-0.726651709967925,2444.36016454977
-0.676756177322839,2444.37016454977
-0.620862239640866,2444.38016454977
-0.563635602777578,2444.39016454977
-0.509880364069436,2444.40016454977
-0.462556865056618,2444.41016454977
-0.423005858095343,2444.42016454977
-0.390895953379652,2444.43016454977
-0.364956718876159,2444.44016454977
-0.344089674037847,2444.45016454977
-0.32596374299023,2444.46016454977
-0.309396791452503,2444.47016454977
-0.292774800595634,2444.48016454977
-0.275972230243156,2444.49016454977
-0.25809319573041,2444.50016454977
-0.238972655772276,2444.51016454977
-0.21900679884862,2444.52016454977
-0.199164319949835,2444.53016454977
-0.17898932562291,2444.54016454977
-0.160213162907683,2444.55016454977
-0.142261777139237,2444.56016454977
-0.126457390915741,2444.57016454977
-0.113939049784502,2444.58016454977
-0.104716458825438,2444.59016454977
-0.100440556966545,2444.60016454977
-0.100402431281529,2444.61016454977
-0.104089885697077,2444.62016454977
-0.109721280622163,2444.63016454977
-0.115417740605878,2444.64016454977
-0.120546738674029,2444.65016454977
-0.124765623971248,2444.66016454977
-0.126470551972765,2444.67016454977
-0.12642860149959,2444.68016454977
-0.124047726668168,2444.69016454977
-0.120271624697685,2444.70016454977
-0.115800107008768,2444.71016454977
-0.111834289658487,2444.72016454977
-0.108504900835601,2444.73016454977
-0.106560858536113,2444.74016454977
-0.106742718974213,2444.75016454977
-0.109670296817221,2444.76016454977
-0.114445865817973,2444.77016454977
-0.120929239624585,2444.78016454977
-0.12841646063505,2444.79016454977
-0.136562407741664,2444.80016454977
-0.145057263488881,2444.81016454977
-0.153801054063713,2444.82016454977
-0.162551638318568,2444.83016454977
-0.170566332755458,2444.84016454977
-0.178938626575478,2444.85016454977
-0.18821649599462,2444.86016454977
-0.198500596021735,2444.87016454977
-0.209160175571419,2444.88016454977
-0.220309620519975,2444.89016454977
-0.231968254133614,2444.90016454977
-0.244056929267646,2444.91016454977
-0.256255943709597,2444.92016454977
-0.268584016141344,2444.93016454977
-0.280461235466343,2444.94016454977
-0.291587459116314,2444.95016454977
-0.301942864295371,2444.96016454977
-0.31196475719371,2444.97016454977
-0.321938294993018,2444.98016454977
-0.331975177910184,2444.99016454977
-0.342691162238971,2445.00016454977
-0.354125055571727,2445.01016454977
-0.365403950999438,2445.02016454977
-0.376668243925607,2445.03016454977
-0.387719950923176,2445.04016454977
-0.398330708531377,2445.05016454977
-0.409412665546987,2445.06016454977
-0.421243869188711,2445.07016454977
-0.432950010410933,2445.08016454977
-0.444287458701087,2445.09016454977
-0.453763478164054,2445.10016454977
-0.462402969922749,2445.11016454977
-0.471613427647915,2445.12016454977
-0.481408787256108,2445.13016454977
-0.491769611946559,2445.14016454977
-0.501041778212553,2445.15016454977
-0.50559890298419,2445.16016454977
-0.500629169150241,2445.17016454977
-0.482123353559162,2445.18016454977
-0.447498275912838,2445.19016454977
-0.399209467582279,2445.20016454977
-0.341852043541957,2445.21016454977
-0.280692932034531,2445.22016454977
-0.220238531220441,2445.23016454977
-0.164872467206507,2445.24016454977
-0.115743697718408,2445.25016454977
-0.0734501236557584,2445.26016454977
-0.0381861596029982,2445.27016454977
-0.00931169837445689,2445.28016454977
0.0147608720841722,2445.29016454977
0.0358715733837022,2445.30016454977
0.0558203199290108,2445.31016454977
0.0744674126217774,2445.32016454977
0.0927247079908532,2445.33016454977
0.11068926932798,2445.34016454977
0.129010437150082,2445.35016454977
0.147720122348765,2445.36016454977
0.165700482882171,2445.37016454977
0.183207103076831,2445.38016454977
0.19869002784865,2445.39016454977
0.212549804801846,2445.40016454977
0.223295358986292,2445.41016454977
0.229686570981921,2445.42016454977
0.2310453392496,2445.43016454977
0.227418089979182,2445.44016454977
0.219628282637584,2445.45016454977
0.209419980997679,2445.46016454977
0.198884894086383,2445.47016454977
0.18892447983298,2445.48016454977
0.180364305820832,2445.49016454977
0.174821213649493,2445.50016454977
0.171636545139387,2445.51016454977
0.170294384687611,2445.52016454977
0.17023382651447,2445.53016454977
0.17066965929754,2445.54016454977
0.170881092521898,2445.55016454977
0.170190566794054,2445.56016454977
0.168576421017506,2445.57016454977
0.165056138232371,2445.58016454977
0.159321385513634,2445.59016454977
0.151399448944472,2445.60016454977
0.142012353999746,2445.61016454977
0.131714805094382,2445.62016454977
0.120624980862788,2445.63016454977
0.109300684340878,2445.64016454977
0.097830455112641,2445.65016454977
0.0861130216924788,2445.66016454977
0.0744542026887352,2445.67016454977
0.0618587965065152,2445.68016454977
0.0487217647778467,2445.69016454977
0.0344774395643665,2445.70016454977
0.0194730656214127,2445.71016454977
0.00388766770049216,2445.72016454977
-0.0123463274169693,2445.73016454977
-0.0294810428118857,2445.74016454977
-0.0478036205909327,2445.75016454977
-0.0658506567421081,2445.76016454977
-0.0828075783578714,2445.77016454977
-0.0981867461558431,2445.78016454977
-0.112637714394746,2445.79016454977
-0.126251103216575,2445.80016454977
-0.139381529802656,2445.81016454977
-0.153029472270141,2445.82016454977
-0.167510939232625,2445.83016454977
-0.18294848588897,2445.84016454977
-0.198964739015179,2445.85016454977
-0.215454311021685,2445.86016454977
-0.231723695011492,2445.87016454977
-0.247888103497361,2445.88016454977
-0.263327034585771,2445.89016454977
-0.279028090124302,2445.90016454977
-0.294254631987967,2445.91016454977
-0.309402988814133,2445.92016454977
-0.324348901017702,2445.93016454977
-0.338793045822665,2445.94016454977
-0.353093873593044,2445.95016454977
-0.367288737779898,2445.96016454977
-0.380902162860607,2445.97016454977
-0.394642244782138,2445.98016454977
-0.408834256253992,2445.99016454977
-0.422594859569393,2446.00016454977
-0.433953929450532,2446.01016454977
-0.436517438302832,2446.02016454977
-0.424886193923497,2446.03016454977
-0.397547635754536,2446.04016454977
-0.355480097685799,2446.05016454977
-0.303812586277096,2446.06016454977
-0.247636817772966,2446.07016454977
-0.19365472729582,2446.08016454977
-0.145750358437531,2446.09016454977
-0.106291299330425,2446.10016454977
-0.0751849744393778,2446.11016454977
-0.052696818503814,2446.12016454977
-0.0369354566439317,2446.13016454977
-0.0260543185502362,2446.14016454977
-0.0187766300792393,2446.15016454977
-0.0129421688438351,2446.16016454977
-0.00784810905739089,2446.17016454977
-0.00248811725970555,2446.18016454977
0.00403321668280901,2446.19016454977
0.0113327515379321,2446.20016454977
0.0189808677050923,2446.21016454977
0.0267690635292914,2446.22016454977
0.0343098152709957,2446.23016454977
0.0409933831603122,2446.24016454977
0.0463916984654642,2446.25016454977
0.0488808634808144,2446.26016454977
0.0476965471751847,2446.27016454977
0.0428214989183352,2446.28016454977
0.0352229164368706,2446.29016454977
0.0247693210790566,2446.30016454977
0.0123688332838547,2446.31016454977
-0.00025818901858996,2446.32016454977
-0.0122069864681125,2446.33016454977
-0.0227992343280081,2446.34016454977
-0.031406447931843,2446.35016454977
-0.037742552225751,2446.36016454977
-0.0430434260667255,2446.37016454977
-0.0469202764368122,2446.38016454977
-0.0507294654476707,2446.39016454977
-0.0550840063673489,2446.40016454977
-0.060556812672387,2446.41016454977
-0.067883662684843,2446.42016454977
-0.0770710837969402,2446.43016454977
-0.0872967542134885,2446.44016454977
-0.0977956203641969,2446.45016454977
-0.108516582452984,2446.46016454977
-0.11932588706222,2446.47016454977
-0.131310827982716,2446.48016454977
-0.143366676484447,2446.49016454977
-0.156039497585753,2446.50016454977
-0.169124693398597,2446.51016454977
-0.182992230930185,2446.52016454977
-0.197077186917889,2446.53016454977
-0.210608979472632,2446.54016454977
-0.223608052312669,2446.55016454977
-0.236074001917448,2446.56016454977
-0.248690024524873,2446.57016454977
-0.261796856727032,2446.58016454977
-0.274428806967695,2446.59016454977
-0.287640547190769,2446.60016454977
-0.301786021909547,2446.61016454977
-0.316418585816725,2446.62016454977
-0.331004174038965,2446.63016454977
-0.345849626114241,2446.64016454977
-0.360800435701589,2446.65016454977
-0.375136020243048,2446.66016454977
-0.389515567168316,2446.67016454977
-0.404474111241351,2446.68016454977
-0.419413443828111,2446.69016454977
-0.432932177932543,2446.70016454977
-0.445070408636229,2446.71016454977
-0.456602870914501,2446.72016454977
-0.467954454037278,2446.73016454977
-0.479603029432631,2446.74016454977
-0.492118074058217,2446.75016454977
-0.505953135044929,2446.76016454977
-0.519795691024511,2446.77016454977
-0.533371767982812,2446.78016454977
-0.545965342815793,2446.79016454977
-0.558308134334416,2446.80016454977
-0.569688305547366,2446.81016454977
-0.580865538604217,2446.82016454977
-0.591860903636704,2446.83016454977
-0.602667587749452,2446.84016454977
-0.613313650268412,2446.85016454977
-0.623404958410844,2446.86016454977
-0.631923183140427,2446.87016454977
-0.635120657420744,2446.88016454977
-0.629395344281458,2446.89016454977
-0.610476392553519,2446.90016454977
-0.578939296714174,2446.91016454977
-0.536847320680139,2446.92016454977
-0.489286013087788,2446.93016454977
-0.442261139203094,2446.94016454977
-0.399689003487732,2446.95016454977
-0.364490935207277,2446.96016454977
-0.338368075538859,2446.97016454977
-0.321378770187388,2446.98016454977
-0.311575828115681,2446.99016454977
-0.308075338985837,2447.00016454977
-0.308602681066897,2447.01016454977
-0.310625418890459,2447.02016454977
-0.312619077661528,2447.03016454977
-0.313843261332528,2447.04016454977
-0.313162093594434,2447.05016454977
-0.310877638877628,2447.06016454977
-0.307199154458126,2447.07016454977
-0.303161082844581,2447.08016454977
-0.298792644005117,2447.09016454977
-0.294714917247669,2447.10016454977
-0.291178101562939,2447.11016454977
-0.28845075820712,2447.12016454977
-0.286817139700007,2447.13016454977
-0.287274902670594,2447.14016454977
-0.290474814483735,2447.15016454977
-0.296541998902095,2447.16016454977
-0.305317420690818,2447.17016454977
-0.315515114145179,2447.18016454977
-0.326132878444794,2447.19016454977
-0.335863882367702,2447.20016454977
-0.343416158156734,2447.21016454977
-0.348759791658698,2447.22016454977
-0.351462086915048,2447.23016454977
-0.352414339792826,2447.24016454977
-0.352026976566703,2447.25016454977
-0.351114116324901,2447.26016454977
-0.350762718050874,2447.27016454977
-0.351329982481967,2447.28016454977
-0.352999500449432,2447.29016454977
-0.356044835513562,2447.30016454977
-0.360241463123162,2447.31016454977
-0.365846077866637,2447.32016454977
-0.3723483092708,2447.33016454977
-0.380470130713978,2447.34016454977
-0.388691719094259,2447.35016454977
-0.397324039203059,2447.36016454977
-0.406062870450803,2447.37016454977
-0.414371502144857,2447.38016454977
-0.423104533967643,2447.39016454977
-0.432552360755233,2447.40016454977
-0.442054464107315,2447.41016454977
-0.452213853375533,2447.42016454977
-0.462207892787648,2447.43016454977
-0.47213858944044,2447.44016454977
-0.481172636458352,2447.45016454977
-0.490055201297829,2447.46016454977
-0.499088828701077,2447.47016454977
-0.508049461895859,2447.48016454977
-0.516231908216306,2447.49016454977
-0.525110487255377,2447.50016454977
-0.534437852611568,2447.51016454977
-0.54358369413845,2447.52016454977
-0.552347405652752,2447.53016454977
-0.561110491107842,2447.54016454977
-0.569258146637795,2447.55016454977
-0.576696330525179,2447.56016454977
-0.584249385346987,2447.57016454977
-0.592160821766026,2447.58016454977
-0.600730128477101,2447.59016454977
-0.609869640828608,2447.60016454977
-0.618932822777732,2447.61016454977
-0.627612009694789,2447.62016454977
-0.636039896430651,2447.63016454977
-0.644342600753295,2447.64016454977
-0.652082558901017,2447.65016454977
-0.659647812683665,2447.66016454977
-0.667166356807003,2447.67016454977
-0.674592923337415,2447.68016454977
-0.682435071123247,2447.69016454977
-0.689929914992335,2447.70016454977
-0.697736539466723,2447.71016454977
-0.705360194205441,2447.72016454977
-0.71280266124959,2447.73016454977
-0.718705621428874,2447.74016454977
-0.721681561662994,2447.75016454977
-0.717524625623447,2447.76016454977
-0.702764011110168,2447.77016454977
-0.676677541123253,2447.78016454977
-0.640699124911519,2447.79016454977
-0.598734874734059,2447.80016454977
-0.556039221031151,2447.81016454977
-0.516916816233011,2447.82016454977
-0.485337109397527,2447.83016454977
-0.462538750090258,2447.84016454977
-0.449156744519087,2447.85016454977
-0.443307532347239,2447.86016454977
-0.442814265133276,2447.87016454977
-0.445141825184541,2447.88016454977
-0.449141962716713,2447.89016454977
-0.453170987110611,2447.90016454977
-0.456361069327155,2447.91016454977
-0.458821808452177,2447.92016454977
-0.45992703717906,2447.93016454977
-0.459713302456952,2447.94016454977
-0.458396582227005,2447.95016454977
-0.456369793296674,2447.96016454977
-0.454416079114245,2447.97016454977
-0.452371512827603,2447.98016454977
-0.45114049516457,2447.99016454977
-0.451754023877649,2448.00016454977
-0.454895554949546,2448.01016454977
-0.460987584548789,2448.02016454977
-0.468827004254854,2448.03016454977
-0.47721814016075,2448.04016454977
-0.48451125566329,2448.05016454977
-0.48970389690537,2448.06016454977
-0.492357273195108,2448.07016454977
-0.49299154008916,2448.08016454977
-0.492045619538603,2448.09016454977
-0.489632709715974,2448.10016454977
-0.486612541217934,2448.11016454977
-0.483445484932304,2448.12016454977
-0.480856607422435,2448.13016454977
-0.479453605693778,2448.14016454977
-0.479665479020042,2448.15016454977
-0.481908654206701,2448.16016454977
-0.48539349925261,2448.17016454977
-0.490646616043343,2448.18016454977
-0.496276730164309,2448.19016454977
-0.502080426501408,2448.20016454977
-0.507555676693725,2448.21016454977
-0.513224829881668,2448.22016454977
-0.518717132236407,2448.23016454977
-0.523964588642018,2448.24016454977
-0.529388051758322,2448.25016454977
-0.534665206929032,2448.26016454977
-0.540327337671188,2448.27016454977
-0.54590433281251,2448.28016454977
-0.551549731785814,2448.29016454977
-0.557040103260263,2448.30016454977
-0.562612026653536,2448.31016454977
-0.568601034769153,2448.32016454977
-0.575360959613695,2448.33016454977
-0.581633028790037,2448.34016454977
-0.587660642295598,2448.35016454977
-0.594068644076531,2448.36016454977
-0.600142733046118,2448.37016454977
-0.606671873522829,2448.38016454977
-0.613489683071594,2448.39016454977
-0.620118045621818,2448.40016454977
-0.626048548352554,2448.41016454977
-0.631402427862301,2448.42016454977
-0.636464894819414,2448.43016454977
-0.641283991593212,2448.44016454977
-0.646524085169039,2448.45016454977
-0.652712477428032,2448.46016454977
-0.65898572191514,2448.47016454977
-0.666042406287528,2448.48016454977
-0.67362037707275,2448.49016454977
-0.68078286351791,2448.50016454977
-0.687656978396129,2448.51016454977
-0.694208487834251,2448.52016454977
-0.700460673826979,2448.53016454977
-0.707174790141364,2448.54016454977
-0.712324601763561,2448.55016454977
-0.717786924614954,2448.56016454977
-0.72228275136409,2448.57016454977
-0.726889508211553,2448.58016454977
-0.732351252029186,2448.59016454977
-0.737695543947231,2448.60016454977
-0.742250854306207,2448.61016454977
-0.744678082813526,2448.62016454977
-0.741859573213236,2448.63016454977
-0.72993311991189,2448.64016454977
-0.707051501983109,2448.65016454977
-0.673404969016881,2448.66016454977
-0.631829312310713,2448.67016454977
-0.587221919186307,2448.68016454977
-0.543811024743996,2448.69016454977
-0.506431828591606,2448.70016454977
-0.477953035799345,2448.71016454977
-0.459263011278483,2448.72016454977
-0.449516597340634,2448.73016454977
-0.446676328975873,2448.74016454977
-0.448270796211331,2448.75016454977
-0.452011955695632,2448.76016454977
-0.456272453863786,2448.77016454977
-0.459889465560257,2448.78016454977
-0.461338188719764,2448.79016454977
-0.460470728887178,2448.80016454977
-0.457901770742427,2448.81016454977
-0.453650751846488,2448.82016454977
-0.4483131923521,2448.83016454977
-0.442775076617097,2448.84016454977
-0.437116813877228,2448.85016454977
-0.432111615695567,2448.86016454977
-0.428071377982264,2448.87016454977
-0.426014689379299,2448.88016454977
-0.426317697453567,2448.89016454977
-0.430065980466542,2448.90016454977
-0.435924832530887,2448.91016454977
-0.443193940646794,2448.92016454977
-0.450601562610257,2448.93016454977
-0.457129539469924,2448.94016454977
-0.461234881427924,2448.95016454977
-0.462840070573985,2448.96016454977
-0.461673655546496,2448.97016454977
-0.458159890094963,2448.98016454977
-0.453747630307215,2448.99016454977
-0.448852947125654,2449.00016454977
-0.444826266763447,2449.01016454977
-0.442370818883957,2449.02016454977
-0.440749331900239,2449.03016454977
-0.440295578659073,2449.04016454977
-0.441717997415941,2449.05016454977
-0.443777308224167,2449.06016454977
-0.446343920152233,2449.07016454977
-0.449465715121469,2449.08016454977
-0.452191106507864,2449.09016454977
-0.454942354961802,2449.10016454977
-0.457712629479456,2449.11016454977
-0.460679443493019,2449.12016454977
-0.463186448981314,2449.13016454977
-0.466770587197744,2449.14016454977
-0.470737586691723,2449.15016454977
-0.47485270537148,2449.16016454977
-0.479624200861395,2449.17016454977
-0.484198168666047,2449.18016454977
-0.488494956119368,2449.19016454977
-0.492397939685516,2449.20016454977
-0.496460920493003,2449.21016454977
-0.500195751312608,2449.22016454977
-0.503658895937692,2449.23016454977
-0.507200223837669,2449.24016454977
-0.511232654106569,2449.25016454977
-0.515643052120548,2449.26016454977
-0.520261519495726,2449.27016454977
-0.52504095559921,2449.28016454977
-0.529923193337812,2449.29016454977
-0.534379680421219,2449.30016454977
-0.538561544066833,2449.31016454977
-0.541756397139475,2449.32016454977
-0.544788402506429,2449.33016454977
-0.54742057679957,2449.34016454977
-0.55015331012715,2449.35016454977
-0.553321851515141,2449.36016454977
-0.556623952171478,2449.37016454977
-0.560440789332906,2449.38016454977
-0.564453209425602,2449.39016454977
-0.569005761985009,2449.40016454977
-0.573805814583164,2449.41016454977
-0.578600534601408,2449.42016454977
-0.583233340590052,2449.43016454977
-0.587384533972898,2449.44016454977
-0.589767664896451,2449.45016454977
-0.588520225021829,2449.46016454977
-0.580486033063249,2449.47016454977
-0.563564821935162,2449.48016454977
-0.535513406263523,2449.49016454977
-0.498279634959747,2449.50016454977
-0.455082964249375,2449.51016454977
-0.410932883560041,2449.52016454977
-0.369634492982159,2449.53016454977
-0.334880787273793,2449.54016454977
-0.3084418825128,2449.55016454977
-0.290390794813325,2449.56016454977
-0.279758925167475,2449.57016454977
-0.275300939536928,2449.58016454977
-0.274628053583204,2449.59016454977
-0.275486751415326,2449.60016454977
-0.276838071809433,2449.61016454977
-0.277197849607807,2449.62016454977
-0.276606127248491,2449.63016454977
-0.274489090767356,2449.64016454977
-0.271001354953683,2449.65016454977
-0.267154085708716,2449.66016454977
-0.262617838517902,2449.67016454977
-0.258441379604757,2449.68016454977
-0.254778021420311,2449.69016454977
-0.25267816882908,2449.70016454977
-0.253578678258,2449.71016454977
-0.257111908148066,2449.72016454977
-0.262937037026458,2449.73016454977
-0.270200756042224,2449.74016454977
-0.276775018883875,2449.75016454977
-0.282813200350432,2449.76016454977
-0.286643799253333,2449.77016454977
-0.288082828171865,2449.78016454977
-0.287347164896373,2449.79016454977
-0.284776030967404,2449.80016454977
-0.280825729352055,2449.81016454977
-0.276045550454463,2449.82016454977
-0.271136468715342,2449.83016454977
-0.266899007563867,2449.84016454977
-0.263598015392035,2449.85016454977
-0.2619683404255,2449.86016454977
-0.262144875488824,2449.87016454977
-0.263711802322073,2449.88016454977
-0.266346719000649,2449.89016454977
-0.269760371434098,2449.90016454977
-0.273527949307715,2449.91016454977
-0.276999631991205,2449.92016454977
-0.281162967366031,2449.93016454977
-0.285014343680813,2449.94016454977
-0.288644204611792,2449.95016454977
-0.292252983275868,2449.96016454977
-0.295770368962244,2449.97016454977
-0.299816301618404,2449.98016454977
-0.3041380423737,2449.99016454977
-0.30866812669974,2450.00016454977
-0.313470194253472,2450.01016454977
-0.318378790099088,2450.02016454977
-0.323598832161517,2450.03016454977
-0.328862457851903,2450.04016454977
-0.334629651470537,2450.05016454977
-0.339945599729517,2450.06016454977
-0.345132252939536,2450.07016454977
-0.350497643815262,2450.08016454977
-0.354730410834249,2450.09016454977
-0.359531318111755,2450.10016454977
-0.363736691254295,2450.11016454977
-0.368007909093317,2450.12016454977
-0.372740604977889,2450.13016454977
-0.377643983004554,2450.14016454977
-0.382829006997416,2450.15016454977
-0.388095051322245,2450.16016454977
-0.394131273638795,2450.17016454977
-0.400230485521962,2450.18016454977
-0.405987914453773,2450.19016454977
-0.411497266886954,2450.20016454977
-0.417087918486961,2450.21016454977
-0.422138010730066,2450.22016454977
-0.427195665040712,2450.23016454977
-0.432922872666979,2450.24016454977
-0.438689708212026,2450.25016454977
-0.444526739952749,2450.26016454977
-0.450363407064841,2450.27016454977
-0.455111776957741,2450.28016454977
-0.458115341572793,2450.29016454977
-0.456199714875883,2450.30016454977
-0.445046029168767,2450.31016454977
-0.42237108865719,2450.32016454977
-0.386387811009615,2450.33016454977
-0.341100251046912,2450.34016454977
-0.290695073795756,2450.35016454977
-0.239845730688636,2450.36016454977
-0.193155078864299,2450.37016454977
-0.154728588987741,2450.38016454977
-0.125282281972776,2450.39016454977
-0.104102512204234,2450.40016454977
-0.0903353019519342,2450.41016454977
-0.0815577425489968,2450.42016454977
-0.0757577858612095,2450.43016454977
-0.0712088955043946,2450.44016454977
-0.0669749531385427,2450.45016454977
-0.0615983897083484,2450.46016454977
-0.0545949588537135,2450.47016454977
-0.0459278891798974,2450.48016454977
-0.0364152817496265,2450.49016454977
-0.0264086810879281,2450.50016454977
-0.0161034117148378,2450.51016454977
-0.00606237554822019,2450.52016454977
0.00400376566978115,2450.53016454977
0.0131910321308951,2450.54016454977
0.0216869989686769,2450.55016454977
0.0276390832844383,2450.56016454977
0.0305118877855284,2450.57016454977
0.0302027057092521,2450.58016454977
0.0268012216390232,2450.59016454977
0.0213603232615308,2450.60016454977
0.0157962976288604,2450.61016454977
0.0120410861373146,2450.62016454977
0.0103073686440617,2450.63016454977
0.0116845949430856,2450.64016454977
0.0154695905988076,2450.65016454977
0.0215735311274619,2450.66016454977
0.0285640220687421,2450.67016454977
0.0357905560921594,2450.68016454977
0.0421460576053998,2450.69016454977
0.047709200215034,2450.70016454977
0.0519672130368573,2450.71016454977
0.0551075428192931,2450.72016454977
0.0566548973306632,2450.73016454977
0.0566547758814846,2450.74016454977
0.0549666493489141,2450.75016454977
0.0515072712287865,2450.76016454977
0.0478519277035782,2450.77016454977
0.0435046096821291,2450.78016454977
0.0391960764666157,2450.79016454977
0.0344785920938044,2450.80016454977
0.0299854538069425,2450.81016454977
0.0258826311223225,2450.82016454977
0.0213427735794669,2450.83016454977
0.016859702692223,2450.84016454977
0.0121182158794256,2450.85016454977
0.00684844805963372,2450.86016454977
0.000779785397850039,2450.87016454977
-0.00542385196001694,2450.88016454977
-0.0118557380219152,2450.89016454977
-0.0187353201824334,2450.90016454977
-0.0260896609540822,2450.91016454977
-0.0331180988677188,2450.92016454977
-0.0397996107923054,2450.93016454977
-0.046029284855086,2450.94016454977
-0.0515922321066297,2450.95016454977
-0.0562515378826918,2450.96016454977
-0.0607803473772512,2450.97016454977
-0.0659597293418009,2450.98016454977
-0.0708970840263537,2450.99016454977
-0.0771412913625139,2451.00016454977
-0.0838789061359797,2451.01016454977
-0.0905409837533609,2451.02016454977
-0.0975373206719665,2451.03016454977
-0.104874178431956,2451.04016454977
-0.112579313004512,2451.05016454977
-0.12019014781573,2451.06016454977
-0.127840755469861,2451.07016454977
-0.134933199623722,2451.08016454977
-0.141684257227645,2451.09016454977
-0.147951519585788,2451.10016454977
-0.154355131580176,2451.11016454977
-0.160736463441694,2451.12016454977
-0.167392322942882,2451.13016454977
-0.173586912884826,2451.14016454977
-0.177544462717511,2451.15016454977
-0.175281270320676,2451.16016454977
-0.161707472137462,2451.17016454977
-0.134840733544921,2451.18016454977
-0.0948727270172902,2451.19016454977
-0.0456669179173942,2451.20016454977
0.00760936248050937,2451.21016454977
0.0604687582534664,2451.22016454977
0.10799409912372,2451.23016454977
0.149056679432888,2451.24016454977
0.182486510451794,2451.25016454977
0.207770738456825,2451.26016454977
0.226262452684491,2451.27016454977
0.239681235694823,2451.28016454977
0.249841741212445,2451.29016454977
0.258918722995544,2451.30016454977
0.268199964188885,2451.31016454977
0.279061269116187,2451.32016454977
0.291526762289162,2451.33016454977
0.305619572170443,2451.34016454977
0.321074795581712,2451.35016454977
0.336763888644268,2451.36016454977
0.3520351009807,2451.37016454977
0.366454392370869,2451.38016454977
0.379269632733578,2451.39016454977
0.390649656613599,2451.40016454977
0.398839825517061,2451.41016454977
0.40271203191139,2451.42016454977
0.403220121904409,2451.43016454977
0.400684171579738,2451.44016454977
0.396266549269601,2451.45016454977
0.39134381519348,2451.46016454977
0.388139654806397,2451.47016454977
0.387125056903045,2451.48016454977
0.388437735967067,2451.49016454977
0.392075564847361,2451.50016454977
0.396996864199115,2451.51016454977
0.402336252133817,2451.52016454977
0.407536563178468,2451.53016454977
0.412542129630721,2451.54016454977
0.416711274712331,2451.55016454977
0.419751120090309,2451.56016454977
0.421481446806526,2451.57016454977
0.421559614297278,2451.58016454977
0.420176302062973,2451.59016454977
0.416632217450154,2451.60016454977
0.411627714676385,2451.61016454977
0.404850419526851,2451.62016454977
0.397715766447241,2451.63016454977
0.38962252805308,2451.64016454977
0.381320180991596,2451.65016454977
0.373203636337131,2451.66016454977
0.365602692389693,2451.67016454977
0.357745314132678,2451.68016454977
0.349655077619193,2451.69016454977
0.341590645534469,2451.70016454977
0.333174189239538,2451.71016454977
0.324099857715381,2451.72016454977
0.314407432156451,2451.73016454977
0.304781090236515,2451.74016454977
0.294994608019651,2451.75016454977
0.284587479146597,2451.76016454977
0.274239580665084,2451.77016454977
0.263511641258653,2451.78016454977
0.253050093924963,2451.79016454977
0.24275828092876,2451.80016454977
0.232839175743134,2451.81016454977
0.222955231779329,2451.82016454977
0.213141053208608,2451.83016454977
0.202959242475851,2451.84016454977
0.192251778124963,2451.85016454977
0.181504354252127,2451.86016454977
0.17069525508325,2451.87016454977
0.159599298223268,2451.88016454977
0.14781334756042,2451.89016454977
0.136649544261062,2451.90016454977
0.125034699057463,2451.91016454977
0.113110725852397,2451.92016454977
0.101529380132209,2451.93016454977
0.0894795408401307,2451.94016454977
0.0777591929952315,2451.95016454977
0.0669118937421998,2451.96016454977
0.0563870482189979,2451.97016454977
0.046386459370587,2451.98016454977
0.0365751704739646,2451.99016454977
0.027071261498953,2452.00016454977
0.018031306926812,2452.01016454977
0.0109694274340928,2452.02016454977
0.0093507288092103,2452.03016454977
0.0172743522290195,2452.04016454977
0.0387356015198242,2452.05016454977
0.074662116668268,2452.06016454977
0.122733573867358,2452.07016454977
0.178551765879362,2452.08016454977
0.235805889531703,2452.09016454977
0.289569955225292,2452.10016454977
0.337065847023506,2452.11016454977
0.376812501449125,2452.12016454977
0.40886983471874,2452.13016454977
0.433879897410843,2452.14016454977
0.453421340354128,2452.15016454977
0.469302867413668,2452.16016454977
0.483011655311574,2452.17016454977
0.496084023714577,2452.18016454977
0.509806339504193,2452.19016454977
0.52446328541153,2452.20016454977
0.539961812286106,2452.21016454977
0.556591909172494,2452.22016454977
0.574172149074229,2452.23016454977
0.592090139883179,2452.24016454977
0.609242375085525,2452.25016454977
0.625747575851967,2452.26016454977
0.640216807096338,2452.27016454977
0.651885603459023,2452.28016454977
0.659447458549773,2452.29016454977
0.662707106032265,2452.30016454977
0.66138658872144,2452.31016454977
0.65556456392237,2452.32016454977
0.646809615273602,2452.33016454977
0.637513043027614,2452.34016454977
0.629203357125437,2452.35016454977
0.622540100718282,2452.36016454977
0.618611398823895,2452.37016454977
0.616814502580621,2452.38016454977
0.616715070400711,2452.39016454977
0.617720094389285,2452.40016454977
0.618607833356513,2452.41016454977
0.618668030557001,2452.42016454977
0.617604879507551,2452.43016454977
0.61464797673972,2452.44016454977
0.60984658548994,2452.45016454977
0.60355223442182,2452.46016454977
0.595677032533951,2452.47016454977
0.58710299777671,2452.48016454977
0.576896138852729,2452.49016454977
0.565455044528172,2452.50016454977
0.553719243882806,2452.51016454977
0.541334999156021,2452.52016454977
0.528167006046059,2452.53016454977
0.515214497129296,2452.54016454977
0.502098366608752,2452.55016454977
0.489500663755572,2452.56016454977
0.476497643002246,2452.57016454977
0.46336836513105,2452.58016454977
0.449817112733903,2452.59016454977
0.435331292535843,2452.60016454977
0.420428675870645,2452.61016454977
0.405648636645933,2452.62016454977
0.390034309351823,2452.63016454977
0.37427515088806,2452.64016454977
0.358488305828565,2452.65016454977
0.342531652635423,2452.66016454977
0.326468642989347,2452.67016454977
0.310842050554937,2452.68016454977
0.295268177190017,2452.69016454977
0.279904000883895,2452.70016454977
0.26539450388509,2452.71016454977
0.250735463302564,2452.72016454977
0.236619034804802,2452.73016454977
0.223038535104476,2452.74016454977
0.209612444333386,2452.75016454977
0.195988574162362,2452.76016454977
0.182514473433583,2452.77016454977
0.168698004596483,2452.78016454977
0.15489768417992,2452.79016454977
0.141040473031514,2452.80016454977
0.127217005954577,2452.81016454977
0.113538109619066,2452.82016454977
0.100061243743579,2452.83016454977
0.0868325157192584,2452.84016454977
0.0740793383114982,2452.85016454977
0.0611118152461611,2452.86016454977
0.0488887223856062,2452.87016454977
0.0370472847584483,2452.88016454977
0.0270207832663066,2452.89016454977
0.0226231787459046,2452.90016454977
0.0277610079991556,2452.91016454977
0.0462325425931168,2452.92016454977
0.0797127897109585,2452.93016454977
0.125634965924498,2452.94016454977
0.179853414409366,2452.95016454977
0.236089853761524,2452.96016454977
0.289408538472811,2452.97016454977
0.336360935260983,2452.98016454977
0.375979469365534,2452.99016454977
0.40720101790817,2453.00016454977
0.430786713381766,2453.01016454977
0.448830290648334,2453.02016454977
0.462138418402836,2453.03016454977
0.47356662720007,2453.04016454977
0.484433856878398,2453.05016454977
0.49591204425702,2453.06016454977
0.507729065012692,2453.07016454977
0.520571375394311,2453.08016454977
0.533755260779577,2453.09016454977
0.546754609645462,2453.10016454977
0.55945117551987,2453.11016454977
0.571218368770378,2453.12016454977
0.582405400951104,2453.13016454977
0.592343332871245,2453.14016454977
0.600044886929651,2453.15016454977
0.6052699636046,2453.16016454977
0.605862981816763,2453.17016454977
0.602212131920645,2453.18016454977
0.594405102421873,2453.19016454977
0.583847214786173,2453.20016454977
0.572355735048331,2453.21016454977
0.561442328152477,2453.22016454977
0.552548050044479,2453.23016454977
0.546474264850325,2453.24016454977
0.543041908801295,2453.25016454977
0.541487612973305,2453.26016454977
0.541056778007376,2453.27016454977
0.540668338992933,2453.28016454977
0.539427666671559,2453.29016454977
0.537136592062667,2453.30016454977
0.53382831875207,2453.31016454977
0.528838729677625,2453.32016454977
0.522253078527661,2453.33016454977
0.51414489068631,2453.34016454977
0.50492788259221,2453.35016454977
0.494667630450811,2453.36016454977
0.483006130057138,2453.37016454977
0.470596144447859,2453.38016454977
0.457618070144254,2453.39016454977
0.444261417432139,2453.40016454977
0.430819314888587,2453.41016454977
0.417778594360002,2453.42016454977
0.405478531675872,2453.43016454977
0.39352949981775,2453.44016454977
0.38144861804647,2453.45016454977
0.369803299091995,2453.46016454977
0.35839175774348,2453.47016454977
0.346365601248825,2453.48016454977
0.334011188798304,2453.49016454977
0.321527700575133,2453.50016454977
0.308775894494175,2453.51016454977
0.296507512542946,2453.52016454977
0.284955249640224,2453.53016454977
0.27309132911183,2453.54016454977
0.261024891745503,2453.55016454977
0.248194782231441,2453.56016454977
0.234765244991533,2453.57016454977
0.220662348948958,2453.58016454977
0.206782513858805,2453.59016454977
0.193723402980052,2453.60016454977
0.180912582017181,2453.61016454977
0.168067816773369,2453.62016454977
0.155215053981421,2453.63016454977
0.142312403159302,2453.64016454977
0.130326829303743,2453.65016454977
0.117567643006044,2453.66016454977
0.105105542175981,2453.67016454977
0.0924920782845863,2453.68016454977
0.0799061045317684,2453.69016454977
0.0677823683601967,2453.70016454977
0.0551783516459523,2453.71016454977
0.0438058999064751,2453.72016454977
0.0358069572016208,2453.73016454977
0.0344105066155558,2453.74016454977
0.043924308112391,2453.75016454977
0.0674791493977011,2453.76016454977
0.105070397452899,2453.77016454977
0.154308543305086,2453.78016454977
0.210142632415318,2453.79016454977
0.267915126301632,2453.80016454977
0.323430736608496,2453.81016454977
0.37424270756262,2453.82016454977
0.419036804858852,2453.83016454977
0.457602064929775,2453.84016454977
0.489332352247348,2453.85016454977
0.515372244706404,2453.86016454977
0.537376884605749,2453.87016454977
0.555751565023697,2453.88016454977
0.572594383199436,2453.89016454977
0.588929016692462,2453.90016454977
0.604360340724516,2453.91016454977
0.619321372242028,2453.92016454977
0.63304915777571,2453.93016454977
0.645523246071073,2453.94016454977
0.656093630121987,2453.95016454977
0.665154013636047,2453.96016454977
0.671950940523551,2453.97016454977
0.675967672055877,2453.98016454977
0.676088537581699,2453.99016454977
0.671645041877463,2454.00016454977
0.663047045903016,2454.01016454977
0.651268650806924,2454.02016454977
0.63840377829633,2454.03016454977
0.625767655307993,2454.04016454977
0.615436808759093,2454.05016454977
0.607792631816694,2454.06016454977
0.603064424885334,2454.07016454977
0.600090454848411,2454.08016454977
0.598709102902795,2454.09016454977
0.598327060407658,2454.10016454977
0.597464409351228,2454.11016454977
0.596246321306676,2454.12016454977
0.592655481021499,2454.13016454977
0.587083207175691,2454.14016454977
0.579754284484948,2454.15016454977
0.571311854644182,2454.16016454977
0.561425903407645,2454.17016454977
0.550012566303516,2454.18016454977
0.537608038891191,2454.19016454977
0.524230802724762,2454.20016454977
0.510186070433982,2454.21016454977
0.49612867590766,2454.22016454977
0.481540833285412,2454.23016454977
0.466977148646148,2454.24016454977
0.452119559558839,2454.25016454977
0.437339540390015,2454.26016454977
0.422825446909817,2454.27016454977
0.40785292612265,2454.28016454977
0.392098579568253,2454.29016454977
0.375855094366322,2454.30016454977
0.359901273014392,2454.31016454977
0.343429921008584,2454.32016454977
0.327884812549907,2454.33016454977
0.312313941568662,2454.34016454977
0.297102979017846,2454.35016454977
0.282449658645791,2454.36016454977
0.2673331428574,2454.37016454977
0.252668680723451,2454.38016454977
0.237387894791795,2454.39016454977
0.222184042775924,2454.40016454977
0.206845038112846,2454.41016454977
0.191188929512656,2454.42016454977
0.175870829673176,2454.43016454977
0.160610315327321,2454.44016454977
0.146176730485623,2454.45016454977
0.131946796865296,2454.46016454977
0.118089069181237,2454.47016454977
0.103744985269671,2454.48016454977
0.0893915270781807,2454.49016454977
0.0749621194002143,2454.50016454977
0.0609780366048861,2454.51016454977
0.0475578444955987,2454.52016454977
0.0358221389105884,2454.53016454977
0.0294946712881184,2454.54016454977
0.0318436115097761,2454.55016454977
0.0475412561822445,2454.56016454977
0.0788227636881844,2454.57016454977
0.12413033334267,2454.58016454977
0.179344524416943,2454.59016454977
0.240140197502172,2454.60016454977
0.301359761371216,2454.61016454977
0.359388501826232,2454.62016454977
0.41203108915962,2454.63016454977
0.458174454280361,2454.64016454977
0.49764773318285,2454.65016454977
0.530510430825684,2454.66016454977
0.557947762802973,2454.67016454977
0.581354223410904,2454.68016454977
0.60239437410723,2454.69016454977
0.622483841891856,2454.70016454977
0.642663257735349,2454.71016454977
0.662526872676588,2454.72016454977
0.681855769314909,2454.73016454977
0.700308828462557,2454.74016454977
0.717376234520071,2454.75016454977
0.732737645382096,2454.76016454977
0.746824973181291,2454.77016454977
0.759076268525452,2454.78016454977
0.768844355492227,2454.79016454977
0.775102262860103,2454.80016454977
0.776768772431489,2454.81016454977
0.772980155813412,2454.82016454977
0.763984856158061,2454.83016454977
0.751868031410932,2454.84016454977
0.738010359743437,2454.85016454977
0.72423548465993,2454.86016454977
0.712292952206562,2454.87016454977
0.702986421188807,2454.88016454977
0.696457528496733,2454.89016454977
0.692742982609313,2454.90016454977
0.690386928619227,2454.91016454977
0.688913881234704,2454.92016454977
0.687470095767943,2454.93016454977
0.685667147356119,2454.94016454977
0.682978740298953,2454.95016454977
0.678886273899673,2454.96016454977
0.673258867319996,2454.97016454977
0.665418350743479,2454.98016454977
0.655239672642656,2454.99016454977
0.643607595900843,2455.00016454977
0.630287735948904,2455.01016454977
0.616381239831128,2455.02016454977
0.601881737462782,2455.03016454977
0.587141742177806,2455.04016454977
0.571978407902278,2455.05016454977
0.556257415373749,2455.06016454977
0.540076978774609,2455.07016454977
0.523655547928388,2455.08016454977
0.506809731677222,2455.09016454977
0.490175069078869,2455.10016454977
0.473295953032353,2455.11016454977
0.45557047640934,2455.12016454977
0.437821463465164,2455.13016454977
0.41950778056255,2455.14016454977
0.401588505624907,2455.15016454977
0.383779750466251,2455.16016454977
0.366589906129763,2455.17016454977
0.350209547058313,2455.18016454977
0.334320139078951,2455.19016454977
0.318625737580428,2455.20016454977
0.30286306825298,2455.21016454977
0.287016977383576,2455.22016454977
0.271408856335894,2455.23016454977
0.25550613487066,2455.24016454977
0.239259300961582,2455.25016454977
0.223021837829765,2455.26016454977
0.205880221799672,2455.27016454977
0.189137511176802,2455.28016454977
0.172024329312313,2455.29016454977
0.155364985879547,2455.30016454977
0.139492374490288,2455.31016454977
0.123367389176075,2455.32016454977
0.108494029351976,2455.33016454977
0.0932663012288103,2455.34016454977
0.0784709716163083,2455.35016454977
0.0635700811554889,2455.36016454977
0.0489053727573639,2455.37016454977
0.0369794090095095,2455.38016454977
0.0296792111722418,2455.39016454977
0.0320021174975616,2455.40016454977
0.0493635225597021,2455.41016454977
0.0831331895941622,2455.42016454977
0.132305732364198,2455.43016454977
0.192666251971018,2455.44016454977
0.259036610424566,2455.45016454977
0.326337714727246,2455.46016454977
0.391168945911062,2455.47016454977
0.450742464606338,2455.48016454977
0.503573349509073,2455.49016454977
0.548950024347233,2455.50016454977
0.587541818125658,2455.51016454977
0.62082625488965,2455.52016454977
0.649955221405935,2455.53016454977
0.676321252106701,2455.54016454977
0.700965908003542,2455.55016454977
0.724221658975414,2455.56016454977
0.747289032517096,2455.57016454977
0.76973128581463,2455.58016454977
0.791362260999337,2455.59016454977
0.811685892051373,2455.60016454977
0.831555768155508,2455.61016454977
0.849964772565249,2455.62016454977
0.866488540297725,2455.63016454977
0.881467154507933,2455.64016454977
0.8920496252427,2455.65016454977
0.897959206289495,2455.66016454977
0.897548253670796,2455.67016454977
0.89092506207428,2455.68016454977
0.878901688996308,2455.69016454977
0.863408465206071,2455.70016454977
0.847249503054252,2455.71016454977
0.832216583360456,2455.72016454977
0.819902406170547,2455.73016454977
0.810658254490978,2455.74016454977
0.803915222524019,2455.75016454977
0.799316359315321,2455.76016454977
0.795992823278334,2455.77016454977
0.793351057427473,2455.78016454977
0.790826251685234,2455.79016454977
0.787355371700062,2455.80016454977
0.78231996553105,2455.81016454977
0.775960901378195,2455.82016454977
0.767522293581181,2455.83016454977
0.757152170883406,2455.84016454977
0.744831431821684,2455.85016454977
0.730426723948419,2455.86016454977
0.714600063830841,2455.87016454977
0.69779169798594,2455.88016454977
0.680626699374323,2455.89016454977
0.663996738600284,2455.90016454977
0.646938521617345,2455.91016454977
0.630561056803259,2455.92016454977
0.61387952575752,2455.93016454977
0.596836498797952,2455.94016454977
0.579665185506812,2455.95016454977
0.561745332501401,2455.96016454977
0.5437164837659,2455.97016454977
0.525184568289262,2455.98016454977
0.506517935907935,2455.99016454977
0.487664531494631,2456.00016454977
0.468486507613691,2456.01016454977
0.449200653078001,2456.02016454977
0.429697485812785,2456.03016454977
0.410016506605472,2456.04016454977
0.390756836426697,2456.05016454977
0.370482648233872,2456.06016454977
0.35115472814272,2456.07016454977
0.331529936143499,2456.08016454977
0.312349942189342,2456.09016454977
0.293856393387262,2456.10016454977
0.274642827102742,2456.11016454977
0.255297360406259,2456.12016454977
0.23522657028495,2456.13016454977
0.214338455311311,2456.14016454977
0.193314884636272,2456.15016454977
0.172932377935693,2456.16016454977
0.153135648173723,2456.17016454977
0.134239421809134,2456.18016454977
0.116360147602667,2456.19016454977
0.099244916161242,2456.20016454977
0.0830802632391485,2456.21016454977
0.067045286618372,2456.22016454977
0.0514803550950656,2456.23016454977
0.0364132022704576,2456.24016454977
0.0219563010255465,2456.25016454977
0.00888035169742525,2456.26016454977
-0.000221714305783306,2456.27016454977
0.000212946347684428,2456.28016454977
0.0157017975122627,2456.29016454977
0.0501182881364291,2456.30016454977
0.101989576137472,2456.31016454977
0.168165104365652,2456.32016454977
0.243132292514474,2456.33016454977
0.320986384647587,2456.34016454977
0.398073032254559,2456.35016454977
0.469917073011872,2456.36016454977
0.535092247901001,2456.37016454977
0.59118226881321,2456.38016454977
0.638180961140098,2456.39016454977
0.677215156532777,2456.40016454977
0.709281452417688,2456.41016454977
0.736845208990388,2456.42016454977
0.761561093547986,2456.43016454977
0.7845402454696,2456.44016454977
0.80729815586777,2456.45016454977
0.829965399983294,2456.46016454977
0.851815734281378,2456.47016454977
0.873432758678441,2456.48016454977
0.893645260924308,2456.49016454977
0.913139630659672,2456.50016454977
0.930785784359707,2456.51016454977
0.946130196907607,2456.52016454977
0.957907982125496,2456.53016454977
0.963937665552581,2456.54016454977
0.964042774894451,2456.55016454977
0.957424019353492,2456.56016454977
0.944474068631432,2456.57016454977
0.927568301499975,2456.58016454977
0.90853486828929,2456.59016454977
0.88950504864772,2456.60016454977
0.872442819225153,2456.61016454977
0.858475452718468,2456.62016454977
0.847454431376417,2456.63016454977
0.839393844470503,2456.64016454977
0.833232176762324,2456.65016454977
0.828254287918558,2456.66016454977
0.823071986670289,2456.67016454977
0.817454774382702,2456.68016454977
0.810929760289449,2456.69016454977
0.802532702365746,2456.70016454977
0.792567264125641,2456.71016454977
0.781624744423635,2456.72016454977
0.768910590284589,2456.73016454977
0.75493308307716,2456.74016454977
0.739098740937596,2456.75016454977
0.721817461141093,2456.76016454977
0.702905287378367,2456.77016454977
0.683709607267298,2456.78016454977
0.664081034745834,2456.79016454977
0.643758860223565,2456.80016454977
0.623451865338912,2456.81016454977
0.602614553920483,2456.82016454977
0.581624178470789,2456.83016454977
0.560043142206768,2456.84016454977
0.53858453668962,2456.85016454977
0.516628387804239,2456.86016454977
0.495009654334616,2456.87016454977
0.473150301718627,2456.88016454977
0.45122107298249,2456.89016454977
0.429825986750639,2456.90016454977
0.408125245698805,2456.91016454977
0.386360497620556,2456.92016454977
0.364970133248938,2456.93016454977
0.344210883332899,2456.94016454977
0.324014476820661,2456.95016454977
0.303953965832571,2456.96016454977
0.284929893937516,2456.97016454977
0.266333825915582,2456.98016454977
0.247951464914256,2456.99016454977
0.22926613976027,2457.00016454977
0.21074909860384,2457.01016454977
0.191701159558293,2457.02016454977
0.172325057541042,2457.03016454977
0.153083753232238,2457.04016454977
0.134066343756857,2457.05016454977
0.115797459475649,2457.06016454977
0.0981712616100628,2457.07016454977
0.0803802962605457,2457.08016454977
0.0627780961214389,2457.09016454977
0.0452116090770962,2457.10016454977
0.0277323359612497,2457.11016454977
0.0106984476423158,2457.12016454977
-0.00604479369375747,2457.13016454977
-0.0226801551054163,2457.14016454977
-0.0395097248076303,2457.15016454977
-0.0558913869099268,2457.16016454977
-0.0726839246137714,2457.17016454977
-0.0889367719507884,2457.18016454977
-0.103842257954372,2457.19016454977
-0.113974131099772,2457.20016454977
-0.114416024954225,2457.21016454977
-0.0989310123951985,2457.22016454977
-0.0636814788455763,2457.23016454977
-0.00909098903013166,2457.24016454977
0.0610994995284456,2457.25016454977
0.141081213476836,2457.26016454977
0.224708736167541,2457.27016454977
0.307766949253631,2457.28016454977
0.386115911142739,2457.29016454977
0.456304706043025,2457.30016454977
0.517650067074259,2457.31016454977
0.568968799837403,2457.32016454977
0.611131920767489,2457.33016454977
0.645128696401991,2457.34016454977
0.672486641418909,2457.35016454977
0.695102436069654,2457.36016454977
0.713787486630997,2457.37016454977
0.730880800147885,2457.38016454977
0.746670059465301,2457.39016454977
0.761906666223471,2457.40016454977
0.777182468367336,2457.41016454977
0.79215022904918,2457.42016454977
0.806129866319105,2457.43016454977
0.818662302139415,2457.44016454977
0.82838478031614,2457.45016454977
0.834249730968787,2457.46016454977
0.83488195901969,2457.47016454977
0.829144949240798,2457.48016454977
0.817312226003951,2457.49016454977
0.800784590600552,2457.50016454977
0.782199818137876,2457.51016454977
0.763157640497945,2457.52016454977
0.746193000321447,2457.53016454977
0.731749235449274,2457.54016454977
0.719981933098264,2457.55016454977
0.710603752432013,2457.56016454977
0.702467686461116,2457.57016454977
0.694351274422763,2457.58016454977
0.687037793211855,2457.59016454977
0.679587418687179,2457.60016454977
0.671125369047242,2457.61016454977
0.661793655711432,2457.62016454977
0.651146726968264,2457.63016454977
0.639308453475731,2457.64016454977
0.626845184269105,2457.65016454977
0.612861589737155,2457.66016454977
0.597810530896598,2457.67016454977
0.581150877493403,2457.68016454977
0.563066180374603,2457.69016454977
0.544254326034545,2457.70016454977
0.524501042144077,2457.71016454977
0.504329458668047,2457.72016454977
0.483666312580386,2457.73016454977
0.462911010297402,2457.74016454977
0.44259695016116,2457.75016454977
0.421679593152634,2457.76016454977
0.401201908877034,2457.77016454977
0.380212219503448,2457.78016454977
0.359319581029826,2457.79016454977
0.338132003751518,2457.80016454977
0.317102038052802,2457.81016454977
0.29559981165945,2457.82016454977
0.274611181988371,2457.83016454977
0.253267917390068,2457.84016454977
0.231885573920462,2457.85016454977
0.210254036853975,2457.86016454977
0.188668853485178,2457.87016454977
0.167532943670765,2457.88016454977
0.146708828198945,2457.89016454977
0.126045004606563,2457.90016454977
0.105868670769404,2457.91016454977
0.0862491943211277,2457.92016454977
0.0669791466221085,2457.93016454977
0.0481637034353661,2457.94016454977
0.0298825029343489,2457.95016454977
0.0119967466975683,2457.96016454977
-0.00577477670627671,2457.97016454977
-0.0235048479717419,2457.98016454977
-0.0413653709203567,2457.99016454977
-0.0590621023807292,2458.00016454977
-0.0774264444325385,2458.01016454977
-0.0954336347683905,2458.02016454977
-0.113498169861949,2458.03016454977
-0.131604241549683,2458.04016454977
-0.148784202373078,2458.05016454977
-0.16589906177391,2458.06016454977
-0.182758456655766,2458.07016454977
-0.199847706970267,2458.08016454977
-0.21693305929239,2458.09016454977
-0.234132708231328,2458.10016454977
-0.250802223679259,2458.11016454977
-0.26764309061263,2458.12016454977
-0.284436768722927,2458.13016454977
-0.3008653605366,2458.14016454977
-0.317111063194831,2458.15016454977
-0.330950842656113,2458.16016454977
-0.339295615749959,2458.17016454977
-0.335370083698072,2458.18016454977
-0.312753097417842,2458.19016454977
-0.268450706123466,2458.20016454977
-0.203565359537847,2458.21016454977
-0.124645891616785,2458.22016454977
-0.0385841096140089,2458.23016454977
0.0480793626139279,2458.24016454977
0.130098460165862,2458.25016454977
0.205926558512658,2458.26016454977
0.273897386630438,2458.27016454977
0.332555230187444,2458.28016454977
0.382037772790779,2458.29016454977
0.421370781441869,2458.30016454977
0.452460140593902,2458.31016454977
0.476750053334799,2458.32016454977
0.494991669655905,2458.33016454977
0.509689151686539,2458.34016454977
0.521504821094256,2458.35016454977
0.532402785165822,2458.36016454977
0.543033955672253,2458.37016454977
0.553080474966143,2458.38016454977
0.562796817604035,2458.39016454977
0.57205912867104,2458.40016454977
0.579602378578638,2458.41016454977
0.584202693061761,2458.42016454977
0.584604058921627,2458.43016454977
0.579366650950883,2458.44016454977
0.568712606661045,2458.45016454977
0.553822103788127,2458.46016454977
0.535964210069725,2458.47016454977
0.517657588988719,2458.48016454977
0.501506654785084,2458.49016454977
0.488432463092936,2458.50016454977
0.479494559540432,2458.51016454977
0.473824628240775,2458.52016454977
0.470950609027567,2458.53016454977
0.470042106613684,2458.54016454977
0.46998690954283,2458.55016454977
0.469895364970483,2458.56016454977
0.469075601241912,2458.57016454977
0.46691859201237,2458.58016454977
0.463394696204498,2458.59016454977
0.457702001798423,2458.60016454977
0.450111304758937,2458.61016454977
0.440010236696032,2458.62016454977
0.427537860767605,2458.63016454977
0.412463671473246,2458.64016454977
0.395882779262521,2458.65016454977
0.378173532346741,2458.66016454977
0.359902349696778,2458.67016454977
0.341230927885243,2458.68016454977
0.322712842067071,2458.69016454977
0.303971307120785,2458.70016454977
0.28556588603398,2458.71016454977
0.267062770786387,2458.72016454977
0.248316488782335,2458.73016454977
0.229076946482968,2458.74016454977
0.209494272530891,2458.75016454977
0.189926729010525,2458.76016454977
0.171091689843649,2458.77016454977
0.152261053607727,2458.78016454977
0.1347327907442,2458.79016454977
0.117740095410327,2458.80016454977
0.101418421486028,2458.81016454977
0.0856534162825699,2458.82016454977
0.0701240420071039,2458.83016454977
0.0549831518039305,2458.84016454977
0.0402948684787318,2458.85016454977
0.0255336613377817,2458.86016454977
0.0106315524185252,2458.87016454977
-0.00442142028220732,2458.88016454977
-0.0202848473670975,2458.89016454977
-0.0368897722446783,2458.90016454977
-0.0536547883682541,2458.91016454977
-0.0706325795960353,2458.92016454977
-0.0878843965895808,2458.93016454977
-0.1054261537854,2458.94016454977
-0.123282289957922,2458.95016454977
-0.141169832595205,2458.96016454977
-0.158849310154111,2458.97016454977
-0.176851283899035,2458.98016454977
-0.194896879197532,2458.99016454977
-0.212312568503962,2459.00016454977
-0.229981999865096,2459.01016454977
-0.245707987362624,2459.02016454977
-0.256035066722503,2459.03016454977
-0.255009246125538,2459.04016454977
-0.235705736315694,2459.05016454977
-0.194521472509038,2459.06016454977
-0.131539833528372,2459.07016454977
-0.0517810907254244,2459.08016454977
0.0384825314395099,2459.09016454977
0.132331459207331,2459.10016454977
0.22523396547373,2459.11016454977
0.312579318658371,2459.12016454977
0.390538076795525,2459.13016454977
0.458739517237657,2459.14016454977
0.515285066712304,2459.15016454977
0.560991486535216,2459.16016454977
0.59677099922666,2459.17016454977
0.624461341364262,2459.18016454977
0.646178387373135,2459.19016454977
0.663963476220304,2459.20016454977
0.679244125731283,2459.21016454977
0.69269521298889,2459.22016454977
0.705735529248881,2459.23016454977
0.718087529482627,2459.24016454977
0.729344340558819,2459.25016454977
0.739858987859923,2459.26016454977
0.748823266714085,2459.27016454977
0.75496843935532,2459.28016454977
0.757123420726785,2459.29016454977
0.75388938368293,2459.30016454977
0.744112130969781,2459.31016454977
0.728569459114707,2459.32016454977
0.708281626354787,2459.33016454977
0.686819338821309,2459.34016454977
0.665167518051684,2459.35016454977
0.646409493972357,2459.36016454977
0.631985189853401,2459.37016454977
0.620561323595951,2459.38016454977
0.613543998648825,2459.39016454977
0.609457319937616,2459.40016454977
0.606732756084691,2459.41016454977
0.604833790000477,2459.42016454977
0.602586768976615,2459.43016454977
0.598676964306142,2459.44016454977
0.593021917604907,2459.45016454977
0.58517816207799,2459.46016454977
0.574466263357701,2459.47016454977
0.561745383609532,2459.48016454977
0.547051478303373,2459.49016454977
0.53043412288665,2459.50016454977
0.513360950687613,2459.51016454977
0.49533707109069,2459.52016454977
0.476877577195324,2459.53016454977
0.458114009601267,2459.54016454977
0.438843976906553,2459.55016454977
0.419082088027448,2459.56016454977
0.39868292648877,2459.57016454977
0.377344040715233,2459.58016454977
0.355487820352277,2459.59016454977
0.333265230027764,2459.60016454977
0.310736879526457,2459.61016454977
0.288688829713821,2459.62016454977
0.26673337467214,2459.63016454977
0.244975795651737,2459.64016454977
0.223178209277165,2459.65016454977
0.201983206793522,2459.66016454977
0.180685532950355,2459.67016454977
0.160847939041943,2459.68016454977
0.141547255286952,2459.69016454977
0.122375904720956,2459.70016454977
0.103568078759048,2459.71016454977
0.0843138496803858,2459.72016454977
0.0643469611725149,2459.73016454977
0.0439125655557731,2459.74016454977
0.0231760099505515,2459.75016454977
0.00237150908255985,2459.76016454977
-0.0180166741492247,2459.77016454977
-0.0384397693151715,2459.78016454977
-0.0584625468275524,2459.79016454977
-0.0773567101359098,2459.80016454977
-0.0955631255456607,2459.81016454977
-0.113195326447873,2459.82016454977
-0.130988227111834,2459.83016454977
-0.148216255277499,2459.84016454977
-0.165537458162263,2459.85016454977
-0.180767560765364,2459.86016454977
-0.189919889144569,2459.87016454977
-0.186697949932313,2459.88016454977
-0.164135396845387,2459.89016454977
-0.118526186301324,2459.90016454977
-0.0505698937922018,2459.91016454977
0.0345101516591261,2459.92016454977
0.129715184776349,2459.93016454977
0.229413701512057,2459.94016454977
0.327801388515344,2459.95016454977
0.419704381639651,2459.96016454977
0.502391252258584,2459.97016454977
0.574002329744907,2459.98016454977
0.632814804167395,2459.99016454977
0.679992214190991,2460.00016454977
0.71640877259265,2460.01016454977
0.744185932571575,2460.02016454977
0.766016925087262,2460.03016454977
0.78346283704719,2460.04016454977
0.799098887036036,2460.05016454977
0.814420977418994,2460.06016454977
0.829574617361655,2460.07016454977
0.845371969194482,2460.08016454977
0.86116272372594,2460.09016454977
0.876547371960799,2460.10016454977
0.890224661752733,2460.11016454977
0.900299900653473,2460.12016454977
0.905641081301663,2460.13016454977
0.903883425046989,2460.14016454977
0.894499526238805,2460.15016454977
0.878284765194291,2460.16016454977
0.857202695652988,2460.17016454977
0.834162835520066,2460.18016454977
0.811650961659347,2460.19016454977
0.791390905495044,2460.20016454977
0.774034157650223,2460.21016454977
0.761002457141637,2460.22016454977
0.751259250775459,2460.23016454977
0.74385346531403,2460.24016454977
0.739020179402006,2460.25016454977
0.735290537847723,2460.26016454977
0.731804334445177,2460.27016454977
0.727906483227352,2460.28016454977
0.722395524653717,2460.29016454977
0.71510965452057,2460.30016454977
0.705051370100204,2460.31016454977
0.692369875175554,2460.32016454977
0.677840515294141,2460.33016454977
0.660987681197691,2460.34016454977
0.641935813631469,2460.35016454977
0.62178654710324,2460.36016454977
0.601569229917622,2460.37016454977
0.581172476790423,2460.38016454977
0.560475810028888,2460.39016454977
0.539368055738261,2460.40016454977
0.517341500624463,2460.41016454977
0.494701029776639,2460.42016454977
0.471628645425776,2460.43016454977
0.448305575009,2460.44016454977
0.424968642734469,2460.45016454977
0.401277045608859,2460.46016454977
0.377423784510109,2460.47016454977
0.354545559567306,2460.48016454977
0.331810605739069,2460.49016454977
0.309497561427351,2460.50016454977
0.28769155032673,2460.51016454977
0.265343415545894,2460.52016454977
0.243162953446904,2460.53016454977
0.220548716928837,2460.54016454977
0.198686818363842,2460.55016454977
0.178086953224651,2460.56016454977
0.157378272766629,2460.57016454977
0.136954217878577,2460.58016454977
0.116645945676727,2460.59016454977
0.0959501280269016,2460.60016454977
0.0747728644391032,2460.61016454977
0.0535956034625038,2460.62016454977
0.0316982170968633,2460.63016454977
0.0102196417035799,2460.64016454977
-0.0110868401750458,2460.65016454977
-0.03198163935035,2460.66016454977
-0.0519309335943627,2460.67016454977
-0.0711806229417025,2460.68016454977
-0.0906563432822143,2460.69016454977
-0.109757722394418,2460.70016454977
-0.128293102213542,2460.71016454977
-0.145092844075274,2460.72016454977
-0.156986629357163,2460.73016454977
-0.158764086236082,2460.74016454977
-0.143559407564299,2460.75016454977
-0.1055243457798,2460.76016454977
-0.0441880733516591,2460.77016454977
0.0375066936333103,2460.78016454977
0.133409639428933,2460.79016454977
0.237301893858201,2460.80016454977
0.342699944775227,2460.81016454977
0.444308839632518,2460.82016454977
0.537867716177299,2460.83016454977
0.620497933410556,2460.84016454977
0.689534587688722,2460.85016454977
0.74545483122407,2460.86016454977
0.788852074558028,2460.87016454977
0.822563967901182,2460.88016454977
0.848014784724821,2460.89016454977
0.869283471920403,2460.90016454977
0.888130772181569,2460.91016454977
0.906916712287088,2460.92016454977
0.926009494991649,2460.93016454977
0.945345715641115,2460.94016454977
0.964322679027719,2460.95016454977
0.98232333034762,2460.96016454977
0.998912359956339,2460.97016454977
1.01316524799897,2460.98016454977
1.02456703473972,2460.99016454977
1.03040078772492,2461.00016454977
1.02958016128891,2461.01016454977
1.02014320586146,2461.02016454977
1.00281785733948,2461.03016454977
0.979202576241474,2461.04016454977
0.952641212921275,2461.05016454977
0.926150578457799,2461.06016454977
0.902197211796885,2461.07016454977
0.882101484555099,2461.08016454977
0.866175322476914,2461.09016454977
0.854280299596334,2461.10016454977
0.845337893799561,2461.11016454977
0.838661871316678,2461.12016454977
0.833057908737326,2461.13016454977
0.827352211218588,2461.14016454977
0.820567050713923,2461.15016454977
0.811760093463965,2461.16016454977
0.801329220115575,2461.17016454977
0.787953700995218,2461.18016454977
0.772983966556486,2461.19016454977
0.756082248750954,2461.20016454977
0.737222277522804,2461.21016454977
0.716454158854705,2461.22016454977
0.694765241571991,2461.23016454977
0.672502893326125,2461.24016454977
0.649461025280578,2461.25016454977
0.625937687874022,2461.26016454977
0.601595075602696,2461.27016454977
0.576163433410484,2461.28016454977
0.550465471101096,2461.29016454977
0.523825734314478,2461.30016454977
0.496835015657127,2461.31016454977
0.470161096166894,2461.32016454977
0.443363689771324,2461.33016454977
0.416813273917811,2461.34016454977
0.391042318554554,2461.35016454977
0.365641233880582,2461.36016454977
0.340541913601635,2461.37016454977
0.315977182258635,2461.38016454977
0.291659603847068,2461.39016454977
0.267976707116391,2461.40016454977
0.244016007070169,2461.41016454977
0.220026074296887,2461.42016454977
0.195926145174132,2461.43016454977
0.17162900169772,2461.44016454977
0.146763804532091,2461.45016454977
0.122389174216276,2461.46016454977
0.0983687744000889,2461.47016454977
0.0747877999776664,2461.48016454977
0.0520260115369369,2461.49016454977
0.0300086587159373,2461.50016454977
0.00856052266119304,2461.51016454977
-0.012951837133323,2461.52016454977
-0.0346545644415231,2461.53016454977
-0.0563220919026491,2461.54016454977
-0.0774573689926188,2461.55016454977
-0.0972329724323521,2461.56016454977
-0.112443856491164,2461.57016454977
-0.116996425045162,2461.58016454977
-0.105196532119618,2461.59016454977
-0.0724497271477429,2461.60016454977
-0.0186940432160294,2461.61016454977
0.0517754989751151,2461.62016454977
0.133418217371745,2461.63016454977
0.220193440679825,2461.64016454977
0.306821364987409,2461.65016454977
0.388065157304642,2461.66016454977
0.460963984574393,2461.67016454977
0.522825739201229,2461.68016454977
0.572285630990239,2461.69016454977
0.610544856796603,2461.70016454977
0.638274852103192,2461.71016454977
0.657769906101661,2461.72016454977
0.67190009358011,2461.73016454977
0.682607995268624,2461.74016454977
0.691706538581779,2461.75016454977
0.701049443847923,2461.76016454977
0.710403654531145,2461.77016454977
0.719909976827006,2461.78016454977
0.729799182333013,2461.79016454977
0.738239339977361,2461.80016454977
0.744665703170942,2461.81016454977
0.74666869293801,2461.82016454977
0.742532278010529,2461.83016454977
0.73122618031082,2461.84016454977
0.7130570983044,2461.85016454977
0.68948152015321,2461.86016454977
0.663679242685902,2461.87016454977
0.638695585208596,2461.88016454977
0.616064237917145,2461.89016454977
0.597166770107398,2461.90016454977
0.581982206294516,2461.91016454977
0.569554926066988,2461.92016454977
0.559151761636112,2461.93016454977
0.550596663711265,2461.94016454977
0.54213833333953,2461.95016454977
0.534054972741772,2461.96016454977
0.525690485212779,2461.97016454977
0.516148641554288,2461.98016454977
0.50499339577191,2461.99016454977
0.492119093837357,2462.00016454977
0.47628614187526,2462.01016454977
0.458522654725654,2462.02016454977
0.439236147475074,2462.03016454977
0.418801679790383,2462.04016454977
0.397730759574813,2462.05016454977
0.376156977710468,2462.06016454977
0.354852805097562,2462.07016454977
0.333042480937227,2462.08016454977
0.311225323346734,2462.09016454977
0.287728412594443,2462.10016454977
0.263891543441379,2462.11016454977
0.239716743596245,2462.12016454977
0.215886709970486,2462.13016454977
0.192833301493692,2462.14016454977
0.170201534877132,2462.15016454977
0.14768462912388,2462.16016454977
0.125598859797885,2462.17016454977
0.104115132577602,2462.18016454977
0.0828248164657961,2462.19016454977
0.0619185565277817,2462.20016454977
0.0407753278907129,2462.21016454977
0.0189511802353086,2462.22016454977
-0.00261363596571311,2462.23016454977
-0.0244529371379245,2462.24016454977
-0.0465524387756249,2462.25016454977
-0.0686806997015529,2462.26016454977
-0.0914250953191123,2462.27016454977
-0.113899783690462,2462.28016454977
-0.136276572818418,2462.29016454977
-0.15830083357675,2462.30016454977
-0.18048347527364,2462.31016454977
-0.201657222974501,2462.32016454977
-0.221697407903833,2462.33016454977
-0.240743828440594,2462.34016454977
-0.258533950495674,2462.35016454977
-0.275779694343304,2462.36016454977
-0.292564483539369,2462.37016454977
-0.30792044115958,2462.38016454977
-0.318894327325158,2462.39016454977
-0.319696085419668,2462.40016454977
-0.304566169293771,2462.41016454977
-0.268256026760157,2462.42016454977
-0.212443226832641,2462.43016454977
-0.140882225306601,2462.44016454977
-0.0593803204265665,2462.45016454977
0.0263561228307283,2462.46016454977
0.109904762649576,2462.47016454977
0.188239564587396,2462.48016454977
0.258163324657673,2462.49016454977
0.317355190296055,2462.50016454977
0.365607063897873,2462.51016454977
0.404221439558507,2462.52016454977
0.434949973453087,2462.53016454977
0.459981538381601,2462.54016454977
0.480964719464363,2462.55016454977
0.499870984756972,2462.56016454977
0.517555651973352,2462.57016454977
0.534305341244061,2462.58016454977
0.550410093792917,2462.59016454977
0.565573405871165,2462.60016454977
0.579782433933621,2462.61016454977
0.592661668469785,2462.62016454977
0.603992485883239,2462.63016454977
0.613103595532516,2462.64016454977
0.618410521268524,2462.65016454977
0.617916671108991,2462.66016454977
0.610795197553518,2462.67016454977
0.596971968808839,2462.68016454977
0.577364818902752,2462.69016454977
0.55474309752031,2462.70016454977
0.53159107171599,2462.71016454977
0.510923899593147,2462.72016454977
0.49405080972411,2462.73016454977
0.481040871192888,2462.74016454977
0.471585896409944,2462.75016454977
0.465067325429533,2462.76016454977
0.460077089733248,2462.77016454977
0.456499990981339,2462.78016454977
0.452515161340091,2462.79016454977
0.447404556608376,2462.80016454977
0.441640086107922,2462.81016454977
0.433120439887206,2462.82016454977
0.422830767886235,2462.83016454977
0.410621170184586,2462.84016454977
0.396541909662728,2462.85016454977
0.381098467594567,2462.86016454977
0.364417665975582,2462.87016454977
0.346342463402242,2462.88016454977
0.326927897776876,2462.89016454977
0.307122505443504,2462.90016454977
0.287133574698052,2462.91016454977
0.26733937358577,2462.92016454977
0.247559331198738,2462.93016454977
0.22700160069396,2462.94016454977
0.206709584395424,2462.95016454977
0.185340614700497,2462.96016454977
0.164401696213271,2462.97016454977
0.143139281620731,2462.98016454977
0.122549249697389,2462.99016454977
0.102474760531142,2463.00016454977
0.083330597552591,2463.01016454977
0.0644167874928445,2463.02016454977
0.0454208650284291,2463.03016454977
0.0273922536243614,2463.04016454977
0.00939105697581456,2463.05016454977
-0.008718141182223,2463.06016454977
-0.0269829694829158,2463.07016454977
-0.045655533088647,2463.08016454977
-0.064173812399102,2463.09016454977
-0.0837214077979921,2463.10016454977
-0.102865152815584,2463.11016454977
-0.121929876859552,2463.12016454977
-0.140703517755578,2463.13016454977
-0.158962824385057,2463.14016454977
-0.177184837242528,2463.15016454977
-0.195713130379468,2463.16016454977
-0.214012424225612,2463.17016454977
-0.232082094373822,2463.18016454977
-0.249436854172516,2463.19016454977
-0.265958487060474,2463.20016454977
-0.279942894859628,2463.21016454977
-0.287889841920232,2463.22016454977
-0.28389016070982,2463.23016454977
-0.262035215904047,2463.24016454977
-0.220650318261997,2463.25016454977
-0.161402258033066,2463.26016454977
-0.0890885183085906,2463.27016454977
-0.00958899756886684,2463.28016454977
0.0710488875469517,2463.29016454977
0.14755279339271,2463.30016454977
0.217973457268332,2463.31016454977
0.278795592404224,2463.32016454977
0.329392143308549,2463.33016454977
0.370845688663679,2463.34016454977
0.403954153361752,2463.35016454977
0.430220962198965,2463.36016454977
0.451859073936558,2463.37016454977
0.47070018272972,2463.38016454977
0.488213731493961,2463.39016454977
0.505879585516936,2463.40016454977
0.523710006088762,2463.41016454977
0.541834564350722,2463.42016454977
0.559483259126677,2463.43016454977
0.575990652389034,2463.44016454977
0.590427710592871,2463.45016454977
0.601317520623947,2463.46016454977
0.608550316391417,2463.47016454977
0.6102672188596,2463.48016454977
0.605901627660591,2463.49016454977
0.594911504249501,2463.50016454977
0.577977937220193,2463.51016454977
0.557065028910385,2463.52016454977
0.534310593115499,2463.53016454977
0.512170634428125,2463.54016454977
0.492138087927996,2463.55016454977
0.475280690837642,2463.56016454977
0.46225224275201,2463.57016454977
0.452048338187782,2463.58016454977
0.444160601638857,2463.59016454977
0.437196198606005,2463.60016454977
0.431088102299866,2463.61016454977
0.424861233758297,2463.62016454977
0.417541778425274,2463.63016454977
0.409300922222068,2463.64016454977
0.398876819796855,2463.65016454977
0.38606285717327,2463.66016454977
0.37129771750667,2463.67016454977
0.354695807256118,2463.68016454977
0.337130837826505,2463.69016454977
0.318758856812804,2463.70016454977
0.299708600331714,2463.71016454977
0.280498480307959,2463.72016454977
0.261018339329444,2463.73016454977
0.241030738144783,2463.74016454977
0.2206254335917,2463.75016454977
0.200011669255805,2463.76016454977
0.179114437531333,2463.77016454977
0.157634424546092,2463.78016454977
0.136103625655046,2463.79016454977
0.114446304766528,2463.80016454977
0.0933271967995245,2463.81016454977
0.0728002711316192,2463.82016454977
0.0528914732892138,2463.83016454977
0.0331778361647817,2463.84016454977
0.0134672714716273,2463.85016454977
-0.00574360152181418,2463.86016454977
-0.0250650065773215,2463.87016454977
-0.0441233305468462,2463.88016454977
-0.0634264817857502,2463.89016454977
-0.0827322909963841,2463.90016454977
-0.102305904301122,2463.91016454977
-0.12238996502755,2463.92016454977
-0.14201501723356,2463.93016454977
-0.160952764753452,2463.94016454977
-0.180224682333984,2463.95016454977
-0.199371289209881,2463.96016454977
-0.217726887841339,2463.97016454977
-0.235817250170538,2463.98016454977
-0.253219034476961,2463.99016454977
-0.270026214315915,2464.00016454977
-0.286535527469307,2464.01016454977
-0.303052377882541,2464.02016454977
-0.31829835844385,2464.03016454977
-0.330831316618564,2464.04016454977
-0.335520832519538,2464.05016454977
-0.327448606998849,2464.06016454977
-0.301824969576739,2464.07016454977
-0.257745643524405,2464.08016454977
-0.199576741285083,2464.09016454977
-0.132148400558974,2464.10016454977
-0.0618470179557743,2464.11016454977
0.00535499726508324,2464.12016454977
0.0662185169874163,2464.13016454977
0.118116630688477,2464.14016454977
0.160817548014624,2464.15016454977
0.194740691609674,2464.16016454977
0.221347847745007,2464.17016454977
0.242442240870379,2464.18016454977
0.25966018564194,2464.19016454977
0.27432270058986,2464.20016454977
0.288212079936633,2464.21016454977
0.301445579346159,2464.22016454977
0.314440524355021,2464.23016454977
0.327320692740346,2464.24016454977
0.339316375997939,2464.25016454977
0.350710189767144,2464.26016454977
0.360717967414371,2464.27016454977
0.368578269727938,2464.28016454977
0.373537785586971,2464.29016454977
0.374328924744906,2464.30016454977
0.368830900001257,2464.31016454977
0.357121322596573,2464.32016454977
0.339833901225666,2464.33016454977
0.319201532033847,2464.34016454977
0.296318175856467,2464.35016454977
0.274284659352586,2464.36016454977
0.254938129181325,2464.37016454977
0.238548236266791,2464.38016454977
0.225959850169376,2464.39016454977
0.21698602720491,2464.40016454977
0.210086838196781,2464.41016454977
0.204461467710132,2464.42016454977
0.19881232806224,2464.43016454977
0.192009624381615,2464.44016454977
0.184014434294442,2464.45016454977
0.174524181030331,2464.46016454977
0.163755806768848,2464.47016454977
0.151056175670046,2464.48016454977
0.137614636482796,2464.49016454977
0.122914059706913,2464.50016454977
0.107031456303519,2464.51016454977
0.0905792204773379,2464.52016454977
0.073938490926266,2464.53016454977
0.057625662048075,2464.54016454977
0.0410267814219215,2464.55016454977
0.0239458599319556,2464.56016454977
0.00632574011297944,2464.57016454977
-0.0119268523067474,2464.58016454977
-0.0308846436042871,2464.59016454977
