PPG,time
0.185268049392896,2346.52547527159
0.356287536597183,2346.53547527159
0.29810604478181,2346.54547527159
0.307285283646622,2346.55547527159
0.277144254795136,2346.56547527159
0.271041496391558,2346.57547527159
0.249294216825563,2346.58547527159
0.237029176958178,2346.59547527159
0.218128255952454,2346.60547527159
0.202308674200818,2346.61547527159
0.184463777622484,2346.62547527159
0.166243501990498,2346.63547527159
0.148314575670308,2346.64547527159
0.130663065856222,2346.65547527159
0.112736736921291,2346.66547527159
0.095940839544111,2346.67547527159
0.0796395432506539,2346.68547527159
0.0635263222701578,2346.69547527159
0.0474067279114638,2346.70547527159
0.0317006125745604,2346.71547527159
0.0161646901335188,2346.72547527159
0.000730785142844481,2346.73547527159
-0.0150740226610142,2346.74547527159
-0.0307359514564668,2346.75547527159
-0.0458146605976245,2346.76547527159
-0.0608806684802791,2346.77547527159
-0.0752105930439058,2346.78547527159
-0.089278829841759,2346.79547527159
-0.102195571960483,2346.80547527159
-0.115039718084552,2346.81547527159
-0.127434527225702,2346.82547527159
-0.139831836167324,2346.83547527159
-0.151619480979651,2346.84547527159
-0.16337133986042,2346.85547527159
-0.174895576134607,2346.86547527159
-0.185942018373896,2346.87547527159
-0.197456095961577,2346.88547527159
-0.209424837545817,2346.89547527159
-0.222121042874903,2346.90547527159
-0.235038798321766,2346.91547527159
-0.248191032535268,2346.92547527159
-0.260138288736915,2346.93547527159
-0.269651316362807,2346.94547527159
-0.273186615952373,2346.95547527159
-0.266741819453285,2346.96547527159
-0.246046523407381,2346.97547527159
-0.207355513331342,2346.98547527159
-0.150179211137426,2346.99547527159
-0.0764021553078301,2347.00547527159
0.00883812714379058,2347.01547527159
0.0985701124898607,2347.02547527159
0.187056685869204,2347.03547527159
0.267395021990458,2347.04547527159
0.334942006930988,2347.05547527159
0.387013763197782,2347.06547527159
0.423179993606175,2347.07547527159
0.444946925941429,2347.08547527159
0.45426332528557,2347.09547527159
0.453615048383721,2347.10547527159
0.445405554131683,2347.11547527159
0.431788222633147,2347.12547527159
0.414914182124629,2347.13547527159
0.396765788977608,2347.14547527159
0.379619900860046,2347.15547527159
0.364221974005177,2347.16547527159
0.351058847378806,2347.17547527159
0.34067470968488,2347.18547527159
0.331866035936682,2347.19547527159
0.324212627308475,2347.20547527159
0.316558085765741,2347.21547527159
0.307309745418246,2347.22547527159
0.296575585568753,2347.23547527159
0.283832093637235,2347.24547527159
0.269636463443048,2347.25547527159
0.254822054055942,2347.26547527159
0.240289394260156,2347.27547527159
0.227698607734043,2347.28547527159
0.217258525243488,2347.29547527159
0.209575709598578,2347.30547527159
0.204998162692638,2347.31547527159
0.203063690063014,2347.32547527159
0.203026235481612,2347.33547527159
0.204095065146703,2347.34547527159
0.205845401325064,2347.35547527159
0.207659688276534,2347.36547527159
0.208665928051477,2347.37547527159
0.208687913186255,2347.38547527159
0.206993573252106,2347.39547527159
0.202870438815703,2347.40547527159
0.195902274104283,2347.41547527159
0.186396107863473,2347.42547527159
0.174944360890349,2347.43547527159
0.16180850088078,2347.44547527159
0.147758311718015,2347.45547527159
0.132984349150793,2347.46547527159
0.11805059688938,2347.47547527159
0.102520398719001,2347.48547527159
0.0863745911850107,2347.49547527159
0.0700007806724386,2347.50547527159
0.052721597541763,2347.51547527159
0.0348871269453706,2347.52547527159
0.0165118123459975,2347.53547527159
-0.00219989413220528,2347.54547527159
-0.0211097595367529,2347.55547527159
-0.0399494557628571,2347.56547527159
-0.0580063379087364,2347.57547527159
-0.0753759073052767,2347.58547527159
-0.0920968468715306,2347.59547527159
-0.108069628717257,2347.60547527159
-0.123459792182013,2347.61547527159
-0.138965509344903,2347.62547527159
-0.154468568784784,2347.63547527159
-0.169773821447052,2347.64547527159
-0.18517248159821,2347.65547527159
-0.200201875934659,2347.66547527159
-0.21428662251268,2347.67547527159
-0.228224738750907,2347.68547527159
-0.241322617175383,2347.69547527159
-0.254220286508229,2347.70547527159
-0.267065538612333,2347.71547527159
-0.279990062417678,2347.72547527159
-0.293088139910241,2347.73547527159
-0.305800657157337,2347.74547527159
-0.318292920225734,2347.75547527159
-0.33047582740553,2347.76547527159
-0.342451427266395,2347.77547527159
-0.355190471506524,2347.78547527159
-0.368275895327713,2347.79547527159
-0.381614540614353,2347.80547527159
-0.394852472524455,2347.81547527159
-0.405714824882767,2347.82547527159
-0.411224175848561,2347.83547527159
-0.407425576654677,2347.84547527159
-0.389993185394676,2347.85547527159
-0.357590738626524,2347.86547527159
-0.310565248512158,2347.87547527159
-0.25082474253167,2347.88547527159
-0.183301997558993,2347.89547527159
-0.112994832654326,2347.90547527159
-0.044955546972137,2347.91547527159
0.0155713315152576,2347.92547527159
0.0659183194029984,2347.93547527159
0.103601408869437,2347.94547527159
0.128662194388484,2347.95547527159
0.141565310634221,2347.96547527159
0.144815909510712,2347.97547527159
0.140826002618299,2347.98547527159
0.131426291635003,2347.99547527159
0.119054259614323,2348.00547527159
0.104778823526446,2348.01547527159
0.0900786271719503,2348.02547527159
0.0760421848561971,2348.03547527159
0.0632033005721718,2348.04547527159
0.0511459936661344,2348.05547527159
0.0407999280662269,2348.06547527159
0.0311554498928296,2348.07547527159
0.0218087253338464,2348.08547527159
0.0118840344419673,2348.09547527159
0.000862729251229055,2348.10547527159
-0.0113596188976539,2348.11547527159
-0.0241029848723126,2348.12547527159
-0.0368169094108616,2348.13547527159
-0.0493703969299282,2348.14547527159
-0.06014977664171,2348.15547527159
-0.0691725154238533,2348.16547527159
-0.0760678788874165,2348.17547527159
-0.0803913173447804,2348.18547527159
-0.0821163473724025,2348.19547527159
-0.0818170245590947,2348.20547527159
-0.0800527446276927,2348.21547527159
-0.0767174886683189,2348.22547527159
-0.0741372567059576,2348.23547527159
-0.0720372714617617,2348.24547527159
-0.0706150095908728,2348.25547527159
-0.0711013897248822,2348.26547527159
-0.0731933203146972,2348.27547527159
-0.077974542816222,2348.28547527159
-0.0848003087985942,2348.29547527159
-0.0931113332097117,2348.30547527159
-0.103362020389135,2348.31547527159
-0.114889585205693,2348.32547527159
-0.127165503955538,2348.33547527159
-0.140015163209616,2348.34547527159
-0.153475802063488,2348.35547527159
-0.166968833079322,2348.36547527159
-0.180918334092266,2348.37547527159
-0.195582782762824,2348.38547527159
-0.210282972124731,2348.39547527159
-0.224911701660411,2348.40547527159
-0.239619570875379,2348.41547527159
-0.25436918680624,2348.42547527159
-0.269252433453144,2348.43547527159
-0.284186370532197,2348.44547527159
-0.298926028837349,2348.45547527159
-0.313233381721196,2348.46547527159
-0.327143848655757,2348.47547527159
-0.340828596489746,2348.48547527159
-0.354219265172173,2348.49547527159
-0.367697788237971,2348.50547527159
-0.381455079703956,2348.51547527159
-0.394774296407929,2348.52547527159
-0.407543956657305,2348.53547527159
-0.419735977887808,2348.54547527159
-0.431555466289939,2348.55547527159
-0.442935424210635,2348.56547527159
-0.453830763470294,2348.57547527159
-0.464338488846378,2348.58547527159
-0.475362749726688,2348.59547527159
-0.486528302833337,2348.60547527159
-0.498341345362108,2348.61547527159
-0.510227777059929,2348.62547527159
-0.522248640136678,2348.63547527159
-0.533491508367367,2348.64547527159
-0.540646250758854,2348.65547527159
-0.541330604645129,2348.66547527159
-0.532410794416673,2348.67547527159
-0.511343965470845,2348.68547527159
-0.477463158788621,2348.69547527159
-0.43249449430758,2348.70547527159
-0.378552419095585,2348.71547527159
-0.319920385508547,2348.72547527159
-0.260715072475895,2348.73547527159
-0.204112228158039,2348.74547527159
-0.154327364610391,2348.75547527159
-0.113409863256321,2348.76547527159
-0.0826344272618678,2348.77547527159
-0.0619434030371017,2348.78547527159
-0.0495188047760394,2348.79547527159
-0.0443353752984784,2348.80547527159
-0.0448092689004961,2348.81547527159
-0.0494076993636138,2348.82547527159
-0.0569851078565708,2348.83547527159
-0.0664998223736309,2348.84547527159
-0.0768568961417264,2348.85547527159
-0.0866025443845598,2348.86547527159
-0.0955529571941489,2348.87547527159
-0.102546569187233,2348.88547527159
-0.107705634097397,2348.89547527159
-0.112123979396363,2348.90547527159
-0.116145233296729,2348.91547527159
-0.121136004518946,2348.92547527159
-0.127806616445149,2348.93547527159
-0.136428590726855,2348.94547527159
-0.146751863724595,2348.95547527159
-0.157861576739574,2348.96547527159
-0.169576577204682,2348.97547527159
-0.180134241215384,2348.98547527159
-0.189372931108523,2348.99547527159
-0.197071529876828,2349.00547527159
-0.202159960677611,2349.01547527159
-0.205022304786638,2349.02547527159
-0.205802291258983,2349.03547527159
-0.205463197166353,2349.04547527159
-0.204675896905144,2349.05547527159
-0.203610255091663,2349.06547527159
-0.203193914611826,2349.07547527159
-0.20340347981758,2349.08547527159
-0.205082708873224,2349.09547527159
-0.208896482032934,2349.10547527159
-0.213699028116393,2349.11547527159
-0.220020996568482,2349.12547527159
-0.227385406313356,2349.13547527159
-0.236151101781734,2349.14547527159
-0.24536586372581,2349.15547527159
-0.254977693883182,2349.16547527159
-0.264965406468639,2349.17547527159
-0.274959592608757,2349.18547527159
-0.285677873488976,2349.19547527159
-0.297031391448768,2349.20547527159
-0.309314845926777,2349.21547527159
-0.32176870714854,2349.22547527159
-0.334318934546113,2349.23547527159
-0.346150962298753,2349.24547527159
-0.358132144552795,2349.25547527159
-0.369827055437423,2349.26547527159
-0.381618033595604,2349.27547527159
-0.393673594749529,2349.28547527159
-0.405323947181159,2349.29547527159
-0.416567774510958,2349.30547527159
-0.428074235057629,2349.31547527159
-0.439810777906406,2349.32547527159
-0.451322330056347,2349.33547527159
-0.462649496335226,2349.34547527159
-0.473785271321261,2349.35547527159
-0.484598330731993,2349.36547527159
-0.494965299210687,2349.37547527159
-0.505296458083963,2349.38547527159
-0.514886735927293,2349.39547527159
-0.52372233869339,2349.40547527159
-0.532361359378453,2349.41547527159
-0.540702714371458,2349.42547527159
-0.549600066942322,2349.43547527159
-0.558958475702566,2349.44547527159
-0.569174678019956,2349.45547527159
-0.579389877072976,2349.46547527159
-0.589632778185507,2349.47547527159
-0.599323707945555,2349.48547527159
-0.607526133791005,2349.49547527159
-0.612205660334586,2349.50547527159
-0.611021415292597,2349.51547527159
-0.601507405940937,2349.52547527159
-0.581345453895251,2349.53547527159
-0.549093076725188,2349.54547527159
-0.505391109244473,2349.55547527159
-0.452463612907324,2349.56547527159
-0.393403143637496,2349.57547527159
-0.333207790168591,2349.58547527159
-0.275221065465583,2349.59547527159
-0.22371714719873,2349.60547527159
-0.181034652303346,2349.61547527159
-0.148517287056854,2349.62547527159
-0.125067496668936,2349.63547527159
-0.110284331951647,2349.64547527159
-0.102520850316671,2349.65547527159
-0.100292014613294,2349.66547527159
-0.102420573955527,2349.67547527159
-0.107209400780775,2349.68547527159
-0.112966975338494,2349.69547527159
-0.119397189798371,2349.70547527159
-0.125456022180748,2349.71547527159
-0.130642087058702,2349.72547527159
-0.134737633626485,2349.73547527159
-0.137653370951565,2349.74547527159
-0.13936228566135,2349.75547527159
-0.140088588215658,2349.76547527159
-0.141113471205449,2349.77547527159
-0.143783891896188,2349.78547527159
-0.148448627921983,2349.79547527159
-0.155415912388399,2349.80547527159
-0.16423906980209,2349.81547527159
-0.173940343962385,2349.82547527159
-0.183209348724845,2349.83547527159
-0.191204608753094,2349.84547527159
-0.197147719596028,2349.85547527159
-0.201143176088169,2349.86547527159
-0.20280052052983,2349.87547527159
-0.202734478730129,2349.88547527159
-0.201752310736648,2349.89547527159
-0.19988688779095,2349.90547527159
-0.197919228946255,2349.91547527159
-0.196767073085967,2349.92547527159
-0.196148761001797,2349.93547527159
-0.196423878304782,2349.94547527159
-0.198612591459679,2349.95547527159
-0.202002460652647,2349.96547527159
-0.206623739188027,2349.97547527159
-0.212418058754764,2349.98547527159
-0.218969423821621,2349.99547527159
-0.226156612231775,2350.00547527159
-0.233698307489302,2350.01547527159
-0.242065487088577,2350.02547527159
-0.250895641868303,2350.03547527159
-0.260826632591386,2350.04547527159
-0.271569492008105,2350.05547527159
-0.282489213165127,2350.06547527159
-0.293323412013026,2350.07547527159
-0.30471116240011,2350.08547527159
-0.316345959460996,2350.09547527159
-0.327496734911222,2350.10547527159
-0.339297669693717,2350.11547527159
-0.351390797211114,2350.12547527159
-0.36298120720596,2350.13547527159
-0.374752215286725,2350.14547527159
-0.386255095448131,2350.15547527159
-0.397326574109935,2350.16547527159
-0.407616739509827,2350.17547527159
-0.418047122346637,2350.18547527159
-0.427751009552737,2350.19547527159
-0.437579912412226,2350.20547527159
-0.446988070093576,2350.21547527159
-0.456445253165507,2350.22547527159
-0.465821428218546,2350.23547527159
-0.474989919859858,2350.24547527159
-0.484410342458222,2350.25547527159
-0.494308641835398,2350.26547527159
-0.504065371721137,2350.27547527159
-0.513413329821683,2350.28547527159
-0.522323059190887,2350.29547527159
-0.530787511706148,2350.30547527159
-0.538808607818765,2350.31547527159
-0.546753747404765,2350.32547527159
-0.554576566453915,2350.33547527159
-0.562540784286692,2350.34547527159
-0.570786890048527,2350.35547527159
-0.579504018102995,2350.36547527159
-0.588215399126716,2350.37547527159
-0.595562792380669,2350.38547527159
-0.600120595607238,2350.39547527159
-0.599000625336056,2350.40547527159
-0.58986066763292,2350.41547527159
-0.569837964042397,2350.42547527159
-0.537812502068507,2350.43547527159
-0.494749069546494,2350.44547527159
-0.442808181711942,2350.45547527159
-0.385685498665786,2350.46547527159
-0.327383497024298,2350.47547527159
-0.271691402788767,2350.48547527159
-0.221642119971063,2350.49547527159
-0.179501525417834,2350.50547527159
-0.146935177961925,2350.51547527159
-0.123094576828204,2350.52547527159
-0.107910211301595,2350.53547527159
-0.0992011493168145,2350.54547527159
-0.096260508638306,2350.55547527159
-0.0974421613124117,2350.56547527159
-0.100907079450743,2350.57547527159
-0.105716480698945,2350.58547527159
-0.111741209308649,2350.59547527159
-0.117290886890382,2350.60547527159
-0.122051119935968,2350.61547527159
-0.125399200802311,2350.62547527159
-0.127585888533928,2350.63547527159
-0.128975338531454,2350.64547527159
-0.130075277954449,2350.65547527159
-0.131272325403523,2350.66547527159
-0.133810537391862,2350.67547527159
-0.137806092527204,2350.68547527159
-0.143438325334721,2350.69547527159
-0.150855287495362,2350.70547527159
-0.158994461989926,2350.71547527159
-0.167073631218475,2350.72547527159
-0.174919436647452,2350.73547527159
-0.181054277841601,2350.74547527159
-0.185849067518097,2350.75547527159
-0.189197087648658,2350.76547527159
-0.190696266038937,2350.77547527159
-0.190868126995388,2350.78547527159
-0.190262975824842,2350.79547527159
-0.189426349355466,2350.80547527159
-0.188655797435542,2350.81547527159
-0.188020695774696,2350.82547527159
-0.188201899411445,2350.83547527159
-0.189409316477183,2350.84547527159
-0.1914804168804,2350.85547527159
-0.194788990599575,2350.86547527159
-0.199512266008803,2350.87547527159
-0.205758064648819,2350.88547527159
-0.213449632715334,2350.89547527159
-0.22201215630058,2350.90547527159
-0.231914655385963,2350.91547527159
-0.242109662976086,2350.92547527159
-0.252462817471849,2350.93547527159
-0.263423344069481,2350.94547527159
-0.274425353101643,2350.95547527159
-0.286156962843686,2350.96547527159
-0.29797601601055,2350.97547527159
-0.309779917277947,2350.98547527159
-0.320965464075795,2350.99547527159
-0.331424622434643,2351.00547527159
-0.341412178661281,2351.01547527159
-0.35132398267829,2351.02547527159
-0.361784078233936,2351.03547527159
-0.372475380775344,2351.04547527159
-0.383910016060922,2351.05547527159
-0.395605880022706,2351.06547527159
-0.407349067882827,2351.07547527159
-0.418646090651293,2351.08547527159
-0.429245051145739,2351.09547527159
-0.439575121268093,2351.10547527159
-0.449266343310462,2351.11547527159
-0.458813080117544,2351.12547527159
-0.467722444437917,2351.13547527159
-0.475758911755099,2351.14547527159
-0.484037994956894,2351.15547527159
-0.492760884868121,2351.16547527159
-0.501616350413627,2351.17547527159
-0.510957011858466,2351.18547527159
-0.520564692048329,2351.19547527159
-0.53031721249779,2351.20547527159
-0.5398590464165,2351.21547527159
-0.549023077393603,2351.22547527159
-0.557772629936561,2351.23547527159
-0.566110598345741,2351.24547527159
-0.573165963692505,2351.25547527159
-0.5773981384257,2351.26547527159
-0.576204908538867,2351.27547527159
-0.566575917714501,2351.28547527159
-0.546593538539289,2351.29547527159
-0.51625295705564,2351.30547527159
-0.47639750034037,2351.31547527159
-0.429976362217222,2351.32547527159
-0.37937188935796,2351.33547527159
-0.328467637779938,2351.34547527159
-0.281018719788242,2351.35547527159
-0.239544978205372,2351.36547527159
-0.205821405601977,2351.37547527159
-0.181620232486605,2351.38547527159
-0.165457507754858,2351.39547527159
-0.156397701486593,2351.40547527159
-0.152720260613714,2351.41547527159
-0.152397237557134,2351.42547527159
-0.153891688671722,2351.43547527159
-0.156492028152858,2351.44547527159
-0.159631565971665,2351.45547527159
-0.162628497704024,2351.46547527159
-0.165815350118838,2351.47547527159
-0.168852455132278,2351.48547527159
-0.171656320779039,2351.49547527159
-0.17388253911721,2351.50547527159
-0.175549176338886,2351.51547527159
-0.177363523229832,2351.52547527159
-0.179904644638549,2351.53547527159
-0.183613528557468,2351.54547527159
-0.188631005350538,2351.55547527159
-0.194813754800325,2351.56547527159
-0.201048234308511,2351.57547527159
-0.206624728821141,2351.58547527159
-0.211689939129058,2351.59547527159
-0.21581391974555,2351.60547527159
-0.217646636737494,2351.61547527159
-0.217956471659012,2351.62547527159
-0.21618164450721,2351.63547527159
-0.212835418037755,2351.64547527159
-0.20836729590572,2351.65547527159
-0.20377100100897,2351.66547527159
-0.200125977436219,2351.67547527159
-0.19728530183763,2351.68547527159
-0.195707551298573,2351.69547527159
-0.195995142827786,2351.70547527159
-0.197574306871488,2351.71547527159
-0.199972375977851,2351.72547527159
-0.20350510688313,2351.73547527159
-0.208243439558734,2351.74547527159
-0.213857529353982,2351.75547527159
-0.220700136916748,2351.76547527159
-0.228040902100657,2351.77547527159
-0.236317141042835,2351.78547527159
-0.244328529650615,2351.79547527159
-0.252895812784087,2351.80547527159
-0.261759699261987,2351.81547527159
-0.27092853885993,2351.82547527159
-0.280455587451082,2351.83547527159
-0.290485996518923,2351.84547527159
-0.300406534259757,2351.85547527159
-0.310310380796468,2351.86547527159
-0.3201219202079,2351.87547527159
-0.33009758540497,2351.88547527159
-0.33978396094373,2351.89547527159
-0.348970425658976,2351.90547527159
-0.357785119892394,2351.91547527159
-0.366585118458056,2351.92547527159
-0.37479747486891,2351.93547527159
-0.38314439917731,2351.94547527159
-0.391061663490342,2351.95547527159
-0.399642775160401,2351.96547527159
-0.407639592308724,2351.97547527159
-0.414854377217415,2351.98547527159
-0.421774538348243,2351.99547527159
-0.428809730908794,2352.00547527159
-0.43614173222076,2352.01547527159
-0.443831990166156,2352.02547527159
-0.452102477376485,2352.03547527159
-0.460805028510792,2352.04547527159
-0.469552990317008,2352.05547527159
-0.477398524924344,2352.06547527159
-0.483169741212111,2352.07547527159
-0.48398442109443,2352.08547527159
-0.47772660033131,2352.09547527159
-0.461888498829211,2352.10547527159
-0.435651384851459,2352.11547527159
-0.40078674999204,2352.12547527159
-0.358797313798413,2352.13547527159
-0.311995078194742,2352.14547527159
-0.263814435802208,2352.15547527159
-0.217094245189834,2352.16547527159
-0.174852049834924,2352.17547527159
-0.138632756664549,2352.18547527159
-0.109328454469007,2352.19547527159
-0.0870886392658453,2352.20547527159
-0.0714714177165161,2352.21547527159
-0.0614641915839436,2352.22547527159
-0.0557484971480442,2352.23547527159
-0.0538381962817774,2352.24547527159
-0.0534448633354702,2352.25547527159
-0.0538683555733768,2352.26547527159
-0.0540363277258366,2352.27547527159
-0.0536690540878303,2352.28547527159
-0.0530032453094294,2352.29547527159
-0.0517678249252673,2352.30547527159
-0.0511842877373564,2352.31547527159
-0.0510354940776899,2352.32547527159
-0.0516455638103641,2352.33547527159
-0.0531659438132879,2352.34547527159
-0.0555323026942089,2352.35547527159
-0.058841962236002,2352.36547527159
-0.063178490881878,2352.37547527159
-0.0680531123462656,2352.38547527159
-0.0732026333963246,2352.39547527159
-0.0779057606361678,2352.40547527159
-0.0814677624019881,2352.41547527159
-0.083462238154375,2352.42547527159
-0.0842633318480565,2352.43547527159
-0.0834640372706536,2352.44547527159
-0.081552716031284,2352.45547527159
-0.0788055278274535,2352.46547527159
-0.0751515989554658,2352.47547527159
-0.0715844271935623,2352.48547527159
-0.0688049236063551,2352.49547527159
-0.0664688339752718,2352.50547527159
-0.0660337481615651,2352.51547527159
-0.0665485383261891,2352.52547527159
-0.0680047612281907,2352.53547527159
-0.071195529623676,2352.54547527159
-0.0754886267347773,2352.55547527159
-0.0810265493936609,2352.56547527159
-0.0867517224169537,2352.57547527159
-0.0929462141871147,2352.58547527159
-0.0998717590914864,2352.59547527159
-0.107420259785998,2352.60547527159
-0.115050519665537,2352.61547527159
-0.123103958687377,2352.62547527159
-0.131266308580388,2352.63547527159
-0.139727587013527,2352.64547527159
-0.148709421700285,2352.65547527159
-0.157329221300672,2352.66547527159
-0.1665464679215,2352.67547527159
-0.175970561973057,2352.68547527159
-0.18526212557929,2352.69547527159
-0.194580094455041,2352.70547527159
-0.203728738703416,2352.71547527159
-0.212524196641565,2352.72547527159
-0.221396648567936,2352.73547527159
-0.230565322860224,2352.74547527159
-0.239837541316165,2352.75547527159
-0.248715457087475,2352.76547527159
-0.257262383516106,2352.77547527159
-0.26568319715966,2352.78547527159
-0.273570892323731,2352.79547527159
-0.281589904432304,2352.80547527159
-0.289660504031499,2352.81547527159
-0.297923207705835,2352.82547527159
-0.306554240810041,2352.83547527159
-0.315685082176444,2352.84547527159
-0.325177255474467,2352.85547527159
-0.334079283631536,2352.86547527159
-0.341537421546035,2352.87547527159
-0.345688025598863,2352.88547527159
-0.344135543840691,2352.89547527159
-0.334390421765155,2352.90547527159
-0.315119394251914,2352.91547527159
-0.285812068888218,2352.92547527159
-0.246827955298948,2352.93547527159
-0.200408021501324,2352.94547527159
-0.149772334976525,2352.95547527159
-0.0974323737052518,2352.96547527159
-0.0469556411530668,2352.97547527159
-0.00147409207418621,2352.98547527159
0.037766322567911,2352.99547527159
0.06864255209829,2353.00547527159
0.0916442505196568,2353.01547527159
0.10757601718824,2353.02547527159
0.117513479980923,2353.03547527159
0.123589372262325,2353.04547527159
0.126345327658067,2353.05547527159
0.127808161736926,2353.06547527159
0.127869493110411,2353.07547527159
0.12739204555464,2353.08547527159
0.127536288230562,2353.09547527159
0.128234236982793,2353.10547527159
0.129182199450456,2353.11547527159
0.131074290874833,2353.12547527159
0.13337196028359,2353.13547527159
0.135164212891985,2353.14547527159
0.135685393734867,2353.15547527159
0.135025648157255,2353.16547527159
0.132645161766513,2353.17547527159
0.128283224734438,2353.18547527159
0.123164056748521,2353.19547527159
0.117479544516833,2353.20547527159
0.112417750995104,2353.21547527159
0.10853167271485,2353.22547527159
0.105900315718026,2353.23547527159
0.104764848941107,2353.24547527159
0.10474365183082,2353.25547527159
0.106640130032473,2353.26547527159
0.109531833490036,2353.27547527159
0.113310142127691,2353.28547527159
0.117197080207858,2353.29547527159
0.119918225924363,2353.30547527159
0.121103227866159,2353.31547527159
0.120869407986388,2353.32547527159
0.119600225907624,2353.33547527159
0.116891758826019,2353.34547527159
0.112721879277485,2353.35547527159
0.107745945561586,2353.36547527159
0.101836856277998,2353.37547527159
0.0952841964468544,2353.38547527159
0.0882445567806497,2353.39547527159
0.0804534343570544,2353.40547527159
0.0722296380826278,2353.41547527159
0.0631724145600323,2353.42547527159
0.0536718523835256,2353.43547527159
0.0432702413075955,2353.44547527159
0.0322781898197534,2353.45547527159
0.0209781734898021,2353.46547527159
0.00976399664496149,2353.47547527159
-0.00117499816025074,2353.48547527159
-0.0118269920558648,2353.49547527159
-0.0221403939181055,2353.50547527159
-0.0319713652520825,2353.51547527159
-0.0413524639000555,2353.52547527159
-0.0504601298999738,2353.53547527159
-0.0604579499250914,2353.54547527159
-0.0701701140863113,2353.55547527159
-0.080566789227236,2353.56547527159
-0.0910370856167958,2353.57547527159
-0.100421980479377,2353.58547527159
-0.109944783409222,2353.59547527159
-0.118811808066906,2353.60547527159
-0.127837827797866,2353.61547527159
-0.136493490273475,2353.62547527159
-0.145455317977268,2353.63547527159
-0.153852590520136,2353.64547527159
-0.16218864243184,2353.65547527159
-0.170868056421498,2353.66547527159
-0.179241336775602,2353.67547527159
-0.18755270609168,2353.68547527159
-0.196031319713613,2353.69547527159
-0.20439704674981,2353.70547527159
-0.212981423176219,2353.71547527159
-0.22208061126704,2353.72547527159
-0.230875440480028,2353.73547527159
-0.239963451817959,2353.74547527159
-0.248673650015528,2353.75547527159
-0.256189468589612,2353.76547527159
-0.261359256386083,2353.77547527159
-0.261816874226933,2353.78547527159
-0.254200774220005,2353.79547527159
-0.236443441325318,2353.80547527159
-0.207780616678988,2353.81547527159
-0.167544114866121,2353.82547527159
-0.11754658616694,2353.83547527159
-0.0603134552961211,2353.84547527159
0.000513550632593028,2353.85547527159
0.0608343495486201,2353.86547527159
0.116387408130087,2353.87547527159
0.164956949637051,2353.88547527159
0.204254315654866,2353.89547527159
0.234181717958395,2353.90547527159
0.25514075895401,2353.91547527159
0.268406549524693,2353.92547527159
0.275641121877474,2353.93547527159
0.278016064321486,2353.94547527159
0.277966397457991,2353.95547527159
0.276395162103374,2353.96547527159
0.275059730301881,2353.97547527159
0.273604762156556,2353.98547527159
0.27330911495509,2353.99547527159
0.273414671507026,2354.00547527159
0.274656126429691,2354.01547527159
0.276420976255141,2354.02547527159
0.278183748865746,2354.03547527159
0.278680190167398,2354.04547527159
0.277510534303634,2354.05547527159
0.274915643412729,2354.06547527159
0.270531902745802,2354.07547527159
0.265183766109553,2354.08547527159
0.258939497828702,2354.09547527159
0.252307319667984,2354.10547527159
0.246552238058849,2354.11547527159
0.241535201460424,2354.12547527159
0.237919209856846,2354.13547527159
0.235997158805661,2354.14547527159
0.236287512331823,2354.15547527159
0.23771773531447,2354.16547527159
0.240461532759915,2354.17547527159
0.243617395088699,2354.18547527159
0.246625404599567,2354.19547527159
0.248668786865987,2354.20547527159
0.249204965805931,2354.21547527159
0.248084861423791,2354.22547527159
0.245750175485886,2354.23547527159
0.241769199591363,2354.24547527159
0.236363304821275,2354.25547527159
0.22999443596178,2354.26547527159
0.222817118208197,2354.27547527159
0.215213190106975,2354.28547527159
0.207094583783397,2354.29547527159
0.198708755589896,2354.30547527159
0.189333251733666,2354.31547527159
0.178660327128787,2354.32547527159
0.167343199776719,2354.33547527159
0.155425357951492,2354.34547527159
0.143487476058463,2354.35547527159
0.131335862604193,2354.36547527159
0.119443787541937,2354.37547527159
0.107826802695228,2354.38547527159
0.0962339214428228,2354.39547527159
0.084707069697223,2354.40547527159
0.0732930614631472,2354.41547527159
0.0619760749242548,2354.42547527159
0.0510527691168109,2354.43547527159
0.0401825368587544,2354.44547527159
0.0290282377310369,2354.45547527159
0.0182486207255148,2354.46547527159
0.00770593481623358,2354.47547527159
-0.0026032895077475,2354.48547527159
-0.0126800973820862,2354.49547527159
-0.0232583593244013,2354.50547527159
-0.0342734614807948,2354.51547527159
-0.0454051950414346,2354.52547527159
-0.0563237129841453,2354.53547527159
-0.06695146681314,2354.54547527159
-0.0770191914373784,2354.55547527159
-0.0863767301230229,2354.56547527159
-0.0949916868524103,2354.57547527159
-0.103059279410294,2354.58547527159
-0.110790841102374,2354.59547527159
-0.118052715513089,2354.60547527159
-0.124993910683321,2354.61547527159
-0.132236012897378,2354.62547527159
-0.139752796508883,2354.63547527159
-0.147854452042542,2354.64547527159
-0.156896842390478,2354.65547527159
-0.165899784867908,2354.66547527159
-0.174928028469856,2354.67547527159
-0.184195269430755,2354.68547527159
-0.193224601414331,2354.69547527159
-0.202061872328509,2354.70547527159
-0.209405329819643,2354.71547527159
-0.212713704810157,2354.72547527159
-0.208841565689333,2354.73547527159
-0.195275227078475,2354.74547527159
-0.169691660200853,2354.75547527159
-0.131207698017068,2354.76547527159
-0.0804199560480815,2354.77547527159
-0.020714018255907,2354.78547527159
0.0440243998470444,2354.79547527159
0.110245274149565,2354.80547527159
0.173364385930673,2354.81547527159
0.230003746285651,2354.82547527159
0.276719881066409,2354.83547527159
0.31281427843356,2354.84547527159
0.337791528552406,2354.85547527159
0.353222322362909,2354.86547527159
0.360960282836939,2354.87547527159
0.362383442777766,2354.88547527159
0.360503656292269,2354.89547527159
0.356972570579135,2354.90547527159
0.352072399241847,2354.91547527159
0.346790671578514,2354.92547527159
0.34170674358451,2354.93547527159
0.336841426255518,2354.94547527159
0.333329932054552,2354.95547527159
0.331038992751559,2354.96547527159
0.329282277420239,2354.97547527159
0.328381143144625,2354.98547527159
0.326873879896753,2354.99547527159
0.324119361040082,2355.00547527159
0.319395985475822,2355.01547527159
0.311969333593744,2355.02547527159
0.303232241460025,2355.03547527159
0.294119287300618,2355.04547527159
0.285471884867849,2355.05547527159
0.278584078565478,2355.06547527159
0.274598732857817,2355.07547527159
0.2725099815706,2355.08547527159
0.272060150791401,2355.09547527159
0.273235586245192,2355.10547527159
0.2755561140969,2355.11547527159
0.278410547910011,2355.12547527159
0.2808801689423,2355.13547527159
0.282551441444779,2355.14547527159
0.282748472493548,2355.15547527159
0.281202450410944,2355.16547527159
0.277952752769973,2355.17547527159
0.272994259545576,2355.18547527159
0.266748886779232,2355.19547527159
0.259773195544086,2355.20547527159
0.251611844844215,2355.21547527159
0.242794710685677,2355.22547527159
0.232708319719662,2355.23547527159
0.222425285391026,2355.24547527159
0.211393755934388,2355.25547527159
0.200133261849236,2355.26547527159
0.188691341257721,2355.27547527159
0.176846987808449,2355.28547527159
0.164716643178148,2355.29547527159
0.151954699155185,2355.30547527159
0.139299523683924,2355.31547527159
0.126763032111663,2355.32547527159
0.11471681789856,2355.33547527159
0.102702828721817,2355.34547527159
0.0910587352331204,2355.35547527159
0.079115758045607,2355.36547527159
0.067241204792835,2355.37547527159
0.0553002113789297,2355.38547527159
0.0438652048386225,2355.39547527159
0.032539457489476,2355.40547527159
0.0213169920104238,2355.41547527159
0.0103274743172014,2355.42547527159
-0.000610916718179359,2355.43547527159
-0.0115446704627964,2355.44547527159
-0.022330585972571,2355.45547527159
-0.0329488899866025,2355.46547527159
-0.0424110552173327,2355.47547527159
-0.0519213833529437,2355.48547527159
-0.060687479732455,2355.49547527159
-0.0694008780597567,2355.50547527159
-0.0787382315735521,2355.51547527159
-0.0887062233575871,2355.52547527159
-0.0987452445806041,2355.53547527159
-0.108942518434329,2355.54547527159
-0.118661290748769,2355.55547527159
-0.127637323760484,2355.56547527159
-0.136267537460845,2355.57547527159
-0.144547328808708,2355.58547527159
-0.153411826740807,2355.59547527159
-0.162704696971238,2355.60547527159
-0.171738954579923,2355.61547527159
-0.17878598856218,2355.62547527159
-0.180532133837797,2355.63547527159
-0.174818912032574,2355.64547527159
-0.157995127383067,2355.65547527159
-0.12811760116609,2355.66547527159
-0.0847037424493525,2355.67547527159
-0.0294995412496127,2355.68547527159
0.0343931726916455,2355.69547527159
0.102258271645538,2355.70547527159
0.169437661192738,2355.71547527159
0.231070657465422,2355.72547527159
0.284145410786296,2355.73547527159
0.326445429086452,2355.74547527159
0.357144000165562,2355.75547527159
0.377490952256915,2355.76547527159
0.388753237055943,2355.77547527159
0.393420180504445,2355.78547527159
0.393307677377351,2355.79547527159
0.388971207865335,2355.80547527159
0.382687304979759,2355.81547527159
0.37543760492279,2355.82547527159
0.368246503275496,2355.83547527159
0.361774257294525,2355.84547527159
0.356488076685532,2355.85547527159
0.352581162137647,2355.86547527159
0.350088108195999,2355.87547527159
0.347859409971143,2355.88547527159
0.344738178644912,2355.89547527159
0.340153753937403,2355.90547527159
0.333512959971419,2355.91547527159
0.326184606306833,2355.92547527159
0.318311942861787,2355.93547527159
0.3107018110184,2355.94547527159
0.304805710536807,2355.95547527159
0.300427734705979,2355.96547527159
0.297665062577309,2355.97547527159
0.296777442809622,2355.98547527159
0.297781113145963,2355.99547527159
0.300521246703209,2356.00547527159
0.305001561967993,2356.01547527159
0.310418007557896,2356.02547527159
0.316245024198308,2356.03547527159
0.32052158414559,2356.04547527159
0.323994656809777,2356.05547527159
0.324738819363971,2356.06547527159
0.323695476699195,2356.07547527159
0.320461804245747,2356.08547527159
0.31546592354537,2356.09547527159
0.308843747934716,2356.10547527159
0.300923768489197,2356.11547527159
0.291276552290557,2356.12547527159
0.281122632124924,2356.13547527159
0.269994655601753,2356.14547527159
0.257994773560782,2356.15547527159
0.245963060961726,2356.16547527159
0.233090876893707,2356.17547527159
0.220379996608768,2356.18547527159
0.208090448008197,2356.19547527159
0.195751062228701,2356.20547527159
0.183531009562993,2356.21547527159
0.171277554559571,2356.22547527159
0.158839670440947,2356.23547527159
0.145727071374643,2356.24547527159
0.132620310356341,2356.25547527159
0.119340194360661,2356.26547527159
0.106379724325957,2356.27547527159
0.0941534173808315,2356.28547527159
0.0816687386942507,2356.29547527159
0.069872107932102,2356.30547527159
0.0581657600806643,2356.31547527159
0.0466978590045365,2356.32547527159
0.03581972901952,2356.33547527159
0.024634419068208,2356.34547527159
0.0144406993047879,2356.35547527159
0.0040192688649765,2356.36547527159
-0.00577485520262695,2356.37547527159
-0.0154905101093533,2356.38547527159
-0.0252888981478798,2356.39547527159
-0.0346767577305173,2356.40547527159
-0.044522238966388,2356.41547527159
-0.0532751591510827,2356.42547527159
-0.0623897154896559,2356.43547527159
-0.0711177799116805,2356.44547527159
-0.0800293842944448,2356.45547527159
-0.0879410472285723,2356.46547527159
-0.0921377828958222,2356.47547527159
-0.0902232673787507,2356.48547527159
-0.0773892365146067,2356.49547527159
-0.0511784364255367,2356.50547527159
-0.0100354324570213,2356.51547527159
0.0460429119094411,2356.52547527159
0.113325889356881,2356.53547527159
0.18838273248559,2356.54547527159
0.265913730650478,2356.55547527159
0.339673934660628,2356.56547527159
0.405973437308667,2356.57547527159
0.461229951569148,2356.58547527159
0.503798096130664,2356.59547527159
0.53393009005636,2356.60547527159
0.55259992134198,2356.61547527159
0.562076478340266,2356.62547527159
0.564485105075695,2356.63547527159
0.56165049590406,2356.64547527159
0.555776413100019,2356.65547527159
0.548421116240326,2356.66547527159
0.541078789074623,2356.67547527159
0.533905753987384,2356.68547527159
0.527310769921173,2356.69547527159
0.521657758386328,2356.70547527159
0.517062632728789,2356.71547527159
0.512492933176333,2356.72547527159
0.508157471484034,2356.73547527159
0.502621155317481,2356.74547527159
0.49630450889095,2356.75547527159
0.48847518445588,2356.76547527159
0.479264232897008,2356.77547527159
0.468818316210784,2356.78547527159
0.457934981845931,2356.79547527159
0.447528666859846,2356.80547527159
0.438378981675894,2356.81547527159
0.431135810435982,2356.82547527159
0.425796194224919,2356.83547527159
0.423135978588041,2356.84547527159
0.422735625831971,2356.85547527159
0.424248811366497,2356.86547527159
0.426392976172024,2356.87547527159
0.428868102259053,2356.88547527159
0.430676949223495,2356.89547527159
0.431261402406529,2356.90547527159
0.430182513122391,2356.91547527159
0.426874775337607,2356.92547527159
0.42211153273669,2356.93547527159
0.415128677959684,2356.94547527159
0.406211950803545,2356.95547527159
0.396710425265115,2356.96547527159
0.385725781473341,2356.97547527159
0.373931084829514,2356.98547527159
0.361294822668479,2356.99547527159
0.347256344383193,2357.00547527159
0.331939792432674,2357.01547527159
0.315938469655137,2357.02547527159
0.30000507013511,2357.03547527159
0.28377542454631,2357.04547527159
0.267688516347672,2357.05547527159
0.25197255477652,2357.06547527159
0.236486794353138,2357.07547527159
0.221260984309468,2357.08547527159
0.20606057764114,2357.09547527159
0.190712591928764,2357.10547527159
0.175922930228137,2357.11547527159
0.160615243417394,2357.12547527159
0.145465278345002,2357.13547527159
0.130429241137422,2357.14547527159
0.115440712386719,2357.15547527159
0.101083902962038,2357.16547527159
0.086491334232709,2357.17547527159
0.0728953026050081,2357.18547527159
0.0594989059103821,2357.19547527159
0.0464315898318155,2357.20547527159
0.0333716203541672,2357.21547527159
0.02077389480159,2357.22547527159
0.00844206646350482,2357.23547527159
-0.00367338234994439,2357.24547527159
-0.0155798942961737,2357.25547527159
-0.027868509167674,2357.26547527159
-0.0405258937491776,2357.27547527159
-0.0528872586491482,2357.28547527159
-0.0648920019448608,2357.29547527159
-0.0765862631514281,2357.30547527159
-0.0883397867763356,2357.31547527159
-0.0989239163271296,2357.32547527159
-0.106363239596355,2357.33547527159
-0.107042486702711,2357.34547527159
-0.0979718554274482,2357.35547527159
-0.0754846628050779,2357.36547527159
-0.0400979004227399,2357.37547527159
0.00752273059006598,2357.38547527159
0.0642552487141643,2357.39547527159
0.12612393273619,2357.40547527159
0.189288148314925,2357.41547527159
0.247578372913144,2357.42547527159
0.297755195492643,2357.43547527159
0.337703468626168,2357.44547527159
0.366095567046299,2357.45547527159
0.383855052564365,2357.46547527159
0.392882635778593,2357.47547527159
0.394819423636435,2357.48547527159
0.39137873198201,2357.49547527159
0.384776743657202,2357.50547527159
0.375867131900956,2357.51547527159
0.366105617768509,2357.52547527159
0.356553794562273,2357.53547527159
0.347623727407123,2357.54547527159
0.340037885966585,2357.55547527159
0.333984851131744,2357.56547527159
0.329354315280311,2357.57547527159
0.325694875423801,2357.58547527159
0.322106273560633,2357.59547527159
0.318132678975707,2357.60547527159
0.312144677445266,2357.61547527159
0.304604876002424,2357.62547527159
0.295126573492445,2357.63547527159
0.285063007834777,2357.64547527159
0.27387343872442,2357.65547527159
0.262919261956043,2357.66547527159
0.251993923302587,2357.67547527159
0.241971221921151,2357.68547527159
0.233033071355495,2357.69547527159
0.22597763545366,2357.70547527159
0.220979183397323,2357.71547527159
0.217381542982779,2357.72547527159
0.214346171183684,2357.73547527159
0.211779759774589,2357.74547527159
0.209236327742212,2357.75547527159
0.20576349615323,2357.76547527159
0.200785983083687,2357.77547527159
0.194366406931165,2357.78547527159
0.186554764295079,2357.79547527159
0.176990605351216,2357.80547527159
0.166255704477975,2357.81547527159
0.154534756823131,2357.82547527159
0.141714646535841,2357.83547527159
0.128643172329387,2357.84547527159
0.114956622367781,2357.85547527159
0.101428477336488,2357.86547527159
0.087312096657709,2357.87547527159
0.0729553780690848,2357.88547527159
0.0580868486986677,2357.89547527159
0.0427823833976764,2357.90547527159
0.0274996707941718,2357.91547527159
0.0121454540930559,2357.92547527159
-0.00316346488626146,2357.93547527159
-0.0183241354533605,2357.94547527159
-0.0336808269203389,2357.95547527159
-0.0492710974982902,2357.96547527159
-0.0649543941773832,2357.97547527159
-0.0800107013242643,2357.98547527159
-0.0946232160205019,2357.99547527159
-0.108873970683091,2358.00547527159
-0.123232095810402,2358.01547527159
-0.137467336622618,2358.02547527159
-0.151307584816303,2358.03547527159
-0.164492716299212,2358.04547527159
-0.177184982848874,2358.05547527159
-0.189573028306733,2358.06547527159
-0.201856723952558,2358.07547527159
-0.214317916984901,2358.08547527159
-0.226964278081789,2358.09547527159
-0.24034143598488,2358.10547527159
-0.2533449319083,2358.11547527159
-0.266678607258269,2358.12547527159
-0.279806449774951,2358.13547527159
-0.292362963554736,2358.14547527159
-0.303564899925605,2358.15547527159
-0.311293696617485,2358.16547527159
-0.313891986136436,2358.17547527159
-0.307774849523111,2358.18547527159
-0.291263608189557,2358.19547527159
-0.265176466450663,2358.20547527159
-0.230728516124242,2358.21547527159
-0.191629142906327,2358.22547527159
-0.151394702974806,2358.23547527159
-0.114132976308677,2358.24547527159
-0.0816250436116116,2358.25547527159
-0.055879994712273,2358.26547527159
-0.0370542425149532,2358.27547527159
-0.0255511444591017,2358.28547527159
-0.0202421977111189,2358.29547527159
-0.0200360137011962,2358.30547527159
-0.0236152764502252,2358.31547527159
-0.0298846876850902,2358.32547527159
-0.0374603157427941,2358.33547527159
-0.0452838717715054,2358.34547527159
-0.0537238285195708,2358.35547527159
-0.0608749907735577,2358.36547527159
-0.0677458909508576,2358.37547527159
-0.0739111707351728,2358.38547527159
-0.0786988428940507,2358.39547527159
-0.0825986702384369,2358.40547527159
-0.0866471003486221,2358.41547527159
-0.0910088514221861,2358.42547527159
-0.0965166349143403,2358.43547527159
-0.103695916073232,2358.44547527159
-0.112295681930364,2358.45547527159
-0.121818361624001,2358.46547527159
-0.131324874627494,2358.47547527159
-0.140436228932427,2358.48547527159
-0.147973199403968,2358.49547527159
-0.154378252134692,2358.50547527159
-0.159425677226271,2358.51547527159
-0.162855433997924,2358.52547527159
-0.165042191839859,2358.53547527159
-0.166927544095295,2358.54547527159
-0.167756964186666,2358.55547527159
-0.168557329449435,2358.56547527159
-0.169516394002945,2358.57547527159
-0.170811361207544,2358.58547527159
-0.173312157076136,2358.59547527159
-0.177711907341404,2358.60547527159
-0.184100569824769,2358.61547527159
-0.192012488342431,2358.62547527159
-0.200829627183756,2358.63547527159
-0.209606685800854,2358.64547527159
-0.218574904257064,2358.65547527159
-0.227243384141107,2358.66547527159
-0.236451559330482,2358.67547527159
-0.246124581033918,2358.68547527159
-0.256063038922466,2358.69547527159
-0.266673086160455,2358.70547527159
-0.277514189195418,2358.71547527159
-0.288679301367542,2358.72547527159
-0.299834932892496,2358.73547527159
-0.311308871990777,2358.74547527159
-0.322376755982404,2358.75547527159
-0.333687968478492,2358.76547527159
-0.344652794728209,2358.77547527159
-0.35543346001212,2358.78547527159
-0.365689090418136,2358.79547527159
-0.375591278600294,2358.80547527159
-0.384586884845412,2358.81547527159
-0.393246539499644,2358.82547527159
-0.401767145907952,2358.83547527159
-0.410791439080532,2358.84547527159
-0.420378475069815,2358.85547527159
-0.430140973604004,2358.86547527159
-0.440481678681385,2358.87547527159
-0.450697743955768,2358.88547527159
-0.460568831211198,2358.89547527159
-0.4700239279942,2358.90547527159
-0.478912236874106,2358.91547527159
-0.487523927579267,2358.92547527159
-0.496110040165449,2358.93547527159
-0.502915302703433,2358.94547527159
-0.506734274661544,2358.95547527159
-0.506069676067392,2358.96547527159
-0.497981063747399,2358.97547527159
-0.481423495271779,2358.98547527159
-0.457198783900756,2358.99547527159
-0.427428981233273,2359.00547527159
-0.3946100393537,2359.01547527159
-0.362567257708943,2359.02547527159
-0.333855232265481,2359.03547527159
-0.311115045889464,2359.04547527159
-0.294944216966409,2359.05547527159
-0.285356549494925,2359.06547527159
-0.282478553880504,2359.07547527159
-0.284007098012765,2359.08547527159
-0.288717791426129,2359.09547527159
-0.29548596465128,2359.10547527159
-0.30264933432893,2359.11547527159
-0.309024227471224,2359.12547527159
-0.314618073136215,2359.13547527159
-0.319491020346195,2359.14547527159
-0.323691805004956,2359.15547527159
-0.327382790508974,2359.16547527159
-0.330472281231643,2359.17547527159
-0.333174848787963,2359.18547527159
-0.334712531836134,2359.19547527159
-0.335794611729335,2359.20547527159
-0.337221204016023,2359.21547527159
-0.33925181643036,2359.22547527159
-0.342343420832085,2359.23547527159
-0.347005226660985,2359.24547527159
-0.352175719089326,2359.25547527159
-0.357148166933559,2359.26547527159
-0.360850563939908,2359.27547527159
-0.363407733669341,2359.28547527159
-0.364484208725472,2359.29547527159
-0.364152124299578,2359.30547527159
-0.363125879704405,2359.31547527159
-0.361084445570616,2359.32547527159
-0.358853954310515,2359.33547527159
-0.356748352418045,2359.34547527159
-0.355241726222566,2359.35547527159
-0.354182586258264,2359.36547527159
-0.353763975074373,2359.37547527159
-0.354557192307986,2359.38547527159
-0.356169402261837,2359.39547527159
-0.359134713515307,2359.40547527159
-0.363130960044901,2359.41547527159
-0.367635031324054,2359.42547527159
-0.372679392648915,2359.43547527159
-0.378319426848613,2359.44547527159
-0.383698853341876,2359.45547527159
-0.389891474614793,2359.46547527159
-0.395873122528735,2359.47547527159
-0.402249577687545,2359.48547527159
-0.408809453123303,2359.49547527159
-0.415334270477278,2359.50547527159
-0.421286895214551,2359.51547527159
-0.427184065022649,2359.52547527159
-0.433631135926542,2359.53547527159
-0.440561572593302,2359.54547527159
-0.447992379987941,2359.55547527159
-0.455741593264435,2359.56547527159
-0.462936238447078,2359.57547527159
-0.46953851691497,2359.58547527159
-0.475298335596915,2359.59547527159
-0.480466894998408,2359.60547527159
-0.485436566145208,2359.61547527159
-0.490380659615012,2359.62547527159
-0.496039930029099,2359.63547527159
-0.502268377147192,2359.64547527159
-0.509040634813004,2359.65547527159
-0.51536253176498,2359.66547527159
-0.521173217773947,2359.67547527159
-0.526650024368088,2359.68547527159
-0.532371050204596,2359.69547527159
-0.537849556255567,2359.70547527159
-0.542853630034737,2359.71547527159
-0.546146271718296,2359.72547527159
-0.545964206434476,2359.73547527159
-0.540080287334347,2359.74547527159
-0.52701591953672,2359.75547527159
-0.505684374119167,2359.76547527159
-0.477556636940417,2359.77547527159
-0.444896233614715,2359.78547527159
-0.410975953436383,2359.79547527159
-0.37856843413386,2359.80547527159
-0.351167106269642,2359.81547527159
-0.330959010519466,2359.82547527159
-0.317277868402772,2359.83547527159
-0.310357389396965,2359.84547527159
-0.308878814863596,2359.85547527159
-0.310966976790836,2359.86547527159
-0.315470755364484,2359.87547527159
-0.32129392050921,2359.88547527159
-0.327167574089782,2359.89547527159
-0.332504366791649,2359.90547527159
-0.33704143312272,2359.91547527159
-0.340480926497249,2359.92547527159
-0.342520812593898,2359.93547527159
-0.342838535308304,2359.94547527159
-0.341370912058279,2359.95547527159
-0.33876919775142,2359.96547527159
-0.335632673566853,2359.97547527159
-0.332735536253577,2359.98547527159
-0.330584712824052,2359.99547527159
-0.329669166663573,2360.00547527159
-0.330950090672948,2360.01547527159
-0.334119239142274,2360.02547527159
-0.338165126720459,2360.03547527159
-0.342345862740827,2360.04547527159
-0.345691321793543,2360.05547527159
-0.347539903810326,2360.06547527159
-0.348112640573368,2360.07547527159
-0.347609888283618,2360.08547527159
-0.346691675551832,2360.09547527159
-0.344738821174291,2360.10547527159
-0.341934101393554,2360.11547527159
-0.338692941437799,2360.12547527159
-0.335446110264918,2360.13547527159
-0.332538871050651,2360.14547527159
-0.330166319908763,2360.15547527159
-0.329225598356426,2360.16547527159
-0.32906284004808,2360.17547527159
-0.330244176510192,2360.18547527159
-0.332355200530305,2360.19547527159
-0.335947393943568,2360.20547527159
-0.339926562091972,2360.21547527159
-0.344527492936583,2360.22547527159
-0.349021138533598,2360.23547527159
-0.353940409572788,2360.24547527159
-0.358857571991586,2360.25547527159
-0.363867198130606,2360.26547527159
-0.369051404684799,2360.27547527159
-0.374129876058314,2360.28547527159
-0.379532529271828,2360.29547527159
-0.384594544221485,2360.30547527159
-0.389398750022856,2360.31547527159
-0.394444709955611,2360.32547527159
-0.399167440523785,2360.33547527159
-0.404328521871452,2360.34547527159
-0.409763281712858,2360.35547527159
-0.414893813250725,2360.36547527159
-0.420130646061216,2360.37547527159
-0.425213140751542,2360.38547527159
-0.43030913610266,2360.39547527159
-0.436010446996543,2360.40547527159
-0.441811321358889,2360.41547527159
-0.447843329608142,2360.42547527159
-0.453581397198303,2360.43547527159
-0.458891267036564,2360.44547527159
-0.464523370960142,2360.45547527159
-0.469799280985737,2360.46547527159
-0.474859217371627,2360.47547527159
-0.479716010912761,2360.48547527159
-0.484340202614208,2360.49547527159
-0.488307213068451,2360.50547527159
-0.490301741675517,2360.51547527159
-0.489089011336348,2360.52547527159
-0.482160479949984,2360.53547527159
-0.467806075600908,2360.54547527159
-0.44554243871904,2360.55547527159
-0.416108218189283,2360.56547527159
-0.382059882721466,2360.57547527159
-0.346881318394226,2360.58547527159
-0.314230300941069,2360.59547527159
-0.286475773554665,2360.60547527159
-0.265032156308512,2360.61547527159
-0.251528963595108,2360.62547527159
-0.245516709809136,2360.63547527159
-0.245425676407613,2360.64547527159
-0.249520791202783,2360.65547527159
-0.256170404516598,2360.66547527159
-0.262462838044278,2360.67547527159
-0.268391325746847,2360.68547527159
-0.272447099001241,2360.69547527159
-0.274677505872239,2360.70547527159
-0.275483433992526,2360.71547527159
-0.274802744467708,2360.72547527159
-0.273447427611092,2360.73547527159
-0.271198929044153,2360.74547527159
-0.268439250879069,2360.75547527159
-0.26576419828291,2360.76547527159
-0.263606928602136,2360.77547527159
-0.262329635134936,2360.78547527159
-0.263296331972777,2360.79547527159
-0.265009272040899,2360.80547527159
-0.267547353471687,2360.81547527159
-0.270569249685344,2360.82547527159
-0.273651062015048,2360.83547527159
-0.276586382427493,2360.84547527159
-0.278583219676194,2360.85547527159
-0.279335018070552,2360.86547527159
-0.277939068053222,2360.87547527159
-0.275698799925329,2360.88547527159
-0.272830072988674,2360.89547527159
-0.269753399198413,2360.90547527159
-0.266621913890065,2360.91547527159
-0.263734851347626,2360.92547527159
-0.261275167425845,2360.93547527159
-0.2603229522571,2360.94547527159
-0.260048435732602,2360.95547527159
-0.261480105026389,2360.96547527159
-0.26360389571245,2360.97547527159
-0.267040302962943,2360.98547527159
-0.271212564849278,2360.99547527159
-0.275419024213703,2361.00547527159
-0.280043201486988,2361.01547527159
-0.284749861245509,2361.02547527159
-0.289668662261974,2361.03547527159
-0.295415105254236,2361.04547527159
-0.301052292057592,2361.05547527159
-0.307189055543421,2361.06547527159
-0.312119164606799,2361.07547527159
-0.316812375095644,2361.08547527159
-0.321203791461751,2361.09547527159
-0.32521221086085,2361.10547527159
-0.330075744390053,2361.11547527159
-0.335244359003908,2361.12547527159
-0.340666421042827,2361.13547527159
-0.346160699924153,2361.14547527159
-0.351049505997609,2361.15547527159
-0.355956657898518,2361.16547527159
-0.360184273684735,2361.17547527159
-0.364054189352673,2361.18547527159
-0.368017496720962,2361.19547527159
-0.3723719830745,2361.20547527159
-0.377103830172822,2361.21547527159
-0.381902822227192,2361.22547527159
-0.387174057366605,2361.23547527159
-0.392259298493365,2361.24547527159
-0.397609414660309,2361.25547527159
-0.40302864738654,2361.26547527159
-0.408434891166792,2361.27547527159
-0.414693283188141,2361.28547527159
-0.420361677057766,2361.29547527159
-0.426162838722701,2361.30547527159
-0.431505833584512,2361.31547527159
-0.434615413241105,2361.32547527159
-0.434054701673023,2361.33547527159
-0.427524248501355,2361.34547527159
-0.413606712990139,2361.35547527159
-0.391410266550448,2361.36547527159
-0.362362744226082,2361.37547527159
-0.328762619819749,2361.38547527159
-0.293863288969163,2361.39547527159
-0.260944151378289,2361.40547527159
-0.233019450758796,2361.41547527159
-0.210896470595202,2361.42547527159
-0.195734948202974,2361.43547527159
-0.187264039456661,2361.44547527159
-0.183696381207785,2361.45547527159
-0.184322630340938,2361.46547527159
-0.187406462676335,2361.47547527159
-0.191971972247413,2361.48547527159
-0.196783688241968,2361.49547527159
-0.200889222766106,2361.50547527159
-0.203668225209369,2361.51547527159
-0.205149677459598,2361.52547527159
-0.205298369218122,2361.53547527159
-0.204225443221577,2361.54547527159
-0.202275723458748,2361.55547527159
-0.200068247616834,2361.56547527159
-0.198535630825191,2361.57547527159
-0.197420966584754,2361.58547527159
-0.197274597397735,2361.59547527159
-0.197816269495944,2361.60547527159
-0.199406567141738,2361.61547527159
-0.202343124964353,2361.62547527159
-0.205381724272308,2361.63547527159
-0.209186426351838,2361.64547527159
-0.211847955232007,2361.65547527159
-0.213409579125966,2361.66547527159
-0.213406817995366,2361.67547527159
-0.212240433803952,2361.68547527159
-0.21017268604979,2361.69547527159
-0.207279471903351,2361.70547527159
-0.204574136502167,2361.71547527159
-0.202189790554653,2361.72547527159
-0.200879869202058,2361.73547527159
-0.200067059240493,2361.74547527159
-0.200209727414295,2361.75547527159
-0.200994499358707,2361.76547527159
-0.202343828655785,2361.77547527159
-0.204171316262594,2361.78547527159
-0.207068392535679,2361.79547527159
-0.210302375751958,2361.80547527159
-0.214167562911719,2361.81547527159
-0.218288886554751,2361.82547527159
-0.221911497655174,2361.83547527159
-0.225934040324109,2361.84547527159
-0.229972468502925,2361.85547527159
-0.234364579646147,2361.86547527159
-0.238658784691625,2361.87547527159
-0.243048338496584,2361.88547527159
-0.247956899863014,2361.89547527159
-0.253060205414604,2361.90547527159
-0.258609397780633,2361.91547527159
-0.264503751318953,2361.92547527159
-0.269846175415908,2361.93547527159
-0.275252412722627,2361.94547527159
-0.280873216041996,2361.95547527159
-0.2859727098688,2361.96547527159
-0.291504680699427,2361.97547527159
-0.297040380167607,2361.98547527159
-0.30225000822225,2361.99547527159
-0.307562888676596,2362.00547527159
-0.312503770534259,2362.01547527159
-0.317085042671279,2362.02547527159
-0.321734560221021,2362.03547527159
-0.326057946188716,2362.04547527159
-0.330307541807071,2362.05547527159
-0.334987400112708,2362.06547527159
-0.340178531645861,2362.07547527159
-0.345666705490833,2362.08547527159
-0.351273826773836,2362.09547527159
-0.357612913244311,2362.10547527159
-0.363324774723961,2362.11547527159
-0.369381084923233,2362.12547527159
-0.374749803216235,2362.13547527159
-0.379137504028668,2362.14547527159
-0.381839960148031,2362.15547527159
-0.380350180071987,2362.16547527159
-0.372594595954784,2362.17547527159
-0.357030383993336,2362.18547527159
-0.333100684968218,2362.19547527159
-0.302017732203392,2362.20547527159
-0.266235253575624,2362.21547527159
-0.22961894583684,2362.22547527159
-0.195355826660873,2362.23547527159
-0.16620061883693,2362.24547527159
-0.14383809291626,2362.25547527159
-0.128448522457993,2362.26547527159
-0.12069059108337,2362.27547527159
-0.118290312862529,2362.28547527159
-0.120524021694191,2362.29547527159
-0.125266469630071,2362.30547527159
-0.130781625984086,2362.31547527159
-0.136751746919272,2362.32547527159
-0.141831392710589,2362.33547527159
-0.145558621323448,2362.34547527159
-0.148620669379734,2362.35547527159
-0.150021985242935,2362.36547527159
-0.150337611686717,2362.37547527159
-0.149396843976492,2362.38547527159
-0.147865174224931,2362.39547527159
-0.146578842015446,2362.40547527159
-0.145445331021461,2362.41547527159
-0.145247198313527,2362.42547527159
-0.147098581560008,2362.43547527159
-0.14934053511791,2362.44547527159
-0.152425958217058,2362.45547527159
-0.154936928870608,2362.46547527159
-0.156824394379884,2362.47547527159
-0.15753022735342,2362.48547527159
-0.155993655477275,2362.49547527159
-0.152613681059603,2362.50547527159
-0.14811709697462,2362.51547527159
-0.142446154081921,2362.52547527159
-0.136858671035032,2362.53547527159
-0.131197626196654,2362.54547527159
-0.126410873024497,2362.55547527159
-0.122779459047428,2362.56547527159
-0.12034584700021,2362.57547527159
-0.119514127388913,2362.58547527159
-0.119728979719555,2362.59547527159
-0.120668031561976,2362.60547527159
-0.122476021911916,2362.61547527159
-0.125116673101642,2362.62547527159
-0.128243999269288,2362.63547527159
-0.132719075727502,2362.64547527159
-0.137124537827607,2362.65547527159
-0.141913120098033,2362.66547527159
-0.146816429784339,2362.67547527159
-0.151302562919265,2362.68547527159
-0.155414158972521,2362.69547527159
-0.159574793888223,2362.70547527159
-0.16384523897094,2362.71547527159
-0.168593808509855,2362.72547527159
-0.173578045549022,2362.73547527159
-0.178813521817023,2362.74547527159
-0.183689534611048,2362.75547527159
-0.188276090111242,2362.76547527159
-0.19287622572595,2362.77547527159
-0.197610973358974,2362.78547527159
-0.202470921276988,2362.79547527159
-0.207394487129995,2362.80547527159
-0.212600996244586,2362.81547527159
-0.218117760937581,2362.82547527159
-0.223519537868535,2362.83547527159
-0.227851892244742,2362.84547527159
-0.231782606700328,2362.85547527159
-0.235714180367958,2362.86547527159
-0.239262071365275,2362.87547527159
-0.242799687173109,2362.88547527159
-0.246434489364349,2362.89547527159
-0.250680592986123,2362.90547527159
-0.254809085883354,2362.91547527159
-0.259112597556274,2362.92547527159
-0.263375473185516,2362.93547527159
-0.266104303960484,2362.94547527159
-0.265121589363436,2362.95547527159
-0.257925380553362,2362.96547527159
-0.241919892090311,2362.97547527159
-0.217548402392782,2362.98547527159
-0.185658277142979,2362.99547527159
-0.148611965847268,2363.00547527159
-0.109856461516665,2363.01547527159
-0.0717428828508951,2363.02547527159
-0.0371396579342488,2363.03547527159
-0.00901049291359697,2363.04547527159
0.0119111128234859,2363.05547527159
0.0249794355206107,2363.06547527159
0.0310758874232759,2363.07547527159
0.0318309597960406,2363.08547527159
0.0291205246127352,2363.09547527159
0.0245704193010517,2363.10547527159
0.0189404599785941,2363.11547527159
0.0136143536699364,2363.12547527159
0.00974473826446876,2363.13547527159
0.00727283371464141,2363.14547527159
0.00717675656146571,2363.15547527159
0.0088613402622496,2363.16547527159
0.0119823947854954,2363.17547527159
0.0156182735236015,2363.18547527159
0.0190483689768644,2363.19547527159
0.0216998267344159,2363.20547527159
0.0232072681931784,2363.21547527159
0.0233411504891402,2363.22547527159
0.0216982818977295,2363.23547527159
0.0194896621738451,2363.24547527159
0.017025366752434,2363.25547527159
0.0147181689360854,2363.26547527159
0.0138334274673545,2363.27547527159
0.0142369221446873,2363.28547527159
0.016290541401901,2363.29547527159
0.0196340001828749,2363.30547527159
0.0245733841575196,2363.31547527159
0.0309016500819809,2363.32547527159
0.0372545378261301,2363.33547527159
0.0436101495121957,2363.34547527159
0.0489627996673933,2363.35547527159
0.0526101480885144,2363.36547527159
0.054534285171634,2363.37547527159
0.0549243906081689,2363.38547527159
0.0537559282068196,2363.39547527159
0.0517580350185864,2363.40547527159
0.0496834925303734,2363.41547527159
0.0467914986988227,2363.42547527159
0.0425715747443182,2363.43547527159
0.0378892806356815,2363.44547527159
0.0322995341836247,2363.45547527159
0.0268643764412603,2363.46547527159
0.0211908402391973,2363.47547527159
0.0151668395694445,2363.48547527159
0.00895857839716728,2363.49547527159
0.00252075861216303,2363.50547527159
-0.00380283871990082,2363.51547527159
-0.00969807608962252,2363.52547527159
-0.0158885559949642,2363.53547527159
-0.0222930915245841,2363.54547527159
-0.0285207861386436,2363.55547527159
-0.0355132035174756,2363.56547527159
-0.0426029901474138,2363.57547527159
-0.0493401707072538,2363.58547527159
-0.0554097267916866,2363.59547527159
-0.0610819931603464,2363.60547527159
-0.0660289802287683,2363.61547527159
-0.0706683759932483,2363.62547527159
-0.075115142259943,2363.63547527159
-0.0798118307460246,2363.64547527159
-0.0852313493714926,2363.65547527159
-0.090335498488634,2363.66547527159
-0.0957792327336338,2363.67547527159
-0.101471518811709,2363.68547527159
-0.107756237620014,2363.69547527159
-0.113703651651251,2363.70547527159
-0.120119600958582,2363.71547527159
-0.125549254409715,2363.72547527159
-0.128214039327884,2363.73547527159
-0.125958004191598,2363.74547527159
-0.116080025080433,2363.75547527159
-0.0965892873588613,2363.76547527159
-0.0673558432454947,2363.77547527159
-0.0295311390106587,2363.78547527159
0.0144499046867451,2363.79547527159
0.0599750250755316,2363.80547527159
0.103646018728603,2363.81547527159
0.14242815729917,2363.82547527159
0.173823777689584,2363.83547527159
0.196606478218775,2363.84547527159
0.210605429198277,2363.85547527159
0.217384336022689,2363.86547527159
0.218168601784636,2363.87547527159
0.215850864653019,2363.88547527159
0.211603470263909,2363.89547527159
0.207305932135282,2363.90547527159
0.203144313212006,2363.91547527159
0.200250257408854,2363.92547527159
0.198762910142263,2363.93547527159
0.198007752132673,2363.94547527159
0.198959657131139,2363.95547527159
0.201950750204597,2363.96547527159
0.205687663341814,2363.97547527159
0.210045250463465,2363.98547527159
0.214371142551977,2363.99547527159
0.217440377103243,2364.00547527159
0.219620847721898,2364.01547527159
0.219973844696432,2364.02547527159
0.218246013227917,2364.03547527159
0.214811149438133,2364.04547527159
0.210838661776341,2364.05547527159
0.207188706308954,2364.06547527159
0.204736768358566,2364.07547527159
0.203947699408746,2364.08547527159
0.204920166184778,2364.09547527159
0.207297049232548,2364.10547527159
0.210678569885704,2364.11547527159
0.21479295515061,2364.12547527159
0.218940193617645,2364.13547527159
0.222460272019467,2364.14547527159
0.225881052429064,2364.15547527159
0.228194041800502,2364.16547527159
0.228339482615727,2364.17547527159
0.226612415384687,2364.18547527159
0.223521256535806,2364.19547527159
0.219380597633678,2364.20547527159
0.214580956189946,2364.21547527159
0.209155872358731,2364.22547527159
0.203071808280215,2364.23547527159
0.196699379945521,2364.24547527159
0.189733848760297,2364.25547527159
0.183011764972871,2364.26547527159
0.176328845964346,2364.27547527159
0.170150668585319,2364.28547527159
0.163669370666395,2364.29547527159
0.157176598267319,2364.30547527159
0.149975962056114,2364.31547527159
0.142457651276679,2364.32547527159
0.135542714191987,2364.33547527159
0.128445969057446,2364.34547527159
0.122216949486817,2364.35547527159
0.115439178880315,2364.36547527159
0.108541441397257,2364.37547527159
0.10109904984626,2364.38547527159
0.0931149580520333,2364.39547527159
0.0855646842456051,2364.40547527159
0.0782969888925654,2364.41547527159
0.0717305074554278,2364.42547527159
0.0655187114692334,2364.43547527159
0.0599146612079277,2364.44547527159
0.0540717187071161,2364.45547527159
0.0482964373664869,2364.46547527159
0.0420945405172406,2364.47547527159
0.0357992324436688,2364.48547527159
0.0296074960958894,2364.49547527159
0.0234100950114864,2364.50547527159
0.0170349324318101,2364.51547527159
0.0101339013585849,2364.52547527159
0.00311007152622085,2364.53547527159
-0.00361359916363712,2364.54547527159
-0.0100185379485341,2364.55547527159
-0.014782190131739,2364.56547527159
-0.0160635732807689,2364.57547527159
-0.0106102542750227,2364.58547527159
0.00330978378463986,2364.59547527159
0.0277403938051376,2364.60547527159
0.0623123135645044,2364.61547527159
0.104984262584,2364.62547527159
0.153651587145995,2364.63547527159
0.202683115609777,2364.64547527159
0.248423631442491,2364.65547527159
0.286884118349789,2364.66547527159
0.31637609559515,2364.67547527159
0.336427622685854,2364.68547527159
0.347768084569831,2364.69547527159
0.35195231756802,2364.70547527159
0.35084620249863,2364.71547527159
0.34626238521934,2364.72547527159
0.340213496779058,2364.73547527159
0.334058870465172,2364.74547527159
0.328815308089448,2364.75547527159
0.325538357644794,2364.76547527159
0.323319487649938,2364.77547527159
0.322866712077929,2364.78547527159
0.323863438277713,2364.79547527159
0.32634230303451,2364.80547527159
0.329346297531526,2364.81547527159
0.33302059699308,2364.82547527159
0.335362702455899,2364.83547527159
0.335606468663436,2364.84547527159
0.333669026456453,2364.85547527159
0.32916559125593,2364.86547527159
0.323254185918117,2364.87547527159
0.317058652077731,2364.88547527159
0.311382411893283,2364.89547527159
0.306821312217276,2364.90547527159
0.304180232202335,2364.91547527159
0.302891474708096,2364.92547527159
0.302984263396775,2364.93547527159
0.303812512236855,2364.94547527159
0.30542102680773,2364.95547527159
0.30820656896924,2364.96547527159
0.311203238947994,2364.97547527159
0.31378691565866,2364.98547527159
0.315582796887634,2364.99547527159
0.315956615950966,2365.00547527159
0.314852664482197,2365.01547527159
0.312834957567242,2365.02547527159
0.309153608253736,2365.03547527159
0.304855142409041,2365.04547527159
0.298890128543644,2365.05547527159
0.292185081098066,2365.06547527159
0.284696596584487,2365.07547527159
0.277442118949182,2365.08547527159
0.269679381664722,2365.09547527159
0.262201097865253,2365.10547527159
0.25431349893471,2365.11547527159
0.245424143245079,2365.12547527159
0.236498713474944,2365.13547527159
0.227224561384899,2365.14547527159
0.219043112062081,2365.15547527159
0.210598501730484,2365.16547527159
0.202344064923699,2365.17547527159
0.193708543611888,2365.18547527159
0.185394568437226,2365.19547527159
0.1770904054526,2365.20547527159
0.169176099548789,2365.21547527159
0.161353954170739,2365.22547527159
0.153568140287743,2365.23547527159
0.145770235383503,2365.24547527159
0.137702948934387,2365.25547527159
0.129306692364859,2365.26547527159
0.121131669815323,2365.27547527159
0.11323097058888,2365.28547527159
0.105340224053549,2365.29547527159
0.0982854746213605,2365.30547527159
0.0913283002832994,2365.31547527159
0.0849192124566529,2365.32547527159
0.0787607228065808,2365.33547527159
0.0721468183440398,2365.34547527159
0.0655291989503118,2365.35547527159
0.0588045109864789,2365.36547527159
0.0515142899619595,2365.37547527159
0.0438287346827606,2365.38547527159
0.0356696126306072,2365.39547527159
0.0271135434377464,2365.40547527159
0.01827323547163,2365.41547527159
0.0108090204529854,2365.42547527159
0.00732413000543705,2365.43547527159
0.0110285870733375,2365.44547527159
0.0249151406478349,2365.45547527159
0.0503145541296702,2365.46547527159
0.0865736860888665,2365.47547527159
0.131579843240831,2365.48547527159
0.182023539061883,2365.49547527159
0.233487302759188,2365.50547527159
0.281635017888213,2365.51547527159
0.323391638176775,2365.52547527159
0.35625320385079,2365.53547527159
0.379385872733088,2365.54547527159
0.393624882751252,2365.55547527159
0.400188890913924,2365.56547527159
0.400725706683642,2365.57547527159
0.397398992218341,2365.58547527159
0.391320799654619,2365.59547527159
0.383889216550626,2365.60547527159
0.376823651827649,2365.61547527159
0.370943096212949,2365.62547527159
0.366167488561604,2365.63547527159
0.362307767878856,2365.64547527159
0.36021394825643,2365.65547527159
0.359298905337299,2365.66547527159
0.359505289141737,2365.67547527159
0.360636766194401,2365.68547527159
0.360889340836583,2365.69547527159
0.359694953860592,2365.70547527159
0.356895602562405,2365.71547527159
0.351933743113271,2365.72547527159
0.345049577564192,2365.73547527159
0.33759880284998,2365.74547527159
0.330079778662424,2365.75547527159
0.323309514846331,2365.76547527159
0.31854515360504,2365.77547527159
0.31540423264351,2365.78547527159
0.31480355977508,2365.79547527159
0.315631335765357,2365.80547527159
0.317995642639303,2365.81547527159
0.32098293318841,2365.82547527159
0.324361480898126,2365.83547527159
0.326622709514399,2365.84547527159
0.327757261584336,2365.85547527159
0.327295509520968,2365.86547527159
0.324410509326992,2365.87547527159
0.320322414523458,2365.88547527159
0.315160271554697,2365.89547527159
0.309223944953781,2365.90547527159
0.302852190079455,2365.91547527159
0.295745124050845,2365.92547527159
0.288196377053749,2365.93547527159
0.280356143128325,2365.94547527159
0.271832973573442,2365.95547527159
0.262538684444846,2365.96547527159
0.252823156778276,2365.97547527159
0.243604439646813,2365.98547527159
0.234241381025458,2365.99547527159
0.224826607593682,2366.00547527159
0.215583276387789,2366.01547527159
0.206317699656955,2366.02547527159
0.197178133714337,2366.03547527159
0.187992786273849,2366.04547527159
0.178585454921613,2366.05547527159
0.169371119247594,2366.06547527159
0.16000986502119,2366.07547527159
0.150294660762001,2366.08547527159
0.140868950212258,2366.09547527159
0.131659244507732,2366.10547527159
0.122906003155296,2366.11547527159
0.113985413659405,2366.12547527159
0.105356021683719,2366.13547527159
0.0974482937279092,2366.14547527159
0.0894518852185702,2366.15547527159
0.0820393973332033,2366.16547527159
0.0752168093800891,2366.17547527159
0.0683794266257267,2366.18547527159
0.0615580909090527,2366.19547527159
0.0543634691536627,2366.20547527159
0.046659777660386,2366.21547527159
0.0379813153833807,2366.22547527159
0.0292751263124002,2366.23547527159
0.0212486918858392,2366.24547527159
0.0132475001413987,2366.25547527159
0.00623052956635292,2366.26547527159
0.000967279804699944,2366.27547527159
0.000436145633946363,2366.28547527159
0.00661758892737109,2366.29547527159
0.0228265368950477,2366.30547527159
0.0499590389936945,2366.31547527159
0.0877304973044742,2366.32547527159
0.135349042619928,2366.33547527159
0.187540865966214,2366.34547527159
0.240314767239851,2366.35547527159
0.289521317273774,2366.36547527159
0.331886834229402,2366.37547527159
0.364704328497575,2366.38547527159
0.388181652456094,2366.39547527159
0.40244148087497,2366.40547527159
0.408919759539205,2366.41547527159
0.409307971049949,2366.42547527159
0.405486683855183,2366.43547527159
0.399790970511277,2366.44547527159
0.392551225093167,2366.45547527159
0.384545897086752,2366.46547527159
0.377016300719757,2366.47547527159
0.369446953574336,2366.48547527159
0.363171852654835,2366.49547527159
0.358196287480771,2366.50547527159
0.354676433906288,2366.51547527159
0.351987348981042,2366.52547527159
0.349714192030843,2366.53547527159
0.347277065090886,2366.54547527159
0.343504123681214,2366.55547527159
0.338579654067143,2366.56547527159
0.332617208676378,2366.57547527159
0.325965486056673,2366.58547527159
0.319346981240727,2366.59547527159
0.313854400452439,2366.60547527159
0.309922467185256,2366.61547527159
0.308028660192195,2366.62547527159
0.308203644959609,2366.63547527159
0.309690430002989,2366.64547527159
0.312142927099867,2366.65547527159
0.315431498451635,2366.66547527159
0.318889899951384,2366.67547527159
0.322939302187789,2366.68547527159
0.326301790767889,2366.69547527159
0.328255429803457,2366.70547527159
0.328821749241699,2366.71547527159
0.327545120903214,2366.72547527159
0.324156629477978,2366.73547527159
0.318932317550141,2366.74547527159
0.312762080272796,2366.75547527159
0.305440615472975,2366.76547527159
0.297958254493771,2366.77547527159
0.290201429653429,2366.78547527159
0.28169230636057,2366.79547527159
0.27318022959705,2366.80547527159
0.263963011794091,2366.81547527159
0.254426869208496,2366.82547527159
0.245195149619896,2366.83547527159
0.235209291997332,2366.84547527159
0.225683922774665,2366.85547527159
0.215809890942444,2366.86547527159
0.206183684681903,2366.87547527159
0.196412601686425,2366.88547527159
0.186190591513103,2366.89547527159
0.176390128392888,2366.90547527159
0.165984647985679,2366.91547527159
0.155620724971301,2366.92547527159
0.145161588414717,2366.93547527159
0.134294632907388,2366.94547527159
0.123864690631095,2366.95547527159
0.113815972000256,2366.96547527159
0.104124175637369,2366.97547527159
0.0950797066207174,2366.98547527159
0.0862989551119549,2366.99547527159
0.0777379407194493,2367.00547527159
0.0694467168783955,2367.01547527159
0.0608107639981707,2367.02547527159
0.0519985893889693,2367.03547527159
0.0429847947929087,2367.04547527159
0.0345366216137586,2367.05547527159
0.0282241793687251,2367.06547527159
0.027141153438881,2367.07547527159
0.0337089531834826,2367.08547527159
0.0519449854158073,2367.09547527159
0.0826182869338291,2367.10547527159
0.125547023508754,2367.11547527159
0.178240546197168,2367.12547527159
0.235720807804158,2367.13547527159
0.294274459359955,2367.14547527159
0.349318896106752,2367.15547527159
0.397158142983256,2367.16547527159
0.435305687947661,2367.17547527159
0.463435402523494,2367.18547527159
0.481602066813728,2367.19547527159
0.491769923016361,2367.20547527159
0.495425661597746,2367.21547527159
0.494032356034702,2367.22547527159
0.489026270636252,2367.23547527159
0.481945367328798,2367.24547527159
0.474433920455386,2367.25547527159
0.467220252970329,2367.26547527159
0.461381105566957,2367.27547527159
0.457088469229341,2367.28547527159
0.454693359494622,2367.29547527159
0.453884156703724,2367.30547527159
0.453632092849286,2367.31547527159
0.45282943751981,2367.32547527159
0.45077120057362,2367.33547527159
0.446811204942816,2367.34547527159
0.4412786410614,2367.35547527159
0.433887091003605,2367.36547527159
0.425187486213341,2367.37547527159
0.416157573445427,2367.38547527159
0.407490463998065,2367.39547527159
0.400793507519072,2367.40547527159
0.39592338720681,2367.41547527159
0.392905389281971,2367.42547527159
0.390944104835663,2367.43547527159
0.389659328443525,2367.44547527159
0.389957739924403,2367.45547527159
0.391438921296176,2367.46547527159
0.392962481798731,2367.47547527159
0.394562640080482,2367.48547527159
0.395646281399745,2367.49547527159
0.395201085013665,2367.50547527159
0.393561821051918,2367.51547527159
0.390438444364798,2367.52547527159
0.385994889879868,2367.53547527159
0.379719642741992,2367.54547527159
0.37265506772224,2367.55547527159
0.364006575304091,2367.56547527159
0.353907646953198,2367.57547527159
0.343542151076043,2367.58547527159
0.3324323425772,2367.59547527159
0.321101842099721,2367.60547527159
0.309309851307916,2367.61547527159
0.297241590529313,2367.62547527159
0.284787586808203,2367.63547527159
0.272134059493881,2367.64547527159
0.259750311579681,2367.65547527159
0.247402735098981,2367.66547527159
0.234574394293703,2367.67547527159
0.22235268145359,2367.68547527159
0.210979510138207,2367.69547527159
0.200004595321216,2367.70547527159
0.189011175047913,2367.71547527159
0.178576027901471,2367.72547527159
0.167533556100423,2367.73547527159
0.156563308411168,2367.74547527159
0.145757814165196,2367.75547527159
0.135417741996021,2367.76547527159
0.125190918904573,2367.77547527159
0.115288020033398,2367.78547527159
0.106057158474885,2367.79547527159
0.0964130041601752,2367.80547527159
0.0865987901209308,2367.81547527159
0.0770162639796851,2367.82547527159
0.0673316823654166,2367.83547527159
0.0576449917503367,2367.84547527159
0.048591854284155,2367.85547527159
0.0417991318768052,2367.86547527159
0.0413297560749395,2367.87547527159
0.0501534830716893,2367.88547527159
0.0711660199982251,2367.89547527159
0.105779916441013,2367.90547527159
0.1530414686548,2367.91547527159
0.210446120719963,2367.92547527159
0.272835944173109,2367.93547527159
0.335948058358025,2367.94547527159
0.395031795671185,2367.95547527159
0.44585076217004,2367.96547527159
0.486462088904938,2367.97547527159
0.515673917612227,2367.98547527159
0.533971359010772,2367.99547527159
0.542672222547818,2368.00547527159
0.544516907110418,2368.01547527159
0.5410002639068,2368.02547527159
0.534384868065338,2368.03547527159
0.526713336872222,2368.04547527159
0.518228668080725,2368.05547527159
0.510247551567408,2368.06547527159
0.503058501282713,2368.07547527159
0.497488951257374,2368.08547527159
0.493242805903239,2368.09547527159
0.490176763358225,2368.10547527159
0.487171707028379,2368.11547527159
0.484464858211034,2368.12547527159
0.480236821551171,2368.13547527159
0.473693527531979,2368.14547527159
0.465212217509742,2368.15547527159
0.454876835948592,2368.16547527159
0.444576033118232,2368.17547527159
0.434228382181468,2368.18547527159
0.425262147648173,2368.19547527159
0.418547782934952,2368.20547527159
0.413742660875268,2368.21547527159
0.411418020416209,2368.22547527159
0.41085238749544,2368.23547527159
0.411068526323916,2368.24547527159
0.411891309837035,2368.25547527159
0.412089257475718,2368.26547527159
0.411824779244657,2368.27547527159
0.410408969049999,2368.28547527159
0.40850224902663,2368.29547527159
0.406191959139127,2368.30547527159
0.402868029343653,2368.31547527159
0.398362394769202,2368.32547527159
0.392666948010966,2368.33547527159
0.38520650331768,2368.34547527159
0.376362460497806,2368.35547527159
0.366198067462132,2368.36547527159
0.354889464996641,2368.37547527159
0.343646289430578,2368.38547527159
0.331765384961454,2368.39547527159
0.319683753037132,2368.40547527159
0.307816704500015,2368.41547527159
0.295258426353711,2368.42547527159
0.282510025199827,2368.43547527159
0.269066511363779,2368.44547527159
0.255180343874066,2368.45547527159
0.241924620977455,2368.46547527159
0.228173206214712,2368.47547527159
0.214257365412186,2368.48547527159
0.200589100704497,2368.49547527159
0.187048380850832,2368.50547527159
0.173925285753763,2368.51547527159
0.160935928948008,2368.52547527159
0.148027877284878,2368.53547527159
0.135072611002386,2368.54547527159
0.1223518629557,2368.55547527159
0.109949012776895,2368.56547527159
0.0975747471046248,2368.57547527159
0.0856260332910328,2368.58547527159
0.0749752453984796,2368.59547527159
0.0647111930639343,2368.60547527159
0.0541251267712173,2368.61547527159
0.0435878454060135,2368.62547527159
0.0328014496310226,2368.63547527159
0.0216586043379616,2368.64547527159
0.0105472184721182,2368.65547527159
-0.000676633341285555,2368.66547527159
-0.0106836328003979,2368.67547527159
-0.0182941313254792,2368.68547527159
-0.0203938999197055,2368.69547527159
-0.0138107408169823,2368.70547527159
0.00465625553438487,2368.71547527159
0.0370304403337618,2368.72547527159
0.0823588456588284,2368.73547527159
0.137299514276633,2368.74547527159
0.19840964060963,2368.75547527159
0.259513666545349,2368.76547527159
0.316350684606338,2368.77547527159
0.364928070865324,2368.78547527159
0.401774548862191,2368.79547527159
0.426990199229857,2368.80547527159
0.441172694531594,2368.81547527159
0.445911650237671,2368.82547527159
0.443661858104875,2368.83547527159
0.437124381408136,2368.84547527159
0.428024854670684,2368.85547527159
0.418003161721623,2368.86547527159
0.40767151798295,2368.87547527159
0.398308584912397,2368.88547527159
0.389388302528668,2368.89547527159
0.38191413564083,2368.90547527159
0.37511394288606,2368.91547527159
0.369076233908643,2368.92547527159
0.364377562885806,2368.93547527159
0.358915731813925,2368.94547527159
0.352667129102361,2368.95547527159
0.344864276887371,2368.96547527159
0.335149547389196,2368.97547527159
0.324450219176717,2368.98547527159
0.314004278901414,2368.99547527159
0.304230629207483,2369.00547527159
0.295617869221997,2369.01547527159
0.288673030860416,2369.02547527159
0.284017261088144,2369.03547527159
0.281149947654884,2369.04547527159
0.279985061760881,2369.05547527159
0.280666844664768,2369.06547527159
0.282205423013463,2369.07547527159
0.284752382484876,2369.08547527159
0.286573338644025,2369.09547527159
0.287636134206617,2369.10547527159
0.287194630326832,2369.11547527159
0.285989534637072,2369.12547527159
0.283039194755131,2369.13547527159
0.278108971034069,2369.14547527159
0.271540677914838,2369.15547527159
0.262881326986092,2369.16547527159
0.252556380098866,2369.17547527159
0.240921072295921,2369.18547527159
0.228808061865597,2369.19547527159
0.216894472840604,2369.20547527159
0.205318763623403,2369.21547527159
0.193681920162167,2369.22547527159
0.181426810181919,2369.23547527159
0.168937433582576,2369.24547527159
0.155821203802667,2369.25547527159
0.142320898531719,2369.26547527159
0.129388242093219,2369.27547527159
0.116628942085279,2369.28547527159
0.104277280467604,2369.29547527159
0.0921531679720137,2369.30547527159
0.0804542956616565,2369.31547527159
0.0684186311270904,2369.32547527159
0.0574913486109994,2369.33547527159
0.0469373504829808,2369.34547527159
0.0366043768804502,2369.35547527159
0.0262041749013695,2369.36547527159
0.0152822146881257,2369.37547527159
0.00442901624864825,2369.38547527159
-0.00705663983998635,2369.39547527159
-0.0178393518604206,2369.40547527159
-0.0285196441829712,2369.41547527159
-0.0390115986681897,2369.42547527159
-0.0493470359197014,2369.43547527159
-0.0593641044271983,2369.44547527159
-0.0688363566732423,2369.45547527159
-0.0755291580165451,2369.46547527159
-0.076536346539131,2369.47547527159
-0.0689840125115041,2369.48547527159
-0.050147616902852,2369.49547527159
-0.0194501910827495,2369.50547527159
0.022765916478868,2369.51547527159
0.072919607667133,2369.52547527159
0.126941928164476,2369.53547527159
0.180790328708887,2369.54547527159
0.229697276733884,2369.55547527159
0.270562976856451,2369.56547527159
0.301392288104003,2369.57547527159
0.321925414920432,2369.58547527159
0.333259331625141,2369.59547527159
0.337821338561583,2369.60547527159
0.336804517414489,2369.61547527159
0.331840620419916,2369.62547527159
0.325024240026064,2369.63547527159
0.317310358358603,2369.64547527159
0.309330951662754,2369.65547527159
0.301975359952971,2369.66547527159
0.294632465741671,2369.67547527159
0.288099961211205,2369.68547527159
0.28251787696507,2369.69547527159
0.27710190135502,2369.70547527159
0.271794917888658,2369.71547527159
0.266252998357895,2369.72547527159
0.259674520629016,2369.73547527159
0.251899854031546,2369.74547527159
0.243412039930289,2369.75547527159
0.233960681722435,2369.76547527159
0.224693171056434,2369.77547527159
0.215270644771346,2369.78547527159
0.207116226710287,2369.79547527159
0.201082579820912,2369.80547527159
0.197586627163092,2369.81547527159
0.196118523233025,2369.82547527159
0.19681642030228,2369.83547527159
0.199251159700989,2369.84547527159
0.201889110608293,2369.85547527159
0.204850968144479,2369.86547527159
0.206267993797155,2369.87547527159
0.205895729632948,2369.88547527159
0.203143781977948,2369.89547527159
0.19848974113447,2369.90547527159
0.192162013749632,2369.91547527159
0.185011103222153,2369.92547527159
0.177409851551394,2369.93547527159
0.16943412661727,2369.94547527159
0.161672898014273,2369.95547527159
0.153094237264102,2369.96547527159
0.14408362139286,2369.97547527159
0.134369705717602,2369.98547527159
0.123975732469767,2369.99547527159
0.113461516485474,2370.00547527159
0.103112072642601,2370.01547527159
0.0923925354755131,2370.02547527159
0.0818622495893452,2370.03547527159
0.0710250317620114,2370.04547527159
0.0599387754234867,2370.05547527159
0.0484856244313582,2370.06547527159
0.0373654754087758,2370.07547527159
0.026341136152326,2370.08547527159
0.0152928771052206,2370.09547527159
0.00476131464416627,2370.10547527159
-0.00521596317565566,2370.11547527159
-0.0156243184352471,2370.12547527159
-0.0252045346537577,2370.13547527159
-0.0345444650899578,2370.14547527159
-0.0432839337686602,2370.15547527159
-0.0521735433560407,2370.16547527159
-0.0609997777899086,2370.17547527159
-0.0698494900110471,2370.18547527159
-0.0786104407313616,2370.19547527159
-0.0862662974634994,2370.20547527159
-0.0911357172200811,2370.21547527159
-0.090587080694678,2370.22547527159
-0.0806373591562652,2370.23547527159
-0.0590644553484999,2370.24547527159
-0.0256361058263432,2370.25547527159
0.018765198414139,2370.26547527159
0.0711563254788789,2370.27547527159
0.126543234935513,2370.28547527159
0.181424672846578,2370.29547527159
0.231216036917091,2370.30547527159
0.272534679488776,2370.31547527159
0.304401479540689,2370.32547527159
0.326329023725294,2370.33547527159
0.33961718888415,2370.34547527159
0.345988987574687,2370.35547527159
0.347054939740114,2370.36547527159
0.344100118756406,2370.37547527159
0.339071764388075,2370.38547527159
0.333443898337772,2370.39547527159
0.327275034601362,2370.40547527159
0.322025484113973,2370.41547527159
0.317400527466784,2370.42547527159
0.314096162526087,2370.43547527159
0.311584739341417,2370.44547527159
0.309848960053889,2370.45547527159
0.308251196523424,2370.46547527159
0.305413837746248,2370.47547527159
0.301992512874292,2370.48547527159
0.296232909701267,2370.49547527159
0.288332311602939,2370.50547527159
0.278493318782268,2370.51547527159
0.267849388358012,2370.52547527159
0.258422327098019,2370.53547527159
0.250253873981192,2370.54547527159
0.244487116369861,2370.55547527159
0.24086803640137,2370.56547527159
0.238973514198132,2370.57547527159
0.238054086298493,2370.58547527159
0.238238931173821,2370.59547527159
0.239090621163244,2370.60547527159
0.240191946090222,2370.61547527159
0.241192107700969,2370.62547527159
0.241739644967592,2370.63547527159
0.24115231124127,2370.64547527159
0.23881046954759,2370.65547527159
0.234765750142525,2370.66547527159
0.228353422647726,2370.67547527159
0.221055383266414,2370.68547527159
0.211996304774399,2370.69547527159
0.202703862875494,2370.70547527159
0.193086683996543,2370.71547527159
0.183340943115251,2370.72547527159
0.173556679936148,2370.73547527159
0.163650482381928,2370.74547527159
0.153109486046883,2370.75547527159
0.141838958694617,2370.76547527159
0.129905830392979,2370.77547527159
0.117347752816511,2370.78547527159
0.105051679502801,2370.79547527159
0.0923877000849154,2370.80547527159
0.0806609981194357,2370.81547527159
0.0686808753919131,2370.82547527159
0.057093181969995,2370.83547527159
0.0459623278927172,2370.84547527159
0.0344119402169889,2370.85547527159
0.0234535623627556,2370.86547527159
0.0127561482359325,2370.87547527159
0.00208163167719535,2370.88547527159
-0.00796080591202785,2370.89547527159
-0.0177028744388419,2370.90547527159
-0.0276994085876728,2370.91547527159
-0.037057583895788,2370.92547527159
-0.0466133958015045,2370.93547527159
-0.0561405446157231,2370.94547527159
-0.0659186762976949,2370.95547527159
-0.0754832827164987,2370.96547527159
-0.0848505967222742,2370.97547527159
-0.0929184344627245,2370.98547527159
-0.0980972134164076,2370.99547527159
-0.0973363249038375,2371.00547527159
-0.0862575948324175,2371.01547527159
-0.0630269350884587,2371.02547527159
-0.0269104439287832,2371.03547527159
0.0205276189115669,2371.04547527159
0.0759792280984413,2371.05547527159
0.134936475096623,2371.06547527159
0.192987787024172,2371.07547527159
0.245251650190122,2371.08547527159
0.287928412922212,2371.09547527159
0.320447003668952,2371.10547527159
0.342644072410481,2371.11547527159
0.356473655465525,2371.12547527159
0.363222141265042,2371.13547527159
0.36448900037826,2371.14547527159
0.36230871561584,2371.15547527159
0.357774097347538,2371.16547527159
0.351923023233382,2371.17547527159
0.346090242209626,2371.18547527159
0.341252032764862,2371.19547527159
0.337163651129794,2371.20547527159
0.334592199699467,2371.21547527159
0.333064641620059,2371.22547527159
0.332059495763761,2371.23547527159
0.331523201339139,2371.24547527159
0.3302959200188,2371.25547527159
0.328138166832705,2371.26547527159
0.323820844581848,2371.27547527159
0.317518576945672,2371.28547527159
0.309149702020741,2371.29547527159
0.299995487316201,2371.30547527159
0.290452349067972,2371.31547527159
0.28185382462809,2371.32547527159
0.274241024314679,2371.33547527159
0.268797281311041,2371.34547527159
0.265578633278981,2371.35547527159
0.264396138872768,2371.36547527159
0.264739844399433,2371.37547527159
0.265753089955536,2371.38547527159
0.266934601986875,2371.39547527159
0.267445142517891,2371.40547527159
0.267463538752116,2371.41547527159
0.265756037998382,2371.42547527159
0.263088458229287,2371.43547527159
0.258813234774586,2371.44547527159
0.253487396589435,2371.45547527159
0.246551126883051,2371.46547527159
0.238600982784725,2371.47547527159
0.229516803949255,2371.48547527159
0.21948350607711,2371.49547527159
0.209130053729978,2371.50547527159
0.198291670636733,2371.51547527159
0.187380017217307,2371.52547527159
0.175831764071334,2371.53547527159
0.164295278208764,2371.54547527159
0.152131149266785,2371.55547527159
0.14005558958852,2371.56547527159
0.128172481789968,2371.57547527159
0.115926732327006,2371.58547527159
0.10472169913151,2371.59547527159
0.0922842069991584,2371.60547527159
0.0805646387100373,2371.61547527159
0.0687876089402119,2371.62547527159
0.0572178208564086,2371.63547527159
0.0460167779097641,2371.64547527159
0.0344488011364851,2371.65547527159
0.0235153683830322,2371.66547527159
0.0128503111886119,2371.67547527159
0.00205064831315493,2371.68547527159
-0.00864329189895697,2371.69547527159
-0.01971128030033,2371.70547527159
-0.0309562509484883,2371.71547527159
-0.0423147542096939,2371.72547527159
-0.0533129343878219,2371.73547527159
-0.0639140855157473,2371.74547527159
-0.0741012021282427,2371.75547527159
-0.0833809597086894,2371.76547527159
-0.091272701704872,2371.77547527159
-0.0965777712874586,2371.78547527159
-0.0970858025972415,2371.79547527159
-0.0888355044783869,2371.80547527159
-0.0684841208314509,2371.81547527159
-0.0354638868203475,2371.82547527159
0.00928887206502391,2371.83547527159
0.0628111639617456,2371.84547527159
0.120472498986869,2371.85547527159
0.178242843526755,2371.86547527159
0.232065910038965,2371.87547527159
0.277670431120863,2371.88547527159
0.313964957312478,2371.89547527159
0.339856272393202,2371.90547527159
0.355610409251355,2371.91547527159
0.363347354992973,2371.92547527159
0.365003476238931,2371.93547527159
0.362967662003957,2371.94547527159
0.358384916350526,2371.95547527159
0.353105562495652,2371.96547527159
0.347419124909007,2371.97547527159
0.342317234722446,2371.98547527159
0.33788019574561,2371.99547527159
0.335214432172699,2372.00547527159
0.334094161113013,2372.01547527159
0.334189748885099,2372.02547527159
0.334753190561868,2372.03547527159
0.334824396042931,2372.04547527159
0.33304978013594,2372.05547527159
0.328633095029554,2372.06547527159
0.321473966674774,2372.07547527159
0.312290751897852,2372.08547527159
0.302035997896828,2372.09547527159
0.291968642447024,2372.10547527159
0.283103748289118,2372.11547527159
0.27590304635526,2372.12547527159
0.27066690683209,2372.13547527159
0.267403522946284,2372.14547527159
0.266309026611928,2372.15547527159
0.267147735046241,2372.16547527159
0.268841579675576,2372.17547527159
0.270343324985462,2372.18547527159
0.271389997813278,2372.19547527159
0.271463129052171,2372.20547527159
0.270230107301642,2372.21547527159
0.266966535665732,2372.22547527159
0.262401378707157,2372.23547527159
0.256671723430806,2372.24547527159
0.249608944265392,2372.25547527159
0.241992562746487,2372.26547527159
0.233581442333025,2372.27547527159
0.224272704562741,2372.28547527159
0.214772192365058,2372.29547527159
0.204192228834623,2372.30547527159
0.193136030986866,2372.31547527159
0.181790667831293,2372.32547527159
0.170072392048759,2372.33547527159
0.15847738852546,2372.34547527159
0.146991644174365,2372.35547527159
0.135938638880253,2372.36547527159
0.124553503640172,2372.37547527159
0.112912114951851,2372.38547527159
0.101080803531294,2372.39547527159
0.0884307456094602,2372.40547527159
0.0761953748077934,2372.41547527159
0.0640251023912268,2372.42547527159
0.0519622779763547,2372.43547527159
0.040363346635185,2372.44547527159
0.0289740191385412,2372.45547527159
0.0180517025505281,2372.46547527159
0.00730869287283294,2372.47547527159
-0.00327279154273698,2372.48547527159
-0.0140789615306781,2372.49547527159
-0.0244336823350197,2372.50547527159
-0.0349081483965308,2372.51547527159
-0.0455777007198449,2372.52547527159
-0.0562660429922961,2372.53547527159
-0.0668098476477333,2372.54547527159
-0.0775307807154192,2372.55547527159
-0.0883155620802172,2372.56547527159
-0.0977335588480742,2372.57547527159
-0.105153275762104,2372.58547527159
-0.107798358250756,2372.59547527159
-0.102435757407695,2372.60547527159
-0.085465346706305,2372.61547527159
-0.0561141850239954,2372.62547527159
-0.0140937416600333,2372.63547527159
0.0379627116663332,2372.64547527159
0.0961144617742071,2372.65547527159
0.15599778614905,2372.66547527159
0.212868243968541,2372.67547527159
0.262659166896512,2372.68547527159
0.302721778382042,2372.69547527159
0.331728099310367,2372.70547527159
0.34986671039695,2372.71547527159
0.359430338125043,2372.72547527159
0.362055835495124,2372.73547527159
0.360499040647984,2372.74547527159
0.356854611382985,2372.75547527159
0.351460675186027,2372.76547527159
0.345560137709785,2372.77547527159
0.340228154655993,2372.78547527159
0.33586879464852,2372.79547527159
0.332857121553688,2372.80547527159
0.331291984460115,2372.81547527159
0.330891608462738,2372.82547527159
0.330747662612554,2372.83547527159
0.329522807477963,2372.84547527159
0.326173565337804,2372.85547527159
0.321282574477995,2372.86547527159
0.313927742248459,2372.87547527159
0.305182622000698,2372.88547527159
0.295673526248191,2372.89547527159
0.285873548695134,2372.90547527159
0.276593091668247,2372.91547527159
0.268864694679026,2372.92547527159
0.262684535238597,2372.93547527159
0.258942835563952,2372.94547527159
0.256814340134224,2372.95547527159
0.256225155976875,2372.96547527159
0.256468317050261,2372.97547527159
0.257287325637629,2372.98547527159
0.258102591052167,2372.99547527159
0.257773043059209,2373.00547527159
0.256120647066863,2373.01547527159
0.252939494537326,2373.02547527159
0.24835069440876,2373.03547527159
0.241500583002865,2373.04547527159
0.233315177277293,2373.05547527159
0.224664186083971,2373.06547527159
0.21511573597489,2373.07547527159
0.205501057182888,2373.08547527159
0.196233921422397,2373.09547527159
0.185860625149721,2373.10547527159
0.175103866756562,2373.11547527159
0.163336113428598,2373.12547527159
0.150793325698488,2373.13547527159
0.138303773659149,2373.14547527159
0.125140104319231,2373.15547527159
0.112187789417495,2373.16547527159
0.099083459246639,2373.17547527159
0.0858095714358189,2373.18547527159
0.0730719344537548,2373.19547527159
0.0599015497066952,2373.20547527159
0.0472649777651032,2373.21547527159
0.0350812401444878,2373.22547527159
0.0235500649364947,2373.23547527159
0.0119710903292397,2373.24547527159
0.0011269159502452,2373.25547527159
-0.00942745803810691,2373.26547527159
-0.0198293419990639,2373.27547527159
-0.0301460924913987,2373.28547527159
-0.0407334535286877,2373.29547527159
-0.0515436218416977,2373.30547527159
-0.0627416278605713,2373.31547527159
-0.0739468541667412,2373.32547527159
-0.0853789656374829,2373.33547527159
-0.0959863829486563,2373.34547527159
-0.10676540306401,2373.35547527159
-0.117210238568855,2373.36547527159
-0.127667006649411,2373.37547527159
-0.137325320219991,2373.38547527159
-0.146230901745095,2373.39547527159
-0.151602856395599,2373.40547527159
-0.150105057349929,2373.41547527159
-0.138309186733794,2373.42547527159
-0.113898331110937,2373.43547527159
-0.0765601504878276,2373.44547527159
-0.0283871263579496,2373.45547527159
0.0267473769279099,2373.46547527159
0.083309363240018,2373.47547527159
0.137153809413379,2373.48547527159
0.184563117178767,2373.49547527159
0.222287762798544,2373.50547527159
0.250403640240132,2373.51547527159
0.268013562440697,2373.52547527159
0.276930222923005,2373.53547527159
0.279341996333955,2373.54547527159
0.276630198205378,2373.55547527159
0.271546366631839,2373.56547527159
0.264875997814998,2373.57547527159
0.258199163226905,2373.58547527159
0.25150629515873,2373.59547527159
0.24507998510569,2373.60547527159
0.239691832548459,2373.61547527159
0.235295121752958,2373.62547527159
0.232216982092581,2373.63547527159
0.229808362819811,2373.64547527159
0.227856466492299,2373.65547527159
0.225414097007244,2373.66547527159
0.221020305536725,2373.67547527159
0.214670044967481,2373.68547527159
0.20630467573616,2373.69547527159
0.196631768944293,2373.70547527159
0.186838481767186,2373.71547527159
0.177904115338756,2373.72547527159
0.170483097079108,2373.73547527159
0.16541754135023,2373.74547527159
0.162549817326084,2373.75547527159
0.161618692276329,2373.76547527159
0.161546065012211,2373.77547527159
0.162313257589193,2373.78547527159
0.163121411832382,2373.79547527159
0.163829695271313,2373.80547527159
0.163900728075697,2373.81547527159
0.162799932403835,2373.82547527159
0.160009482996954,2373.83547527159
0.155496822080007,2373.84547527159
0.150153403814394,2373.85547527159
0.143989650617346,2373.86547527159
0.137586625021691,2373.87547527159
0.13068909491503,2373.88547527159
0.123374297552656,2373.89547527159
0.114912920468911,2373.90547527159
0.105668158170308,2373.91547527159
0.0953813323144175,2373.92547527159
0.0849335248651216,2373.93547527159
0.0742318427163712,2373.94547527159
0.0635327844582798,2373.95547527159
0.0533207311635738,2373.96547527159
0.0430648703410772,2373.97547527159
0.0323071308116901,2373.98547527159
0.0212462593564834,2373.99547527159
0.00980431396812594,2374.00547527159
-0.00181854198966932,2374.01547527159
-0.013374403569505,2374.02547527159
-0.0244660243076005,2374.03547527159
-0.0354424858114833,2374.04547527159
-0.0463205957705692,2374.05547527159
-0.0569679652051456,2374.06547527159
-0.0677857708209229,2374.07547527159
-0.0791403442590644,2374.08547527159
-0.0901453453360902,2374.09547527159
-0.100435755709,2374.10547527159
-0.10977028691769,2374.11547527159
-0.118714694952554,2374.12547527159
-0.127079617229315,2374.13547527159
-0.135601581291916,2374.14547527159
-0.144010382806779,2374.15547527159
-0.152910238649227,2374.16547527159
-0.162103566507255,2374.17547527159
-0.171221926350187,2374.18547527159
-0.180906994186552,2374.19547527159
-0.190427667832586,2374.20547527159
-0.199305043299456,2374.21547527159
-0.204491162972153,2374.22547527159
-0.20410869713349,2374.23547527159
-0.194404846552551,2374.24547527159
-0.173313505895582,2374.25547527159
-0.140991116541972,2374.26547527159
-0.0983786397204751,2374.27547527159
-0.0485638979584514,2374.28547527159
0.00400312845889287,2374.29547527159
0.055716469929293,2374.30547527159
0.101856902270574,2374.31547527159
0.139978749795355,2374.32547527159
0.168637012807592,2374.33547527159
0.187189619328045,2374.34547527159
0.196331145519665,2374.35547527159
0.197809458761505,2374.36547527159
0.192795495676862,2374.37547527159
0.184040197728951,2374.38547527159
0.172308197330628,2374.39547527159
0.158963743906926,2374.40547527159
0.145248823718777,2374.41547527159
0.131722985724663,2374.42547527159
0.118305696510049,2374.43547527159
0.105757710434678,2374.44547527159
0.0942784673190677,2374.45547527159
0.0835429378786953,2374.46547527159
0.0737739943342179,2374.47547527159
0.0634374714971624,2374.48547527159
0.0522035264293612,2374.49547527159
0.0389542463595223,2374.50547527159
0.0243842836990726,2374.51547527159
0.0089308627661213,2374.52547527159
-0.00636181718110814,2374.53547527159
-0.0205769085041958,2374.54547527159
-0.0332177863063583,2374.55547527159
-0.0432969431289011,2374.56547527159
-0.0514301034722238,2374.57547527159
-0.0574721839022141,2374.58547527159
-0.0622952043699807,2374.59547527159
-0.0674224298782352,2374.60547527159
-0.0730550488918325,2374.61547527159
-0.0794230163920665,2374.62547527159
-0.0870580984200791,2374.63547527159
-0.0956173542182021,2374.64547527159
-0.105076768974246,2374.65547527159
-0.115619464569587,2374.66547527159
-0.127801964506467,2374.67547527159
-0.141981569599698,2374.68547527159
-0.157621174184811,2374.69547527159
-0.174809043327591,2374.70547527159
-0.193855191802146,2374.71547527159
-0.214718745179076,2374.72547527159
-0.237067766859786,2374.73547527159
-0.261178950918002,2374.74547527159
-0.287106407667053,2374.75547527159
-0.315169531478204,2374.76547527159
-0.34571597428182,2374.77547527159
-0.37866627280333,2374.78547527159
-0.414485189625283,2374.79547527159
-0.45286765982909,2374.80547527159
-0.493929966376949,2374.81547527159
-0.537524624303709,2374.82547527159
-0.583992572380372,2374.83547527159
-0.633020427743489,2374.84547527159
-0.684211315012892,2374.85547527159
-0.737684383586303,2374.86547527159
-0.791518725229907,2374.87547527159
-0.844947850742147,2374.88547527159
-0.895870088199908,2374.89547527159
-0.942057296365373,2374.90547527159
-0.983401404438446,2374.91547527159
-1.01994545579149,2374.92547527159
-1.05246740553818,2374.93547527159
-1.08186872305183,2374.94547527159
-1.10950022056247,2374.95547527159
-1.13585103006803,2374.96547527159
-1.16184185498204,2374.97547527159
-1.18678481297272,2374.98547527159
-1.21044209616702,2374.99547527159
-1.23241512136899,2375.00547527159
-1.2520343359156,2375.01547527159
-1.26925330882732,2375.02547527159
-1.28349262973683,2375.03547527159
-1.29366580136796,2375.04547527159
-1.29737815607051,2375.05547527159
-1.29077472619599,2375.06547527159
-1.27224977856228,2375.07547527159
-1.24003268263449,2375.08547527159
-1.194671502312,2375.09547527159
-1.13911231723279,2375.10547527159
-1.07693804342242,2375.11547527159
-1.0118027945893,2375.12547527159
-0.947648647416713,2375.13547527159
-0.887603393938318,2375.14547527159
-0.833256007888523,2375.15547527159
-0.786902600767716,2375.16547527159
-0.747277722000811,2375.17547527159
-0.713044865301397,2375.18547527159
-0.683844095296175,2375.19547527159
-0.657129659859827,2375.20547527159
-0.631738247899494,2375.21547527159
-0.605021144427463,2375.22547527159
-0.577295310184944,2375.23547527159
-0.54894622919339,2375.24547527159
-0.519955646301455,2375.25547527159
-0.491137449890352,2375.26547527159
-0.462396026842181,2375.27547527159
-0.433837396024279,2375.28547527159
-0.405231458154147,2375.29547527159
-0.37785993128076,2375.30547527159
-0.352199174278248,2375.31547527159
-0.329292726263449,2375.32547527159
-0.309370834912922,2375.33547527159
-0.291537364045422,2375.34547527159
-0.275628236111407,2375.35547527159
-0.26041751380973,2375.36547527159
-0.245711462896019,2375.37547527159
-0.230229651960287,2375.38547527159
-0.213535651547445,2375.39547527159
-0.195861473107317,2375.40547527159
-0.176431770276673,2375.41547527159
-0.156384687239859,2375.42547527159
-0.135208952662783,2375.43547527159
-0.113957195786526,2375.44547527159
-0.0941286085896985,2375.45547527159
-0.0758061797167319,2375.46547527159
-0.06027789059342,2375.47547527159
-0.047219633476004,2375.48547527159
-0.0368539463309388,2375.49547527159
-0.02902660069817,2375.50547527159
-0.0236037403975548,2375.51547527159
-0.0195529176548591,2375.52547527159
-0.0175966852520804,2375.53547527159
-0.016926875375133,2375.54547527159
-0.0171755744799127,2375.55547527159
-0.0188668440400174,2375.56547527159
-0.020993780982635,2375.57547527159
-0.023904223502655,2375.58547527159
-0.0278790236310612,2375.59547527159
-0.0317844777091136,2375.60547527159
-0.0367557112915758,2375.61547527159
-0.0419418250102183,2375.62547527159
-0.0476299902734442,2375.63547527159
-0.0531731413025888,2375.64547527159
-0.0592991571875712,2375.65547527159
-0.0655859480444523,2375.66547527159
-0.0720190141295885,2375.67547527159
-0.0789643959348686,2375.68547527159
-0.0861899965599819,2375.69547527159
-0.0936656790885744,2375.70547527159
-0.101332649370953,2375.71547527159
-0.109442931584833,2375.72547527159
-0.116947303342114,2375.73547527159
-0.124382429281229,2375.74547527159
-0.131545750594769,2375.75547527159
-0.138303548084446,2375.76547527159
-0.144456669032436,2375.77547527159
-0.151113218006486,2375.78547527159
-0.157714517589788,2375.79547527159
-0.164563834879009,2375.80547527159
-0.171367863681726,2375.81547527159
-0.178329484552494,2375.82547527159
-0.184814155260229,2375.83547527159
-0.18981563281636,2375.84547527159
-0.191897627783563,2375.85547527159
-0.18842662181707,2375.86547527159
-0.176147466770695,2375.87547527159
-0.154819826863482,2375.88547527159
-0.123452697579515,2375.89547527159
-0.0834267691440728,2375.90547527159
-0.0381186805774781,2375.91547527159
0.0089301433350318,2375.92547527159
0.0544762017517956,2375.93547527159
0.0947237865748249,2375.94547527159
0.128341974906202,2375.95547527159
0.154509758916972,2375.96547527159
0.173194732189863,2375.97547527159
0.185419726721865,2375.98547527159
0.192236854725315,2375.99547527159
0.195257436279476,2376.00547527159
0.195483749235026,2376.01547527159
0.193969921462587,2376.02547527159
0.191313522460362,2376.03547527159
0.188176586835444,2376.04547527159
0.184915376366214,2376.05547527159
0.182160428522476,2376.06547527159
0.180005277409898,2376.07547527159
0.178333740618948,2376.08547527159
0.177281294110006,2376.09547527159
0.17542236937736,2376.10547527159
0.173510662569767,2376.11547527159
0.169887845648893,2376.12547527159
0.164375075179135,2376.13547527159
0.157940522035371,2376.14547527159
0.150324934551679,2376.15547527159
0.142677449777705,2376.16547527159
0.136233363196365,2376.17547527159
0.130992007190953,2376.18547527159
0.127847038753711,2376.19547527159
0.125970230144045,2376.20547527159
0.125790462658425,2376.21547527159
0.126903796176231,2376.22547527159
0.129640348144749,2376.23547527159
0.133442701620679,2376.24547527159
0.137380112484391,2376.25547527159
0.140077615131842,2376.26547527159
0.14181687258549,2376.27547527159
0.142041560149013,2376.28547527159
0.140283519402492,2376.29547527159
0.137117978545469,2376.30547527159
0.132356284994501,2376.31547527159
0.12615488314309,2376.32547527159
0.119418342081814,2376.33547527159
0.111676499086758,2376.34547527159
0.10392728590717,2376.35547527159
0.0960993049736955,2376.36547527159
0.0885482596112121,2376.37547527159
0.0813155545002597,2376.38547527159
0.0736199330104676,2376.39547527159
0.0655122252576003,2376.40547527159
0.0567771137506227,2376.41547527159
0.0482847310529702,2376.42547527159
0.0397029859902406,2376.43547527159
0.0307963233951691,2376.44547527159
0.0217986748573923,2376.45547527159
0.0127994931852576,2376.46547527159
0.0041500258968222,2376.47547527159
-0.00424791903903073,2376.48547527159
-0.0128848242269622,2376.49547527159
-0.0216984922369252,2376.50547527159
-0.0298635177682401,2376.51547527159
-0.0381677969480402,2376.52547527159
-0.0463642049460843,2376.53547527159
-0.053896144808733,2376.54547527159
-0.06217992169041,2376.55547527159
-0.0706863407170435,2376.56547527159
-0.0797357993207288,2376.57547527159
-0.0887761060012575,2376.58547527159
-0.0971237198087301,2376.59547527159
-0.10502085246608,2376.60547527159
-0.111072341396212,2376.61547527159
-0.113520013985705,2376.62547527159
-0.110042545292365,2376.63547527159
-0.0978724192198511,2376.64547527159
-0.0757405478149845,2376.65547527159
-0.0443528405109789,2376.66547527159
-0.00566482993200978,2376.67547527159
0.037374253897915,2376.68547527159
0.0811252296765629,2376.69547527159
0.121653944617209,2376.70547527159
0.157083694761687,2376.71547527159
0.185115386102885,2376.72547527159
0.205708905619583,2376.73547527159
0.219247843406757,2376.74547527159
0.226182572748345,2376.75547527159
0.228145422436577,2376.76547527159
0.227404923842861,2376.77547527159
0.224711394089409,2376.78547527159
0.221029036614047,2376.79547527159
0.217165471012844,2376.80547527159
0.213576370628768,2376.81547527159
0.2100846507596,2376.82547527159
0.207350037118218,2376.83547527159
0.204685416233403,2376.84547527159
0.202509029916623,2376.85547527159
0.200399542580898,2376.86547527159
0.197570425533257,2376.87547527159
0.194216059301282,2376.88547527159
0.188706658762833,2376.89547527159
0.18217023727364,2376.90547527159
0.175035911408892,2376.91547527159
0.167672345501722,2376.92547527159
0.161165798516777,2376.93547527159
0.155761380119073,2376.94547527159
0.151945764792113,2376.95547527159
0.151153504887889,2376.96547527159
0.15253720275336,2376.97547527159
0.155539560878338,2376.98547527159
0.159832812820689,2376.99547527159
0.163931127897883,2377.00547527159
0.167753867497778,2377.01547527159
0.170490098835209,2377.02547527159
0.172573752064015,2377.03547527159
0.17366382295112,2377.04547527159
0.173771476422347,2377.05547527159
0.172363162026866,2377.06547527159
0.169062774611194,2377.07547527159
0.164207881700892,2377.08547527159
0.158146385227364,2377.09547527159
0.152103641384604,2377.10547527159
0.14547403588183,2377.11547527159
0.138265285547079,2377.12547527159
0.130492806267238,2377.13547527159
0.121880332237831,2377.14547527159
0.113419152516007,2377.15547527159
0.106141451902193,2377.16547527159
0.0992481142086442,2377.17547527159
0.0926147603390836,2377.18547527159
0.086214580070572,2377.19547527159
0.0788284515413771,2377.20547527159
0.0709062772275711,2377.21547527159
0.0627242727434479,2377.22547527159
0.0545946221414103,2377.23547527159
0.0464279121900992,2377.24547527159
0.0385889400057842,2377.25547527159
0.0303741887229769,2377.26547527159
0.0223037705871884,2377.27547527159
0.0142291021670973,2377.28547527159
0.00601626310784866,2377.29547527159
-0.00221088613199937,2377.30547527159
-0.0099427643647218,2377.31547527159
-0.0173762631506207,2377.32547527159
-0.0238427326684959,2377.33547527159
-0.0280115482815971,2377.34547527159
-0.0280121011325034,2377.35547527159
-0.0206655058401454,2377.36547527159
-0.00392791741186366,2377.37547527159
0.0222429567984125,2377.38547527159
0.0576377009751811,2377.39547527159
0.099175859798204,2377.40547527159
0.143498956693434,2377.41547527159
0.187038918701931,2377.42547527159
0.226179303208195,2377.43547527159
0.258719509357497,2377.44547527159
0.283054714231154,2377.45547527159
0.299312118387076,2377.46547527159
0.307974676401426,2377.47547527159
0.31114445973379,2377.48547527159
0.310043122467807,2377.49547527159
0.30660618500756,2377.50547527159
0.302327839568024,2377.51547527159
0.297997167201824,2377.52547527159
0.294545755359265,2377.53547527159
0.292147046953868,2377.54547527159
0.290824558934045,2377.55547527159
0.290114091488951,2377.56547527159
0.28992484862255,2377.57547527159
0.289851739229074,2377.58547527159
0.289854678040451,2377.59547527159
0.2889592359229,2377.60547527159
0.286991350318202,2377.61547527159
0.283552810058841,2377.62547527159
0.278243034521352,2377.63547527159
0.271504493354032,2377.64547527159
0.264267782063236,2377.65547527159
0.257847772023471,2377.66547527159
0.252597950005534,2377.67547527159
0.24919950356675,2377.68547527159
0.248052240769642,2377.69547527159
0.248518517674152,2377.70547527159
0.25029542683453,2377.71547527159
0.252457270585011,2377.72547527159
0.255519366043137,2377.73547527159
0.258408632280671,2377.74547527159
0.260559456620814,2377.75547527159
0.261410923814656,2377.76547527159
0.260478638664526,2377.77547527159
0.25744247055118,2377.78547527159
0.253092535130273,2377.79547527159
0.247005680162163,2377.80547527159
0.240295932435945,2377.81547527159
0.233028878308296,2377.82547527159
0.22583859431344,2377.83547527159
0.219071260256361,2377.84547527159
0.212330618134663,2377.85547527159
0.205947449876881,2377.86547527159
0.198768761903478,2377.87547527159
0.19085983664424,2377.88547527159
0.181784172178172,2377.89547527159
0.172435135799206,2377.90547527159
0.162713037959503,2377.91547527159
0.152519516102162,2377.92547527159
0.143001659624553,2377.93547527159
0.13314552617177,2377.94547527159
0.122535141823842,2377.95547527159
0.112250084039036,2377.96547527159
0.101894919811834,2377.97547527159
0.0916253590592213,2377.98547527159
0.0820820999284092,2377.99547527159
0.0728072524961629,2378.00547527159
0.0638270943932429,2378.01547527159
0.0544952200122807,2378.02547527159
0.0454396365872146,2378.03547527159
0.0362477745232863,2378.04547527159
0.0271918485577481,2378.05547527159
0.0197360421842731,2378.06547527159
0.0158155301166432,2378.07547527159
0.0172146495585755,2378.08547527159
0.0276374682381636,2378.09547527159
0.0483391560220382,2378.10547527159
0.0791729820832126,2378.11547527159
0.11733657017566,2378.12547527159
0.159469265092587,2378.13547527159
0.201433490797462,2378.14547527159
0.239668426483945,2378.15547527159
0.271884141090309,2378.16547527159
0.295420732063138,2378.17547527159
0.311295724570176,2378.18547527159
0.319661992847254,2378.19547527159
0.321744411384205,2378.20547527159
0.319713078829704,2378.21547527159
0.314914045366888,2378.22547527159
0.308761384890997,2378.23547527159
0.302635303378507,2378.24547527159
0.297099371370212,2378.25547527159
0.292609422357273,2378.26547527159
0.289978918627101,2378.27547527159
0.288390468947661,2378.28547527159
0.288132581786523,2378.29547527159
0.288626908309751,2378.30547527159
0.289038052889852,2378.31547527159
0.289339057863316,2378.32547527159
0.288225775395403,2378.33547527159
0.285036117223724,2378.34547527159
0.279761269941768,2378.35547527159
0.272135870660276,2378.36547527159
0.263768711896113,2378.37547527159
0.255646942081965,2378.38547527159
0.248626568022024,2378.39547527159
0.243591277833192,2378.40547527159
0.240568719576374,2378.41547527159
0.239001863192099,2378.42547527159
0.238037736670049,2378.43547527159
0.238616643157677,2378.44547527159
0.239093759609385,2378.45547527159
0.239662661723316,2378.46547527159
0.238802767887299,2378.47547527159
0.237598471223704,2378.48547527159
0.23557788553808,2378.49547527159
0.232745282740225,2378.50547527159
0.229909077235658,2378.51547527159
0.226540682109642,2378.52547527159
0.222196127586099,2378.53547527159
0.216860157144011,2378.54547527159
0.210608642701455,2378.55547527159
0.203772885290834,2378.56547527159
0.196275791796077,2378.57547527159
0.188020855917786,2378.58547527159
0.179639169462131,2378.59547527159
0.17043991952958,2378.60547527159
0.160800928389284,2378.61547527159
0.151041457783584,2378.62547527159
0.140805853459976,2378.63547527159
0.130765167964314,2378.64547527159
0.120303962777409,2378.65547527159
0.109688417693169,2378.66547527159
0.0990996592446479,2378.67547527159
0.0884727448580397,2378.68547527159
0.0783406804756429,2378.69547527159
0.0689705905669296,2378.70547527159
0.0597999744174311,2378.71547527159
0.0507677085881418,2378.72547527159
0.0418496196238391,2378.73547527159
0.0328580238721182,2378.74547527159
0.0235428794952226,2378.75547527159
0.0144229698062307,2378.76547527159
0.00494738457497713,2378.77547527159
-0.00470311584635737,2378.78547527159
-0.014261189088705,2378.79547527159
-0.0234320329199176,2378.80547527159
-0.0326133937793721,2378.81547527159
-0.0396048070052555,2378.82547527159
-0.0426900643871001,2378.83547527159
-0.0392614262600881,2378.84547527159
-0.0263015079596034,2378.85547527159
-0.00347839685390047,2378.86547527159
0.0285853768719596,2378.87547527159
0.0670538532529597,2378.88547527159
0.108328944430161,2378.89547527159
0.148842215568286,2378.90547527159
0.185577398200717,2378.91547527159
0.215060364818045,2378.92547527159
0.236371065063338,2378.93547527159
0.24942918093327,2378.94547527159
0.255318613747251,2378.95547527159
0.255474112299579,2378.96547527159
0.251600897325514,2378.97547527159
0.245718420298879,2378.98547527159
0.239092570410184,2378.99547527159
0.232537226418398,2379.00547527159
0.226572231354694,2379.01547527159
0.221577670783953,2379.02547527159
0.217842352821726,2379.03547527159
0.21570876205759,2379.04547527159
0.215301322408117,2379.05547527159
0.21587805333502,2379.06547527159
0.216919200582476,2379.07547527159
0.217628903608791,2379.08547527159
0.216856940819362,2379.09547527159
0.213350393831979,2379.10547527159
0.208199387576752,2379.11547527159
0.201509293174987,2379.12547527159
0.194328821110886,2379.13547527159
0.187360663978296,2379.14547527159
0.181199392343156,2379.15547527159
0.176017133497451,2379.16547527159
0.172390841690268,2379.17547527159
0.169712689490312,2379.18547527159
0.168239187166043,2379.19547527159
0.167679435959157,2379.20547527159
0.168030436545955,2379.21547527159
0.168798452992794,2379.22547527159
0.169254097805069,2379.23547527159
0.169024811629282,2379.24547527159
0.167569386420223,2379.25547527159
0.16488139887751,2379.26547527159
0.160907820286507,2379.27547527159
0.156044231788391,2379.28547527159
0.150345783082994,2379.29547527159
0.144175702309491,2379.30547527159
0.137832459585585,2379.31547527159
0.130664621095335,2379.32547527159
0.122996597321865,2379.33547527159
0.114458695376876,2379.34547527159
0.105819772886882,2379.35547527159
0.0973929579932599,2379.36547527159
0.0887599715322841,2379.37547527159
0.0800376264153157,2379.38547527159
0.0704289465868106,2379.39547527159
0.0598585639888965,2379.40547527159
0.0487017553870608,2379.41547527159
0.0373082438905056,2379.42547527159
0.0254643428135423,2379.43547527159
0.0137658466320654,2379.44547527159
0.00230765614814256,2379.45547527159
-0.00862854760614012,2379.46547527159
-0.0190401557715579,2379.47547527159
-0.0287088696081467,2379.48547527159
-0.0373598154210883,2379.49547527159
-0.0462462832511301,2379.50547527159
-0.054230338453365,2379.51547527159
-0.0627598848196865,2379.52547527159
-0.0715902952123911,2379.53547527159
-0.0806455054631067,2379.54547527159
-0.0897527337206983,2379.55547527159
-0.0989827083120202,2379.56547527159
-0.108593708798815,2379.57547527159
-0.118263432587075,2379.58547527159
-0.127817118334133,2379.59547527159
-0.13747162617758,2379.60547527159
-0.145988705244806,2379.61547527159
-0.15227626204,2379.62547527159
-0.154409279476934,2379.63547527159
-0.148964553842729,2379.64547527159
-0.134186439859028,2379.65547527159
-0.109955819554047,2379.66547527159
-0.0761127401075355,2379.67547527159
-0.0357842415437735,2379.68547527159
0.00727850124344985,2379.69547527159
0.0491884302475088,2379.70547527159
0.0854286417832586,2379.71547527159
0.113810241505396,2379.72547527159
0.133107028025717,2379.73547527159
0.144578495617906,2379.74547527159
0.148771387264389,2379.75547527159
0.14759688854987,2379.76547527159
0.143152125055392,2379.77547527159
0.136722404446411,2379.78547527159
0.128898415345584,2379.79547527159
0.121726870569689,2379.80547527159
0.114448831025986,2379.81547527159
0.108789855106956,2379.82547527159
0.104422372342474,2379.83547527159
0.100972144984436,2379.84547527159
0.0992587842948161,2379.85547527159
0.097563611731874,2379.86547527159
0.096263149165017,2379.87547527159
0.0947253356879256,2379.88547527159
0.0918418884035244,2379.89547527159
0.087776893519598,2379.90547527159
0.0827969962787886,2379.91547527159
0.0765289711311261,2379.92547527159
0.0701154346121109,2379.93547527159
0.0642086605992438,2379.94547527159
0.0595906352164136,2379.95547527159
0.0567509245549929,2379.96547527159
0.0558871405879022,2379.97547527159
0.0562862988305938,2379.98547527159
0.0580640696863524,2379.99547527159
0.0603836016986765,2380.00547527159
0.0631228839621588,2380.01547527159
0.0656343408930414,2380.02547527159
0.0678191620312193,2380.03547527159
0.0692694474780976,2380.04547527159
0.0694408513938467,2380.05547527159
0.0685303676854358,2380.06547527159
0.0659048321894538,2380.07547527159
0.0617954455081832,2380.08547527159
0.0569173338384741,2380.09547527159
0.0509509293508378,2380.10547527159
0.0446226028426668,2380.11547527159
0.0377765113473099,2380.12547527159
0.030527049029607,2380.13547527159
0.0232279987634202,2380.14547527159
0.0156513827043759,2380.15547527159
0.00823607372438363,2380.16547527159
0.00090093661321196,2380.17547527159
-0.00696743248891474,2380.18547527159
-0.0145335797427678,2380.19547527159
-0.0222250145251618,2380.20547527159
-0.0298908366682634,2380.21547527159
