PPG,time
0.123439798690815,2558.04022227755
0.235978644712432,2558.05022227755
0.196279505440796,2558.06022227755
0.202470926517436,2558.07022227755
0.181952125913849,2558.08022227755
0.177855771210901,2558.09022227755
0.163528842649914,2558.10022227755
0.155669261286868,2558.11022227755
0.144320978783783,2558.12022227755
0.135708441979422,2558.13022227755
0.126292766854879,2558.14022227755
0.11754642027192,2558.15022227755
0.108438659236189,2558.16022227755
0.0989705564281869,2558.17022227755
0.0886833435500498,2558.18022227755
0.0786471796117673,2558.19022227755
0.0686236140837303,2558.20022227755
0.0587651968971387,2558.21022227755
0.0496224929242771,2558.22022227755
0.0407244840523752,2558.23022227755
0.0319486260069988,2558.24022227755
0.0231429909336091,2558.25022227755
0.0152291141725422,2558.26022227755
0.0084802632476886,2558.27022227755
0.00593368920445849,2558.28022227755
0.00964362590372249,2558.29022227755
0.0223604300420292,2558.30022227755
0.0458344006755331,2558.31022227755
0.0793411480639896,2558.32022227755
0.121477443506216,2558.33022227755
0.170746626091285,2558.34022227755
0.223965347381008,2558.35022227755
0.2778356264835,2558.36022227755
0.329632584477857,2558.37022227755
0.377085085142553,2558.38022227755
0.419214264139118,2558.39022227755
0.454547783134768,2558.40022227755
0.483543156531308,2558.41022227755
0.506832862455335,2558.42022227755
0.525314183040997,2558.43022227755
0.540421473285168,2558.44022227755
0.552815965072016,2558.45022227755
0.562908741807305,2558.46022227755
0.572878837251035,2558.47022227755
0.581814531158548,2558.48022227755
0.590832753074059,2558.49022227755
0.599421548725095,2558.50022227755
0.607255384688349,2558.51022227755
0.615546903992997,2558.52022227755
0.623288907676254,2558.53022227755
0.630174530836477,2558.54022227755
0.635178389119643,2558.55022227755
0.636833207049182,2558.56022227755
0.635637936215459,2558.57022227755
0.631026144327624,2558.58022227755
0.623683074543336,2558.59022227755
0.614081656846359,2558.60022227755
0.60412047638801,2558.61022227755
0.594296601584344,2558.62022227755
0.586104393766061,2558.63022227755
0.58055341533749,2558.64022227755
0.5778642599572,2558.65022227755
0.57772691947467,2558.66022227755
0.579456688444088,2558.67022227755
0.581916395292746,2558.68022227755
0.584112366293479,2558.69022227755
0.585323945555165,2558.70022227755
0.584889950708498,2558.71022227755
0.582837752323167,2558.72022227755
0.579637678804198,2558.73022227755
0.575098279212064,2558.74022227755
0.56957844840721,2558.75022227755
0.563353071933154,2558.76022227755
0.55630477429376,2558.77022227755
0.548240763203627,2558.78022227755
0.538900207679691,2558.79022227755
0.528849075861704,2558.80022227755
0.517956471550939,2558.81022227755
0.506671439633467,2558.82022227755
0.495065461272616,2558.83022227755
0.483692003140943,2558.84022227755
0.472060995286885,2558.85022227755
0.460528127812869,2558.86022227755
0.448862310421856,2558.87022227755
0.436834676253177,2558.88022227755
0.424507147473823,2558.89022227755
0.411517766163744,2558.90022227755
0.398472700077285,2558.91022227755
0.384797540437275,2558.92022227755
0.371376561371007,2558.93022227755
0.357608722029347,2558.94022227755
0.344479040629403,2558.95022227755
0.33253879156053,2558.96022227755
0.320766271147089,2558.97022227755
0.309787340315912,2558.98022227755
0.298703966273775,2558.99022227755
0.287460032760639,2559.00022227755
0.275878209139917,2559.01022227755
0.263526213025056,2559.02022227755
0.250930910390405,2559.03022227755
0.237884429859824,2559.04022227755
0.225403717049944,2559.05022227755
0.212334591721856,2559.06022227755
0.199716215210824,2559.07022227755
0.187433726261024,2559.08022227755
0.176190413398105,2559.09022227755
0.165308222392121,2559.10022227755
0.155049465584585,2559.11022227755
0.145052319384626,2559.12022227755
0.135385289156396,2559.13022227755
0.125809135147108,2559.14022227755
0.115929654101689,2559.15022227755
0.105828852422961,2559.16022227755
0.0956382631023008,2559.17022227755
0.0859585245019627,2559.18022227755
0.0771877407071675,2559.19022227755
0.0684081178722987,2559.20022227755
0.0592719619177362,2559.21022227755
0.0503512208750945,2559.22022227755
0.0408608719508577,2559.23022227755
0.0313281739749901,2559.24022227755
0.0218020023874902,2559.25022227755
0.0125879889286633,2559.26022227755
0.00409602569117295,2559.27022227755
-0.00386676598919872,2559.28022227755
-0.0114921982796603,2559.29022227755
-0.0190520478647017,2559.30022227755
-0.0266478812150853,2559.31022227755
-0.0342414637309955,2559.32022227755
-0.0415346731553559,2559.33022227755
-0.0492721479684175,2559.34022227755
-0.057238663391759,2559.35022227755
-0.0644042955389707,2559.36022227755
-0.0699920323873257,2559.37022227755
-0.0707564354637598,2559.38022227755
-0.0640409181044312,2559.39022227755
-0.0476305040089347,2559.40022227755
-0.0204580102123389,2559.41022227755
0.0175416550010843,2559.42022227755
0.063820630202572,2559.43022227755
0.115755508872541,2559.44022227755
0.170710879436817,2559.45022227755
0.225324821228987,2559.46022227755
0.277378420056869,2559.47022227755
0.32581460391478,2559.48022227755
0.368924354189268,2559.49022227755
0.406030462208023,2559.50022227755
0.43640336640684,2559.51022227755
0.460623134614307,2559.52022227755
0.479602562639196,2559.53022227755
0.494378177600239,2559.54022227755
0.506373738414845,2559.55022227755
0.516918035393865,2559.56022227755
0.526618275700723,2559.57022227755
0.536272541483179,2559.58022227755
0.545716679966179,2559.59022227755
0.554734426916427,2559.60022227755
0.562506521899034,2559.61022227755
0.567578500523486,2559.62022227755
0.569886375282558,2559.63022227755
0.568887518635826,2559.64022227755
0.565121902247292,2559.65022227755
0.559177045145169,2559.66022227755
0.552394881126021,2559.67022227755
0.544778780584185,2559.68022227755
0.537334684835955,2559.69022227755
0.530797553040303,2559.70022227755
0.524388831563672,2559.71022227755
0.518680475165635,2559.72022227755
0.514223805451823,2559.73022227755
0.51050816045952,2559.74022227755
0.507919475291323,2559.75022227755
0.506383867181242,2559.76022227755
0.505521599107509,2559.77022227755
0.504805627670626,2559.78022227755
0.503475033789611,2559.79022227755
0.500813609927551,2559.80022227755
0.49667714096683,2559.81022227755
0.491079553828891,2559.82022227755
0.484257933548545,2559.83022227755
0.476258808180783,2559.84022227755
0.466893683876322,2559.85022227755
0.457659111225355,2559.86022227755
0.448358694472196,2559.87022227755
0.438122387575545,2559.88022227755
0.426873133831117,2559.89022227755
0.414869001001956,2559.90022227755
0.401258580590625,2559.91022227755
0.386552200978948,2559.92022227755
0.370594343607893,2559.93022227755
0.353791754139416,2559.94022227755
0.336248228066681,2559.95022227755
0.318544546690078,2559.96022227755
0.301187176563095,2559.97022227755
0.284647635517434,2559.98022227755
0.269124020396013,2559.99022227755
0.254814718004041,2560.00022227755
0.241694958167913,2560.01022227755
0.22925217105773,2560.02022227755
0.217857010336447,2560.03022227755
0.206911698421941,2560.04022227755
0.195497115507176,2560.05022227755
0.183882008985824,2560.06022227755
0.171387698219079,2560.07022227755
0.158872803375433,2560.08022227755
0.14619576316849,2560.09022227755
0.133562251012874,2560.10022227755
0.120592057705575,2560.11022227755
0.107570869121076,2560.12022227755
0.0946949064154157,2560.13022227755
0.0818986136505374,2560.14022227755
0.069744256942515,2560.15022227755
0.0578637514048657,2560.16022227755
0.0464475048016127,2560.17022227755
0.035745946048768,2560.18022227755
0.0250828824091943,2560.19022227755
0.014298218798695,2560.20022227755
0.00377618567612529,2560.21022227755
-0.00644122217675978,2560.22022227755
-0.0168820612575366,2560.23022227755
-0.0269078494753527,2560.24022227755
-0.0367985070791216,2560.25022227755
-0.0469203303703367,2560.26022227755
-0.0571499585043663,2560.27022227755
-0.068101943230385,2560.28022227755
-0.0798016119398066,2560.29022227755
-0.092000882699502,2560.30022227755
-0.104720341577099,2560.31022227755
-0.116964497972647,2560.32022227755
-0.127192276148021,2560.33022227755
-0.13251647652177,2560.34022227755
-0.13007469129855,2560.35022227755
-0.116934327479316,2560.36022227755
-0.0918369398087989,2560.37022227755
-0.0553592568681969,2560.38022227755
-0.0102878516445403,2560.39022227755
0.0409999039368587,2560.40022227755
0.0937040825089623,2560.41022227755
0.145653861891781,2560.42022227755
0.194541554048861,2560.43022227755
0.237685284944292,2560.44022227755
0.274794950826629,2560.45022227755
0.305433495708958,2560.46022227755
0.329604225115423,2560.47022227755
0.348227494973777,2560.48022227755
0.3620571927452,2560.49022227755
0.372711135525266,2560.50022227755
0.380949414606837,2560.51022227755
0.388383951277454,2560.52022227755
0.395553255141061,2560.53022227755
0.402074401264864,2560.54022227755
0.408951103959418,2560.55022227755
0.414953537801314,2560.56022227755
0.420095636735167,2560.57022227755
0.423810541978639,2560.58022227755
0.426285699093572,2560.59022227755
0.425754823289562,2560.60022227755
0.42256654279343,2560.61022227755
0.417012210253175,2560.62022227755
0.408348957558713,2560.63022227755
0.398650852551817,2560.64022227755
0.388099356544423,2560.65022227755
0.378163427779738,2560.66022227755
0.370189811621909,2560.67022227755
0.364652070588139,2560.68022227755
0.361299514378501,2560.69022227755
0.359308052518478,2560.70022227755
0.356955766980091,2560.71022227755
0.353917668400292,2560.72022227755
0.350481165922868,2560.73022227755
0.346526367624561,2560.74022227755
0.34182304748001,2560.75022227755
0.336456417355546,2560.76022227755
0.330837112113301,2560.77022227755
0.325083949873178,2560.78022227755
0.320261552873365,2560.79022227755
0.316215708043606,2560.80022227755
0.312393507908273,2560.81022227755
0.307591913153689,2560.82022227755
0.301257439100212,2560.83022227755
0.292950948807161,2560.84022227755
0.283004257737367,2560.85022227755
0.271076134537482,2560.86022227755
0.257737769495439,2560.87022227755
0.24265473574194,2560.88022227755
0.226942581813679,2560.89022227755
0.210007627457587,2560.90022227755
0.192463520809482,2560.91022227755
0.174431100090494,2560.92022227755
0.156138963166653,2560.93022227755
0.13833945793394,2560.94022227755
0.120296885088414,2560.95022227755
0.102536687454453,2560.96022227755
0.0850260264905177,2560.97022227755
0.068566615969409,2560.98022227755
0.0527956948292964,2560.99022227755
0.0376702064111453,2561.00022227755
0.0228750749286351,2561.01022227755
0.00824323850665485,2561.02022227755
-0.0058459296500986,2561.03022227755
-0.0194973347268538,2561.04022227755
-0.0329412267874947,2561.05022227755
-0.0448774970265256,2561.06022227755
-0.0560942584605314,2561.07022227755
-0.0666700058290975,2561.08022227755
-0.07713844766755,2561.09022227755
-0.0871654801396619,2561.10022227755
-0.0976381100676124,2561.11022227755
-0.107858024600332,2561.12022227755
-0.118511657983103,2561.13022227755
-0.12959499400574,2561.14022227755
-0.141034341542632,2561.15022227755
-0.152585691627863,2561.16022227755
-0.164165652665193,2561.17022227755
-0.17591611136625,2561.18022227755
-0.187238508201045,2561.19022227755
-0.198027305170302,2561.20022227755
-0.20912822769965,2561.21022227755
-0.220585521332754,2561.22022227755
-0.231704224681027,2561.23022227755
-0.242630624643911,2561.24022227755
-0.25333502432922,2561.25022227755
-0.264313356770049,2561.26022227755
-0.275107757238544,2561.27022227755
-0.285718952799198,2561.28022227755
-0.294905405791931,2561.29022227755
-0.303112219896544,2561.30022227755
-0.308924597257018,2561.31022227755
-0.3100075523283,2561.32022227755
-0.303615891372797,2561.33022227755
-0.286220690198622,2561.34022227755
-0.258069903348872,2561.35022227755
-0.2188240980846,2561.36022227755
-0.171904018132517,2561.37022227755
-0.120507127807948,2561.38022227755
-0.0675122219451016,2561.39022227755
-0.0160983386118273,2561.40022227755
0.0313706268706118,2561.41022227755
0.0735357529078077,2561.42022227755
0.109310710452678,2561.43022227755
0.138383313198756,2561.44022227755
0.162040363952343,2561.45022227755
0.181323952907336,2561.46022227755
0.196362045023797,2561.47022227755
0.208256697783118,2561.48022227755
0.217243676430218,2561.49022227755
0.22489565556496,2561.50022227755
0.231686630039852,2561.51022227755
0.23873988779502,2561.52022227755
0.245539622083987,2561.53022227755
0.252104690093568,2561.54022227755
0.257947432804018,2561.55022227755
0.261974126388894,2561.56022227755
0.263962501216562,2561.57022227755
0.263784398523491,2561.58022227755
0.261566238091017,2561.59022227755
0.258908319058417,2561.60022227755
0.255838866217437,2561.61022227755
0.253257761660176,2561.62022227755
0.251644564724154,2561.63022227755
0.251054066930564,2561.64022227755
0.252248402395724,2561.65022227755
0.254374480628113,2561.66022227755
0.25788575691513,2561.67022227755
0.262438987809937,2561.68022227755
0.268097652656924,2561.69022227755
0.274251419514817,2561.70022227755
0.280458616457589,2561.71022227755
0.2866690632327,2561.72022227755
0.292314865673392,2561.73022227755
0.296277126184895,2561.74022227755
0.299101178275801,2561.75022227755
0.300368600534458,2561.76022227755
0.300239439368925,2561.77022227755
0.298864020009246,2561.78022227755
0.295969497918611,2561.79022227755
0.291951705707321,2561.80022227755
0.286890981403658,2561.81022227755
0.281623003978536,2561.82022227755
0.276063987264473,2561.83022227755
0.270763859168435,2561.84022227755
0.265163474405722,2561.85022227755
0.258836663675823,2561.86022227755
0.25199723879895,2561.87022227755
0.244661078858097,2561.88022227755
0.236971740148278,2561.89022227755
0.229420901853795,2561.90022227755
0.221716360734878,2561.91022227755
0.21442634975277,2561.92022227755
0.20764555969482,2561.93022227755
0.200681348978246,2561.94022227755
0.193876201299151,2561.95022227755
0.187044357204387,2561.96022227755
0.179707911470539,2561.97022227755
0.17235539688534,2561.98022227755
0.164977250302351,2561.99022227755
0.157435652130713,2562.00022227755
0.149789798372818,2562.01022227755
0.141482731072866,2562.02022227755
0.133508958195888,2562.03022227755
0.126108578216617,2562.04022227755
0.119368031597979,2562.05022227755
0.113615992886663,2562.06022227755
0.108721023262829,2562.07022227755
0.10341011220212,2562.08022227755
0.098043863929459,2562.09022227755
0.0921163463978269,2562.10022227755
0.0850732266973092,2562.11022227755
0.0773935975481308,2562.12022227755
0.0685651890584599,2562.13022227755
0.0582966881465995,2562.14022227755
0.046893329954423,2562.15022227755
0.0360130980739575,2562.16022227755
0.0244522510610751,2562.17022227755
0.0138221655660856,2562.18022227755
0.00494360436291702,2562.19022227755
-0.00178161347643,2562.20022227755
-0.00400518273195143,2562.21022227755
0.00124989302751438,2562.22022227755
0.0170304038326952,2562.23022227755
0.0429353397468153,2562.24022227755
0.0788443705668137,2562.25022227755
0.122750385382702,2562.26022227755
0.171951653556226,2562.27022227755
0.223477444350727,2562.28022227755
0.274435130772621,2562.29022227755
0.322379657522461,2562.30022227755
0.365235406901349,2562.31022227755
0.401885044164118,2562.32022227755
0.431626963207731,2562.33022227755
0.454249049545435,2562.34022227755
0.470742420260884,2562.35022227755
0.482919097693731,2562.36022227755
0.490934271724488,2562.37022227755
0.496447937238996,2562.38022227755
0.500616652771044,2562.39022227755
0.505342869112832,2562.40022227755
0.5113521921284,2562.41022227755
0.518980223307547,2562.42022227755
0.527838495803909,2562.43022227755
0.536700793079251,2562.44022227755
0.544670253386028,2562.45022227755
0.55097302255808,2562.46022227755
0.554051479936258,2562.47022227755
0.553583651183694,2562.48022227755
0.549122399122482,2562.49022227755
0.540907092767687,2562.50022227755
0.530815820875702,2562.51022227755
0.519384675235141,2562.52022227755
0.507702213972024,2562.53022227755
0.49681322354042,2562.54022227755
0.487140246390517,2562.55022227755
0.480671797062046,2562.56022227755
0.476497001848892,2562.57022227755
0.474491964005373,2562.58022227755
0.473941160851051,2562.59022227755
0.474401118868566,2562.60022227755
0.474831415642712,2562.61022227755
0.474757412056481,2562.62022227755
0.474037661043588,2562.63022227755
0.471708045397902,2562.64022227755
0.467761927719956,2562.65022227755
0.461769877218381,2562.66022227755
0.454885095439767,2562.67022227755
0.447035433702487,2562.68022227755
0.438905203736814,2562.69022227755
0.430611872662833,2562.70022227755
0.42216914739608,2562.71022227755
0.412794560866951,2562.72022227755
0.402514461904682,2562.73022227755
0.39052805523868,2562.74022227755
0.376805696102849,2562.75022227755
0.361761024965051,2562.76022227755
0.345784018452368,2562.77022227755
0.33001282768637,2562.78022227755
0.313603060092307,2562.79022227755
0.297162291295054,2562.80022227755
0.28058144124288,2562.81022227755
0.264305520051913,2562.82022227755
0.248866874314259,2562.83022227755
0.233274271567655,2562.84022227755
0.218449766492542,2562.85022227755
0.203651880047007,2562.86022227755
0.188967904050898,2562.87022227755
0.174728923536314,2562.88022227755
0.159482844488682,2562.89022227755
0.143522235263341,2562.90022227755
0.126849765491687,2562.91022227755
0.110001710202001,2562.92022227755
0.0933886330111302,2562.93022227755
0.0769558218597885,2562.94022227755
0.0605286940680532,2562.95022227755
0.0450719237647215,2562.96022227755
0.0305093874511024,2562.97022227755
0.0168134610108675,2562.98022227755
0.00427224282315985,2562.99022227755
-0.00739010985529957,2563.00022227755
-0.0193676295972504,2563.01022227755
-0.0314735501227713,2563.02022227755
-0.0440938637150777,2563.03022227755
-0.0575406437226055,2563.04022227755
-0.0714000431314481,2563.05022227755
-0.0853384215129452,2563.06022227755
-0.0988572486344467,2563.07022227755
-0.112340749173031,2563.08022227755
-0.125326411659554,2563.09022227755
-0.137944656938637,2563.10022227755
-0.150442314979219,2563.11022227755
-0.163562608440919,2563.12022227755
-0.176864573806483,2563.13022227755
-0.190348314190099,2563.14022227755
-0.204011149872366,2563.15022227755
-0.216874910012925,2563.16022227755
-0.226767334256442,2563.17022227755
-0.230644421194455,2563.18022227755
-0.224972336172492,2563.19022227755
-0.208440124729742,2563.20022227755
-0.180067931254382,2563.21022227755
-0.141255498823702,2563.22022227755
-0.0954909109373307,2563.23022227755
-0.0462474391770835,2563.24022227755
0.00213996149187982,2563.25022227755
0.0461626585522965,2563.26022227755
0.0851461724262013,2563.27022227755
0.117431300540273,2563.28022227755
0.143515209643445,2563.29022227755
0.163693554275772,2563.30022227755
0.178991214439632,2563.31022227755
0.1900379350426,2563.32022227755
0.197942823872436,2563.33022227755
0.203572709150798,2563.34022227755
0.207960661985336,2563.35022227755
0.211815932256756,2563.36022227755
0.216088901547623,2563.37022227755
0.22010439772894,2563.38022227755
0.223690525283022,2563.39022227755
0.227374448377867,2563.40022227755
0.230628185422006,2563.41022227755
0.232723996055691,2563.42022227755
0.232938009952039,2563.43022227755
0.230308576245051,2563.44022227755
0.225052828954357,2563.45022227755
0.2171482245114,2563.46022227755
0.207666417675375,2563.47022227755
0.19730436522462,2563.48022227755
0.187021696988125,2563.49022227755
0.177950984251766,2563.50022227755
0.170281974387713,2563.51022227755
0.164175571765309,2563.52022227755
0.159812345093907,2563.53022227755
0.157075294331262,2563.54022227755
0.155464895452061,2563.55022227755
0.155108567197788,2563.56022227755
0.155156319751407,2563.57022227755
0.154828678490609,2563.58022227755
0.154104382257131,2563.59022227755
0.152711151996989,2563.60022227755
0.151080636296029,2563.61022227755
0.148879105973219,2563.62022227755
0.146353781194905,2563.63022227755
0.143653109223341,2563.64022227755
0.140250343167307,2563.65022227755
0.135322291374702,2563.66022227755
0.12939983635665,2563.67022227755
0.12291031416128,2563.68022227755
0.114565572250453,2563.69022227755
0.106117496542619,2563.70022227755
0.0966430419035197,2563.71022227755
0.0862207267324538,2563.72022227755
0.0751730212683845,2563.73022227755
0.0640682383239794,2563.74022227755
0.0530286642464461,2563.75022227755
0.0415851199582275,2563.76022227755
0.029331381844607,2563.77022227755
0.0168781110192487,2563.78022227755
0.00448879494282616,2563.79022227755
-0.00750992649250342,2563.80022227755
-0.0190424472556492,2563.81022227755
-0.0300704856398096,2563.82022227755
-0.040442462456559,2563.83022227755
-0.050294452392015,2563.84022227755
-0.06050457072788,2563.85022227755
-0.0704542932627593,2563.86022227755
-0.0805981575395743,2563.87022227755
-0.0908733952364233,2563.88022227755
-0.101568691639773,2563.89022227755
-0.112665165011491,2563.90022227755
-0.123868947899588,2563.91022227755
-0.135476808096461,2563.92022227755
-0.147617899016777,2563.93022227755
-0.159678310145952,2563.94022227755
-0.171848241106949,2563.95022227755
-0.184304774952032,2563.96022227755
-0.1965019717493,2563.97022227755
-0.20884066388433,2563.98022227755
-0.220577878572285,2563.99022227755
-0.232538808365913,2564.00022227755
-0.24456477257372,2564.01022227755
-0.255814213693739,2564.02022227755
-0.266983898754049,2564.03022227755
-0.277798268503918,2564.04022227755
-0.28825758654859,2564.05022227755
-0.298550977676884,2564.06022227755
-0.309906576754322,2564.07022227755
-0.321411603760031,2564.08022227755
-0.333456525851576,2564.09022227755
-0.345320780275791,2564.10022227755
-0.357080957492292,2564.11022227755
-0.368756780953487,2564.12022227755
-0.38061196668678,2564.13022227755
-0.392114820575068,2564.14022227755
-0.403085818450235,2564.15022227755
-0.412305771146626,2564.16022227755
-0.417972295696366,2564.17022227755
-0.417272540474722,2564.18022227755
-0.407616932802659,2564.19022227755
-0.387760329366617,2564.20022227755
-0.357754643488581,2564.21022227755
-0.318750459175503,2564.22022227755
-0.273620945549186,2564.23022227755
-0.225900098226882,2564.24022227755
-0.17917787140273,2564.25022227755
-0.136362395674618,2564.26022227755
-0.0985982827356877,2564.27022227755
-0.0662285963049513,2564.28022227755
-0.0397471568936426,2564.29022227755
-0.0190439201410173,2564.30022227755
-0.00313451486436941,2564.31022227755
0.00863035556395663,2564.32022227755
0.0171656408908107,2564.33022227755
0.0233795521881428,2564.34022227755
0.0281556280078127,2564.35022227755
0.0317491432295498,2564.36022227755
0.0344426199605899,2564.37022227755
0.035997661380648,2564.38022227755
0.0366277017183678,2564.39022227755
0.0362988279682374,2564.40022227755
0.0354678532494175,2564.41022227755
0.0337428269658309,2564.42022227755
0.0316414705852509,2564.43022227755
0.0289560294386406,2564.44022227755
0.0253407030674347,2564.45022227755
0.0208740382995564,2564.46022227755
0.0154062601333649,2564.47022227755
0.010482918342451,2564.48022227755
0.0064653931839446,2564.49022227755
0.0035211815010755,2564.50022227755
0.00201204774238337,2564.51022227755
0.00193610023289562,2564.52022227755
0.00307467041065616,2564.53022227755
0.00495857904038318,2564.54022227755
0.00827489239036934,2564.55022227755
0.0120907769547007,2564.56022227755
0.0162638287182927,2564.57022227755
0.0198666391853574,2564.58022227755
0.023209782865755,2564.59022227755
0.0256212323909541,2564.60022227755
0.0269112156303119,2564.61022227755
0.0271342375375593,2564.62022227755
0.0266498369946761,2564.63022227755
0.0253731868306641,2564.64022227755
0.0225963343477602,2564.65022227755
0.0189437879514356,2564.66022227755
0.0145200003304384,2564.67022227755
0.00914978895087658,2564.68022227755
0.00312152284617774,2564.69022227755
-0.00322676511815737,2564.70022227755
-0.0102253641218075,2564.71022227755
-0.0176067132855413,2564.72022227755
-0.0251480550054658,2564.73022227755
-0.0323688539824779,2564.74022227755
-0.0391951807300823,2564.75022227755
-0.045682219143301,2564.76022227755
-0.0520576824159263,2564.77022227755
-0.0583372074492501,2564.78022227755
-0.0644016578880614,2564.79022227755
-0.070195322768222,2564.80022227755
-0.0755752072364858,2564.81022227755
-0.0812535506911572,2564.82022227755
-0.0868503616031995,2564.83022227755
-0.092021651079677,2564.84022227755
-0.0970818731867582,2564.85022227755
-0.101778891679098,2564.86022227755
-0.106456577918465,2564.87022227755
-0.112256462416172,2564.88022227755
-0.119252384510429,2564.89022227755
-0.126877498490496,2564.90022227755
-0.135298059225574,2564.91022227755
-0.143255440528852,2564.92022227755
-0.15100311236876,2564.93022227755
-0.158195267347009,2564.94022227755
-0.164292345492563,2564.95022227755
-0.170422365855581,2564.96022227755
-0.176700752059743,2564.97022227755
-0.183422027324043,2564.98022227755
-0.190243002794967,2564.99022227755
-0.197003393139396,2565.00022227755
-0.203438714279061,2565.01022227755
-0.210002031966262,2565.02022227755
-0.216088815762593,2565.03022227755
-0.222162824124383,2565.04022227755
-0.228608012375977,2565.05022227755
-0.234843861090394,2565.06022227755
-0.241359912320795,2565.07022227755
-0.246443982964468,2565.08022227755
-0.248284433896056,2565.09022227755
-0.245081435699583,2565.10022227755
-0.23459424920907,2565.11022227755
-0.216149567249506,2565.12022227755
-0.188706455351186,2565.13022227755
-0.154270119687655,2565.14022227755
-0.114745475223741,2565.15022227755
-0.0715784022081715,2565.16022227755
-0.0284174297682523,2565.17022227755
0.0132779638015783,2565.18022227755
0.0516153844494198,2565.19022227755
0.085449540009583,2565.20022227755
0.114057441239782,2565.21022227755
0.137796334554155,2565.22022227755
0.157221358360883,2565.23022227755
0.173134427492551,2565.24022227755
0.185759457475259,2565.25022227755
0.196791907417578,2565.26022227755
0.205989255752755,2565.27022227755
0.213726590300301,2565.28022227755
0.220848880719443,2565.29022227755
0.22703492849651,2565.30022227755
0.232411354084426,2565.31022227755
0.237579376924553,2565.32022227755
0.242198385225941,2565.33022227755
0.2466666046343,2565.34022227755
0.250541475001472,2565.35022227755
0.253170757206072,2565.36022227755
0.253789269305825,2565.37022227755
0.252321268045031,2565.38022227755
0.249181356307483,2565.39022227755
0.245077519739234,2565.40022227755
0.240790491282277,2565.41022227755
0.23752961355284,2565.42022227755
0.234803518527696,2565.43022227755
0.233672909134604,2565.44022227755
0.234026502891353,2565.45022227755
0.235132836983698,2565.46022227755
0.237613668747531,2565.47022227755
0.240549065700808,2565.48022227755
0.244071652786137,2565.49022227755
0.247701828384192,2565.50022227755
0.250998309139439,2565.51022227755
0.253405602316673,2565.52022227755
0.2556354900488,2565.53022227755
0.256952480617591,2565.54022227755
0.257604975995926,2565.55022227755
0.257266065601161,2565.56022227755
0.2557214456688,2565.57022227755
0.252762282014896,2565.58022227755
0.249136811719613,2565.59022227755
0.244795280162138,2565.60022227755
0.239453791573797,2565.61022227755
0.233624362280152,2565.62022227755
0.227111273747745,2565.63022227755
0.221069893895315,2565.64022227755
0.2146856584545,2565.65022227755
0.207698016674355,2565.66022227755
0.200169608164102,2565.67022227755
0.19231465585723,2565.68022227755
0.184482535603402,2565.69022227755
0.177222311215746,2565.70022227755
0.170255684528521,2565.71022227755
0.163304796019781,2565.72022227755
0.156214676861387,2565.73022227755
0.148745008690269,2565.74022227755
0.140923387826935,2565.75022227755
0.132938176481088,2565.76022227755
0.12490730622535,2565.77022227755
0.116783439135005,2565.78022227755
0.108722996548938,2565.79022227755
0.101179398386186,2565.80022227755
0.0937619748063724,2565.81022227755
0.0865626206169339,2565.82022227755
0.0798326415588538,2565.83022227755
0.073006753593066,2565.84022227755
0.0656273004173314,2565.85022227755
0.0579381232688813,2565.86022227755
0.0497019653002357,2565.87022227755
0.0412854598340868,2565.88022227755
0.0322647805057375,2565.89022227755
0.0226388030085388,2565.90022227755
0.0136000836409611,2565.91022227755
0.00453271586267461,2565.92022227755
-0.00374099045390462,2565.93022227755
-0.0110841816863908,2565.94022227755
-0.0187535955212519,2565.95022227755
-0.0265486644090659,2565.96022227755
-0.0346035161855379,2565.97022227755
-0.0427187597770234,2565.98022227755
-0.0512580800163669,2565.99022227755
-0.0598834604070616,2566.00022227755
-0.068488106441923,2566.01022227755
-0.076821621954979,2566.02022227755
-0.0850142716752145,2566.03022227755
-0.0930490939369781,2566.04022227755
-0.10104898925335,2566.05022227755
-0.109602322102791,2566.06022227755
-0.117349645880653,2566.07022227755
-0.125065179628242,2566.08022227755
-0.131471145339095,2566.09022227755
-0.135197711822238,2566.10022227755
-0.133702001081961,2566.11022227755
-0.123898302930069,2566.12022227755
-0.105187724678758,2566.13022227755
-0.077435175016066,2566.14022227755
-0.0412563152610712,2566.15022227755
0.00074193513871875,2566.16022227755
0.0464510580531346,2566.17022227755
0.0930438397047985,2566.18022227755
0.137456743440191,2566.19022227755
0.177952715781305,2566.20022227755
0.212905897972872,2566.21022227755
0.242030560892482,2566.22022227755
0.264679407972275,2566.23022227755
0.282410386829336,2566.24022227755
0.295754467122852,2566.25022227755
0.305103042547308,2566.26022227755
0.312034873907048,2566.27022227755
0.316870971650151,2566.28022227755
0.319803998224986,2566.29022227755
0.322312592092225,2566.30022227755
0.323965997507216,2566.31022227755
0.325466937046102,2566.32022227755
0.327227823405505,2566.33022227755
0.328698897310691,2566.34022227755
0.330140897322095,2566.35022227755
0.330342148427966,2566.36022227755
0.329251615408472,2566.37022227755
0.326878867022272,2566.38022227755
0.323171502986712,2566.39022227755
0.318080228864943,2566.40022227755
0.312451023463007,2566.41022227755
0.306360817060605,2566.42022227755
0.300967675789044,2566.43022227755
0.296054576866141,2566.44022227755
0.292216524709288,2566.45022227755
0.289561760821987,2566.46022227755
0.2877879639509,2566.47022227755
0.286611626515327,2566.48022227755
0.286103735086266,2566.49022227755
0.285444694834872,2566.50022227755
0.284698638894938,2566.51022227755
0.284107638036856,2566.52022227755
0.284099135964712,2566.53022227755
0.284213227201447,2566.54022227755
0.283825002445433,2566.55022227755
0.281688020640896,2566.56022227755
0.278246515603056,2566.57022227755
0.273049744422378,2566.58022227755
0.267032635946953,2566.59022227755
0.26072838876856,2566.60022227755
0.254212862944351,2566.61022227755
0.24725243466331,2566.62022227755
0.239982028335453,2566.63022227755
0.231325950997477,2566.64022227755
0.221864856200898,2566.65022227755
0.21126991524733,2566.66022227755
0.200306693198245,2566.67022227755
0.189447384849505,2566.68022227755
0.179042894105595,2566.69022227755
0.169350192865878,2566.70022227755
0.15960899591464,2566.71022227755
0.149985292136008,2566.72022227755
0.139904809648246,2566.73022227755
0.129104925891999,2566.74022227755
0.117851960079805,2566.75022227755
0.107343276333152,2566.76022227755
0.0972270201808586,2566.77022227755
0.0875916193748311,2566.78022227755
0.0778025278308951,2566.79022227755
0.0681472351626013,2566.80022227755
0.0583372777689438,2566.81022227755
0.0483247182324035,2566.82022227755
0.038169873603514,2566.83022227755
0.0280816560372709,2566.84022227755
0.0183754980181783,2566.85022227755
0.00901097728043633,2566.86022227755
-0.000114792263657114,2566.87022227755
-0.00943194008945291,2566.88022227755
-0.0189957695199944,2566.89022227755
-0.0283664643853537,2566.90022227755
-0.0377900028344167,2566.91022227755
-0.0469561188009951,2566.92022227755
-0.0560558867961886,2566.93022227755
-0.0649502830876909,2566.94022227755
-0.0735276542640162,2566.95022227755
-0.0826604532798141,2566.96022227755
-0.0911677510126197,2566.97022227755
-0.0992938168578805,2566.98022227755
-0.10731228752109,2566.99022227755
-0.11463327789395,2567.00022227755
-0.122673929935891,2567.01022227755
-0.1313298013274,2567.02022227755
-0.140596277741816,2567.03022227755
-0.149901227793794,2567.04022227755
-0.159452522983243,2567.05022227755
-0.169238614563319,2567.06022227755
-0.178578935069416,2567.07022227755
-0.188465584124156,2567.08022227755
-0.197750657106265,2567.09022227755
-0.206218099678402,2567.10022227755
-0.21334494814222,2567.11022227755
-0.218195424941669,2567.12022227755
-0.21890697896798,2567.13022227755
-0.21352664910041,2567.14022227755
-0.200069767569965,2567.15022227755
-0.177006733691284,2567.16022227755
-0.145300497629423,2567.17022227755
-0.106224277523516,2567.18022227755
-0.0629075990832589,2567.19022227755
-0.0179120996864659,2567.20022227755
0.0258946105937813,2567.21022227755
0.06632081108969,2567.22022227755
0.101577149587765,2567.23022227755
0.130689095251219,2567.24022227755
0.153960957993616,2567.25022227755
0.172039996563484,2567.26022227755
0.185144334699286,2567.27022227755
0.195092731414573,2567.28022227755
0.201935592970559,2567.29022227755
0.206579923323364,2567.30022227755
0.209406282417857,2567.31022227755
0.210991766825878,2567.32022227755
0.211644276466333,2567.33022227755
0.211995258972837,2567.34022227755
0.212396705818994,2567.35022227755
0.212205041634067,2567.36022227755
0.211038941691004,2567.37022227755
0.20891739941915,2567.38022227755
0.205404648737031,2567.39022227755
0.200911881782247,2567.40022227755
0.19487772146562,2567.41022227755
0.18817439970527,2567.42022227755
0.180899589033373,2567.43022227755
0.174231327116039,2567.44022227755
0.168423189410637,2567.45022227755
0.163852456642069,2567.46022227755
0.160537956815751,2567.47022227755
0.158980357207649,2567.48022227755
0.159369599573956,2567.49022227755
0.161245469008654,2567.50022227755
0.163845730218955,2567.51022227755
0.167366519070327,2567.52022227755
0.170886951029341,2567.53022227755
0.173967465319168,2567.54022227755
0.177323337282484,2567.55022227755
0.17932889242913,2567.56022227755
0.18042086353401,2567.57022227755
0.181114079279001,2567.58022227755
0.1803968054851,2567.59022227755
0.17880650128236,2567.60022227755
0.176079125069793,2567.61022227755
0.171780755034928,2567.62022227755
0.16647420593588,2567.63022227755
0.159725576995854,2567.64022227755
0.152388756479098,2567.65022227755
0.14439774055558,2567.66022227755
0.136306414544312,2567.67022227755
0.12804950749031,2567.68022227755
0.120313098420321,2567.69022227755
0.112712901746565,2567.70022227755
0.105353554124139,2567.71022227755
0.0981087208095058,2567.72022227755
0.0904591736916374,2567.73022227755
0.083019894780098,2567.74022227755
0.07497445907038,2567.75022227755
0.0658283479921934,2567.76022227755
0.0564514355932595,2567.77022227755
0.0468640593024569,2567.78022227755
0.0378249271035591,2567.79022227755
0.0299411478908442,2567.80022227755
0.0228568583503442,2567.81022227755
0.0162068988450875,2567.82022227755
0.0105257072779115,2567.83022227755
0.00551404467774685,2567.84022227755
0.000418274262263554,2567.85022227755
-0.00432222841021545,2567.86022227755
-0.00904534227435038,2567.87022227755
-0.0141544022170833,2567.88022227755
-0.0201347036674482,2567.89022227755
-0.0266454816422022,2567.90022227755
-0.0336456612789542,2567.91022227755
-0.0409898266264536,2567.92022227755
-0.0483240940652813,2567.93022227755
-0.0560410503161069,2567.94022227755
-0.0639428822101062,2567.95022227755
-0.0716197743880145,2567.96022227755
-0.0795667215760239,2567.97022227755
-0.0878489829975858,2567.98022227755
-0.0961087434022436,2567.99022227755
-0.104480129864887,2568.00022227755
-0.112925566754943,2568.01022227755
-0.122090050818495,2568.02022227755
-0.13112043617548,2568.03022227755
-0.140045681037709,2568.04022227755
-0.148681224401118,2568.05022227755
-0.156707330373726,2568.06022227755
-0.165130963350756,2568.07022227755
-0.172598041433238,2568.08022227755
-0.178771501944336,2568.09022227755
-0.182940686483378,2568.10022227755
-0.182349613711404,2568.11022227755
-0.175210162906606,2568.12022227755
-0.159393033856645,2568.13022227755
-0.133946533408367,2568.14022227755
-0.0987391301216486,2568.15022227755
-0.0553720329829267,2568.16022227755
-0.00613505644689591,2568.17022227755
0.045808086292592,2568.18022227755
0.0960492525717078,2568.19022227755
0.142335378457923,2568.20022227755
0.18274951166992,2568.21022227755
0.215784471225032,2568.22022227755
0.24246256994237,2568.23022227755
0.262741744780108,2568.24022227755
0.278538676748226,2568.25022227755
0.290152984223327,2568.26022227755
0.299048801309079,2568.27022227755
0.306223808832553,2568.28022227755
0.311696000752822,2568.29022227755
0.316026186912256,2568.30022227755
0.319299573974207,2568.31022227755
0.322445901985085,2568.32022227755
0.324909039861001,2568.33022227755
0.327678619853038,2568.34022227755
0.329628423077717,2568.35022227755
0.330450955046092,2568.36022227755
0.329654947884138,2568.37022227755
0.326971161949717,2568.38022227755
0.322493896178253,2568.39022227755
0.316779734107878,2568.40022227755
0.309803055860128,2568.41022227755
0.302931981506257,2568.42022227755
0.296492826841411,2568.43022227755
0.291898739159096,2568.44022227755
0.288757721212707,2568.45022227755
0.286890464749248,2568.46022227755
0.286194694962951,2568.47022227755
0.28634068458759,2568.48022227755
0.286531732915084,2568.49022227755
0.287664464705033,2568.50022227755
0.289021460304326,2568.51022227755
0.290565211287552,2568.52022227755
0.292694244303513,2568.53022227755
0.295182650684597,2568.54022227755
0.29689013257756,2568.55022227755
0.297345754029681,2568.56022227755
0.296312484696572,2568.57022227755
0.293816642213081,2568.58022227755
0.29025792651178,2568.59022227755
0.285206538473098,2568.60022227755
0.279319153687261,2568.61022227755
0.272047646260007,2568.62022227755
0.264070941454841,2568.63022227755
0.255729521039174,2568.64022227755
0.247297931666715,2568.65022227755
0.238128837273362,2568.66022227755
0.227862819348641,2568.67022227755
0.217476845555746,2568.68022227755
0.206183807705726,2568.69022227755
0.194862194636159,2568.70022227755
0.184005755415026,2568.71022227755
0.17363793618275,2568.72022227755
0.163371097473625,2568.73022227755
0.153407969909973,2568.74022227755
0.143062752705636,2568.75022227755
0.133116033065408,2568.76022227755
0.123504405650183,2568.77022227755
0.114286467311086,2568.78022227755
0.105287249515079,2568.79022227755
0.0966961808696685,2568.80022227755
0.0877396215709114,2568.81022227755
0.0785573747776983,2568.82022227755
0.0693643487984741,2568.83022227755
0.0600632300803214,2568.84022227755
0.0510019141147382,2568.85022227755
0.0420513432887355,2568.86022227755
0.0335176097018335,2568.87022227755
0.0250236713374728,2568.88022227755
0.01684414989081,2568.89022227755
0.00830252787566134,2568.90022227755
0.000395620298103638,2568.91022227755
-0.00768498348547906,2568.92022227755
-0.0162602659280066,2568.93022227755
-0.0251276963173569,2568.94022227755
-0.0337444014070967,2568.95022227755
-0.0422519212240164,2568.96022227755
-0.050214004591217,2568.97022227755
-0.0581269580191741,2568.98022227755
-0.0658752839503532,2568.99022227755
-0.0731935920127985,2569.00022227755
-0.0811649307193427,2569.01022227755
-0.0890771703905742,2569.02022227755
-0.0968537432957523,2569.03022227755
-0.105145720164434,2569.04022227755
-0.113631503472024,2569.05022227755
-0.122346028489958,2569.06022227755
-0.13174130258487,2569.07022227755
-0.141027297782918,2569.08022227755
-0.150324314700433,2569.09022227755
-0.159668211846083,2569.10022227755
-0.169056275273943,2569.11022227755
-0.177215907999567,2569.12022227755
-0.183707545527107,2569.13022227755
-0.186753184129744,2569.14022227755
-0.184138086765907,2569.15022227755
-0.172916841298752,2569.16022227755
-0.151664118381863,2569.17022227755
-0.119798403250654,2569.18022227755
-0.0792693066794359,2569.19022227755
-0.0323987549348407,2569.20022227755
0.017951476633166,2569.21022227755
0.0693065806081976,2569.22022227755
0.118197802807002,2569.23022227755
0.162887394034237,2569.24022227755
0.201249146203111,2569.25022227755
0.232717922003835,2569.26022227755
0.257843551528151,2569.27022227755
0.277190920797255,2569.28022227755
0.29158071255238,2569.29022227755
0.301904322543412,2569.30022227755
0.308777762403936,2569.31022227755
0.313760696597389,2569.32022227755
0.317191182836176,2569.33022227755
0.319672883127354,2569.34022227755
0.321859983425206,2569.35022227755
0.324302185995942,2569.36022227755
0.325666093565764,2569.37022227755
0.326347386778749,2569.38022227755
0.325366276258625,2569.39022227755
0.322418049843396,2569.40022227755
0.318008685258245,2569.41022227755
0.311868464470521,2569.42022227755
0.304654343782847,2569.43022227755
0.297130589785339,2569.44022227755
0.290038398971758,2569.45022227755
0.283492829143078,2569.46022227755
0.277429089525552,2569.47022227755
0.272601787561661,2569.48022227755
0.269033162937,2569.49022227755
0.266622422211892,2569.50022227755
0.265861719989538,2569.51022227755
0.265853576636164,2569.52022227755
0.266498666594855,2569.53022227755
0.267641547259098,2569.54022227755
0.268439164610579,2569.55022227755
0.268888687625227,2569.56022227755
0.269254843097121,2569.57022227755
0.269057134535929,2569.58022227755
0.268298157418693,2569.59022227755
0.266433640603352,2569.60022227755
0.263496497714748,2569.61022227755
0.259103114603565,2569.62022227755
0.253191482414876,2569.63022227755
0.24595526897505,2569.64022227755
0.237341162554577,2569.65022227755
0.228014554094965,2569.66022227755
0.218287969458139,2569.67022227755
0.207863766369212,2569.68022227755
0.197008635853218,2569.69022227755
0.186132894834935,2569.70022227755
0.174369541040854,2569.71022227755
0.162158536426221,2569.72022227755
0.150321732648402,2569.73022227755
0.13849791749521,2569.74022227755
0.126337322355768,2569.75022227755
0.113647478030804,2569.76022227755
0.101199616789513,2569.77022227755
0.0893319455885614,2569.78022227755
0.0781284541629853,2569.79022227755
0.0673178008494115,2569.80022227755
0.057254896143295,2569.81022227755
0.0475993775164727,2569.82022227755
0.0376974913198923,2569.83022227755
0.0277858155702973,2569.84022227755
0.0177796232406093,2569.85022227755
0.00749274139299917,2569.86022227755
-0.00267252682894002,2569.87022227755
-0.0128122789724732,2569.88022227755
-0.023207213339115,2569.89022227755
-0.033628690661484,2569.90022227755
-0.0446327250444419,2569.91022227755
-0.0557816796095444,2569.92022227755
-0.0668020058562822,2569.93022227755
-0.0780967173754858,2569.94022227755
-0.0891710523994457,2569.95022227755
-0.0999591867486919,2569.96022227755
-0.110563856949277,2569.97022227755
-0.120743149960277,2569.98022227755
-0.130237290943164,2569.99022227755
-0.139637930916345,2570.00022227755
-0.148782464144909,2570.01022227755
-0.158173272485735,2570.02022227755
-0.167786255081126,2570.03022227755
-0.178277041230946,2570.04022227755
-0.18845848900587,2570.05022227755
-0.198909916006285,2570.06022227755
-0.209382798103181,2570.07022227755
-0.219743205113952,2570.08022227755
-0.230174853856103,2570.09022227755
-0.241021899551582,2570.10022227755
-0.251169426958311,2570.11022227755
-0.261435382717544,2570.12022227755
-0.271694616251564,2570.13022227755
-0.282368704096318,2570.14022227755
-0.292643944742359,2570.15022227755
-0.302566740957289,2570.16022227755
-0.311287242327645,2570.17022227755
-0.317686190070563,2570.18022227755
-0.319197900388521,2570.19022227755
-0.313481069419404,2570.20022227755
-0.2986419161827,2570.21022227755
-0.272976363758374,2570.22022227755
-0.237628155802776,2570.23022227755
-0.194546827672576,2570.24022227755
-0.147089737674953,2570.25022227755
-0.0974095918271237,2570.26022227755
-0.04898374776064,2570.27022227755
-0.00492285498425916,2570.28022227755
0.0336045678704237,2570.29022227755
0.0658559015835948,2570.30022227755
0.0911180789506217,2570.31022227755
0.110545664431925,2570.32022227755
0.124729839919076,2570.33022227755
0.134591733283089,2570.34022227755
0.140473233177013,2570.35022227755
0.143147140598801,2570.36022227755
0.144151837569265,2570.37022227755
0.143447848124655,2570.38022227755
0.141452103439627,2570.39022227755
0.140001313141537,2570.40022227755
0.138472903582058,2570.41022227755
0.13744054770515,2570.42022227755
0.135586175854005,2570.43022227755
0.133394185227252,2570.44022227755
0.12998088870798,2570.45022227755
0.125107488992109,2570.46022227755
0.118484944950239,2570.47022227755
0.111303999624962,2570.48022227755
0.103480930696371,2570.49022227755
0.095729149565998,2570.50022227755
0.0886491227558718,2570.51022227755
0.0826450774319029,2570.52022227755
0.0789320424132648,2570.53022227755
0.076845858434623,2570.54022227755
0.0763782338659119,2570.55022227755
0.0774249023728192,2570.56022227755
0.0793212776019642,2570.57022227755
0.0815801272136401,2570.58022227755
0.0844064007547364,2570.59022227755
0.0874443005620473,2570.60022227755
0.0897076466595397,2570.61022227755
0.0908885454057972,2570.62022227755
0.0912349903139661,2570.63022227755
0.0904859362107013,2570.64022227755
0.0886731632164167,2570.65022227755
0.0852265528981838,2570.66022227755
0.0805297062719991,2570.67022227755
0.0745706315185856,2570.68022227755
0.0674129061590941,2570.69022227755
0.0597851923290625,2570.70022227755
0.0512429884965835,2570.71022227755
0.0420950210982883,2570.72022227755
0.0325273364573242,2570.73022227755
0.0230949407868573,2570.74022227755
0.0135743844712792,2570.75022227755
0.00394968504070578,2570.76022227755
-0.00519341115534139,2570.77022227755
-0.0149168096712606,2570.78022227755
-0.0245674525334191,2570.79022227755
-0.0341441609570717,2570.80022227755
-0.0436801022137787,2570.81022227755
-0.0531267537535961,2570.82022227755
-0.0625168946504636,2570.83022227755
-0.0716108849194459,2570.84022227755
-0.080495978658026,2570.85022227755
-0.088446178672524,2570.86022227755
-0.0959430188527453,2570.87022227755
-0.102561503127688,2570.88022227755
-0.108567359678029,2570.89022227755
-0.114505923675008,2570.90022227755
-0.12017606886335,2570.91022227755
-0.126028113491999,2570.92022227755
-0.131606631425557,2570.93022227755
-0.136800696785105,2570.94022227755
-0.142477494439649,2570.95022227755
-0.14811305773897,2570.96022227755
-0.15443194395046,2570.97022227755
-0.160778438284148,2570.98022227755
-0.167175643114445,2570.99022227755
-0.173690433061129,2571.00022227755
-0.179725649065342,2571.01022227755
-0.185756728795775,2571.02022227755
-0.191597015025707,2571.03022227755
-0.197404318916773,2571.04022227755
-0.203709075348126,2571.05022227755
-0.210187193197668,2571.06022227755
-0.216341987579715,2571.07022227755
-0.220883319543432,2571.08022227755
-0.220990685042464,2571.09022227755
-0.214769287907022,2571.10022227755
-0.199925808451321,2571.11022227755
-0.175123087261971,2571.12022227755
-0.140588975774614,2571.13022227755
-0.0966679910528571,2571.14022227755
-0.0461889838907489,2571.15022227755
0.00822698145255603,2571.16022227755
0.0632555054674054,2571.17022227755
0.11595554235503,2571.18022227755
0.164655943131228,2571.19022227755
0.207711761773636,2571.20022227755
0.244478397068568,2571.21022227755
0.274345902208806,2571.22022227755
0.297895309622814,2571.23022227755
0.315302523245066,2571.24022227755
0.326948244672437,2571.25022227755
0.334597688194305,2571.26022227755
0.339465025572637,2571.27022227755
0.343169531586803,2571.28022227755
0.34586271083341,2571.29022227755
0.348178822571938,2571.30022227755
0.350221572484352,2571.31022227755
0.351661883744119,2571.32022227755
0.351878836772545,2571.33022227755
0.350874327852342,2571.34022227755
0.347672574633796,2571.35022227755
0.342730558613809,2571.36022227755
0.336063162961185,2571.37022227755
0.328912883798127,2571.38022227755
0.322217094536255,2571.39022227755
0.316173118708766,2571.40022227755
0.312326713154349,2571.41022227755
0.30992681217039,2571.42022227755
0.309069107997967,2571.43022227755
0.309807197356078,2571.44022227755
0.311150116426961,2571.45022227755
0.31338274873732,2571.46022227755
0.315423190045384,2571.47022227755
0.317377344417568,2571.48022227755
0.319614762314586,2571.49022227755
0.3218044479284,2571.50022227755
0.324641468590961,2571.51022227755
0.327853142387948,2571.52022227755
0.331285593186394,2571.53022227755
0.333538355133277,2571.54022227755
0.334430275771768,2571.55022227755
0.332960031580923,2571.56022227755
0.329132399890208,2571.57022227755
0.323543683641203,2571.58022227755
0.317147137641886,2571.59022227755
0.311063565373423,2571.60022227755
0.304981068489094,2571.61022227755
0.298354912946944,2571.62022227755
0.291779234403919,2571.63022227755
0.284405325211129,2571.64022227755
0.276228007701007,2571.65022227755
0.267431464357496,2571.66022227755
0.257542256495325,2571.67022227755
0.24698104107968,2571.68022227755
0.236090040786389,2571.69022227755
0.224958042044789,2571.70022227755
0.214143836246037,2571.71022227755
0.203631943943901,2571.72022227755
0.193392598647277,2571.73022227755
0.183179957317711,2571.74022227755
0.172516866289229,2571.75022227755
0.160721546817162,2571.76022227755
0.147451463585676,2571.77022227755
0.133439324062819,2571.78022227755
0.118899447021757,2571.79022227755
0.105027875014484,2571.80022227755
0.0910179505762396,2571.81022227755
0.077546503144943,2571.82022227755
0.0642846987352083,2571.83022227755
0.0510452283157403,2571.84022227755
0.0379677670490539,2571.85022227755
0.0243334663178529,2571.86022227755
0.0107490812151799,2571.87022227755
-0.0030275940427067,2571.88022227755
-0.0163228062567859,2571.89022227755
-0.0283780313383198,2571.90022227755
-0.0405316543264296,2571.91022227755
-0.0526338733807387,2571.92022227755
-0.0646135457305212,2571.93022227755
-0.0768595135899462,2571.94022227755
-0.089013610016269,2571.95022227755
-0.101225188338772,2571.96022227755
-0.113830487196939,2571.97022227755
-0.1263663039412,2571.98022227755
-0.138601327323454,2571.99022227755
-0.148475564674248,2572.00022227755
-0.153156534053129,2572.01022227755
-0.150222759599667,2572.02022227755
-0.137527945198035,2572.03022227755
-0.11554843424941,2572.04022227755
-0.0867725287656208,2572.05022227755
-0.0540365478467726,2572.06022227755
-0.0208599974466308,2572.07022227755
0.00990511234791991,2572.08022227755
0.0360557742783155,2572.09022227755
0.0555096250288986,2572.10022227755
0.0683278826990874,2572.11022227755
0.0745442844898435,2572.12022227755
0.0741091244931082,2572.13022227755
0.0687186881986335,2572.14022227755
0.0591600806967083,2572.15022227755
0.0467505826258501,2572.16022227755
0.0325695317822349,2572.17022227755
0.0169957146131622,2572.18022227755
0.00162655237411308,2572.19022227755
-0.0128458978182042,2572.20022227755
-0.0260316250027241,2572.21022227755
-0.0373771680384649,2572.22022227755
-0.0476163012661764,2572.23022227755
-0.0578876678857934,2572.24022227755
-0.0689939019045521,2572.25022227755
-0.082625151611882,2572.26022227755
-0.0984677589469549,2572.27022227755
-0.116973960280525,2572.28022227755
-0.137921127968841,2572.29022227755
-0.160479977816614,2572.30022227755
-0.183593808857907,2572.31022227755
-0.206351953499916,2572.32022227755
-0.227315345249266,2572.33022227755
-0.246808767585133,2572.34022227755
-0.263857420602144,2572.35022227755
-0.278926695701472,2572.36022227755
-0.292315851053408,2572.37022227755
-0.304020466778243,2572.38022227755
-0.314869009734404,2572.39022227755
-0.325030946056616,2572.40022227755
-0.335055823238338,2572.41022227755
-0.345738731255347,2572.42022227755
-0.357250010776138,2572.43022227755
-0.370395286905687,2572.44022227755
-0.385004610601758,2572.45022227755
-0.400780266473193,2572.46022227755
-0.418756247571689,2572.47022227755
-0.43841784578984,2572.48022227755
-0.460731384154004,2572.49022227755
-0.485304289414662,2572.50022227755
-0.511445278449682,2572.51022227755
-0.538338289987901,2572.52022227755
-0.565760693577255,2572.53022227755
-0.592720442876321,2572.54022227755
-0.619191524441571,2572.55022227755
-0.645757210818551,2572.56022227755
-0.671997673159939,2572.57022227755
-0.697719270704804,2572.58022227755
-0.722438904126406,2572.59022227755
-0.746155606380796,2572.60022227755
-0.768750404679465,2572.61022227755
-0.790220661996876,2572.62022227755
-0.810470559940318,2572.63022227755
-0.829477180624652,2572.64022227755
-0.84747330743133,2572.65022227755
-0.865034126590846,2572.66022227755
-0.88186658761873,2572.67022227755
-0.897890806464241,2572.68022227755
-0.913631883291594,2572.69022227755
-0.929159559416865,2572.70022227755
-0.945000875965306,2572.71022227755
-0.961659948672814,2572.72022227755
-0.978252774573398,2572.73022227755
-0.994722652404912,2572.74022227755
-1.0115596760033,2572.75022227755
-1.02718335322754,2572.76022227755
-1.04205026946021,2572.77022227755
-1.05591799664305,2572.78022227755
-1.06865750200295,2572.79022227755
-1.08041666480387,2572.80022227755
-1.09135304613756,2572.81022227755
-1.1017119003638,2572.82022227755
-1.11182267507081,2572.83022227755
-1.12193674097459,2572.84022227755
-1.13178408279034,2572.85022227755
-1.14196714919066,2572.86022227755
-1.15199896403048,2572.87022227755
-1.16218735616585,2572.88022227755
-1.17202152441647,2572.89022227755
-1.18193585025536,2572.90022227755
-1.19146979780302,2572.91022227755
-1.20138859081327,2572.92022227755
-1.2117089119485,2572.93022227755
-1.22279698965011,2572.94022227755
-1.23397680282694,2572.95022227755
-1.24602171616822,2572.96022227755
-1.25719316275497,2572.97022227755
-1.26694983869591,2572.98022227755
-1.27292293320809,2572.99022227755
-1.27339167767734,2573.00022227755
-1.26539627320859,2573.01022227755
-1.24622810872351,2573.02022227755
-1.21483351107151,2573.03022227755
-1.17187101237824,2573.04022227755
-1.12163432108567,2573.05022227755
-1.06914359120951,2573.06022227755
-1.01953857374199,2573.07022227755
-0.975903982658665,2573.08022227755
-0.941022301939928,2573.09022227755
-0.914291753809763,2573.10022227755
-0.894732721164468,2573.11022227755
-0.880831884550685,2573.12022227755
-0.871025403611937,2573.13022227755
-0.863246194154276,2573.14022227755
-0.85705681278598,2573.15022227755
-0.851164948876999,2573.16022227755
-0.845400888557585,2573.17022227755
-0.839859391591459,2573.18022227755
-0.834847680392366,2573.19022227755
-0.829615705438137,2573.20022227755
-0.824855977813417,2573.21022227755
-0.819638585168604,2573.22022227755
-0.814428707549735,2573.23022227755
-0.809468850207147,2573.24022227755
-0.806244406199114,2573.25022227755
-0.80480842985997,2573.26022227755
-0.805898558655974,2573.27022227755
-0.809096135096104,2573.28022227755
-0.813843723161721,2573.29022227755
-0.818717594661024,2573.30022227755
-0.823280194597757,2573.31022227755
-0.826835144401119,2573.32022227755
-0.82860673620548,2573.33022227755
-0.828480620960852,2573.34022227755
-0.826403384629605,2573.35022227755
-0.821683650888383,2573.36022227755
-0.814337608813466,2573.37022227755
-0.805958174958406,2573.38022227755
-0.796645610956167,2573.39022227755
-0.787104631016103,2573.40022227755
-0.778403393235822,2573.41022227755
-0.770299337091692,2573.42022227755
-0.763248425195577,2573.43022227755
-0.756842305918189,2573.44022227755
-0.751465163950425,2573.45022227755
-0.747055643825366,2573.46022227755
-0.743263792732416,2573.47022227755
-0.740358429715097,2573.48022227755
-0.738198773741645,2573.49022227755
-0.736999571550639,2573.50022227755
-0.737083246408917,2573.51022227755
-0.737641015806213,2573.52022227755
-0.739330143878921,2573.53022227755
-0.74106420575568,2573.54022227755
-0.742849922930049,2573.55022227755
-0.744582198179044,2573.56022227755
-0.74633945867596,2573.57022227755
-0.747865730184287,2573.58022227755
-0.748734409215998,2573.59022227755
-0.748408855057622,2573.60022227755
-0.748367824843504,2573.61022227755
-0.748190563290728,2573.62022227755
-0.748526270401972,2573.63022227755
-0.749821749068515,2573.64022227755
-0.751160677128125,2573.65022227755
-0.752780014598417,2573.66022227755
-0.753853906621236,2573.67022227755
-0.755167477284972,2573.68022227755
-0.75645276756222,2573.69022227755
-0.75770307717769,2573.70022227755
-0.759266421594075,2573.71022227755
-0.760941061357507,2573.72022227755
-0.762989719955503,2573.73022227755
-0.765459687315648,2573.74022227755
-0.768792310568092,2573.75022227755
-0.772926168396992,2573.76022227755
-0.777978364115097,2573.77022227755
-0.78295298772706,2573.78022227755
-0.787368044522562,2573.79022227755
-0.791629863443149,2573.80022227755
-0.795067937719135,2573.81022227755
-0.798148558521071,2573.82022227755
-0.801472079882548,2573.83022227755
-0.805500140699305,2573.84022227755
-0.809654412260587,2573.85022227755
-0.814353687110291,2573.86022227755
-0.819930788627841,2573.87022227755
-0.826233120408992,2573.88022227755
-0.833761872200842,2573.89022227755
-0.841603972091182,2573.90022227755
-0.849789999951506,2573.91022227755
-0.857292134484533,2573.92022227755
-0.864078568045038,2573.93022227755
-0.870331190372283,2573.94022227755
-0.876557160059662,2573.95022227755
-0.882531455919368,2573.96022227755
-0.888801843373619,2573.97022227755
-0.895676350352016,2573.98022227755
-0.902411766095847,2573.99022227755
-0.908432466406375,2574.00022227755
-0.914123726439712,2574.01022227755
-0.919926004019034,2574.02022227755
-0.926676906132272,2574.03022227755
-0.934880346405718,2574.04022227755
-0.942900881673121,2574.05022227755
-0.949948160481091,2574.06022227755
-0.952548039514206,2574.07022227755
-0.948593451643094,2574.08022227755
-0.934527519687323,2574.09022227755
-0.908341982893703,2574.10022227755
-0.870267484332363,2574.11022227755
-0.822660207120506,2574.12022227755
-0.768619249826028,2574.13022227755
-0.710826401343006,2574.14022227755
-0.652784716454894,2574.15022227755
-0.596330413230147,2574.16022227755
-0.544060863669565,2574.17022227755
-0.496792885659728,2574.18022227755
-0.455800676122502,2574.19022227755
-0.420557219929755,2574.20022227755
-0.390046861852618,2574.21022227755
-0.36395916728628,2574.22022227755
-0.341441587187146,2574.23022227755
-0.322019079251153,2574.24022227755
-0.304988145644221,2574.25022227755
-0.289392946270617,2574.26022227755
-0.275464987998652,2574.27022227755
-0.261836248616004,2574.28022227755
-0.249593573481023,2574.29022227755
-0.237826932385271,2574.30022227755
-0.227135714167643,2574.31022227755
-0.217081030077739,2574.32022227755
-0.208133146771946,2574.33022227755
-0.201848294964302,2574.34022227755
-0.198165094988842,2574.35022227755
-0.197099092254309,2574.36022227755
-0.198540346707037,2574.37022227755
-0.201196512172377,2574.38022227755
-0.204660341727772,2574.39022227755
-0.208557537024632,2574.40022227755
-0.211798404726766,2574.41022227755
-0.21385885021921,2574.42022227755
-0.214282967120962,2574.43022227755
-0.213627449741629,2574.44022227755
-0.212735557680308,2574.45022227755
-0.211467871071424,2574.46022227755
-0.210348141105439,2574.47022227755
-0.209788418474103,2574.48022227755
-0.209252751980968,2574.49022227755
-0.208926270323622,2574.50022227755
-0.208240112772862,2574.51022227755
-0.207395544090274,2574.52022227755
-0.207189146857011,2574.53022227755
-0.20645054928791,2574.54022227755
-0.206239754373705,2574.55022227755
-0.204831322437692,2574.56022227755
-0.202584004261079,2574.57022227755
-0.199642130286744,2574.58022227755
-0.196395443141815,2574.59022227755
-0.193351436331191,2574.60022227755
-0.191266402135758,2574.61022227755
-0.189832598721707,2574.62022227755
-0.190144603438929,2574.63022227755
-0.192405098857957,2574.64022227755
-0.197424944783249,2574.65022227755
-0.204081344820797,2574.66022227755
-0.211754454032292,2574.67022227755
-0.219768653999048,2574.68022227755
-0.226956873703987,2574.69022227755
-0.233365741416896,2574.70022227755
-0.239011772386019,2574.71022227755
-0.243675175996687,2574.72022227755
-0.24826623459357,2574.73022227755
-0.25285199068913,2574.74022227755
-0.257873690884982,2574.75022227755
-0.263463849532209,2574.76022227755
-0.26958459663256,2574.77022227755
-0.275961033831048,2574.78022227755
-0.282908353614631,2574.79022227755
-0.290012907785669,2574.80022227755
-0.296848772814578,2574.81022227755
-0.303519518652598,2574.82022227755
-0.309926978923607,2574.83022227755
-0.31605160356816,2574.84022227755
-0.322642899423293,2574.85022227755
-0.329757943959543,2574.86022227755
-0.337358688160074,2574.87022227755
-0.34460568984032,2574.88022227755
-0.352013993274173,2574.89022227755
-0.359847023129532,2574.90022227755
-0.367403184136437,2574.91022227755
-0.374827013448645,2574.92022227755
-0.381885993493287,2574.93022227755
-0.388978683529658,2574.94022227755
-0.395674752158284,2574.95022227755
-0.401688461875724,2574.96022227755
-0.407706798781588,2574.97022227755
-0.413212109852091,2574.98022227755
-0.41772236652026,2574.99022227755
-0.421695663346779,2575.00022227755
-0.425215731055157,2575.01022227755
-0.42917534474789,2575.02022227755
-0.433211307535492,2575.03022227755
-0.436814636255159,2575.04022227755
-0.440871293210308,2575.05022227755
-0.444944624006057,2575.06022227755
-0.448900142472547,2575.07022227755
-0.452908754264496,2575.08022227755
-0.456804234360897,2575.09022227755
-0.461164796642649,2575.10022227755
-0.465504819897637,2575.11022227755
-0.470452425065674,2575.12022227755
-0.475795322999029,2575.13022227755
-0.481753173598084,2575.14022227755
-0.486328507548231,2575.15022227755
-0.488002223209473,2575.16022227755
-0.484047622295947,2575.17022227755
-0.47035655167614,2575.18022227755
-0.445562675165076,2575.19022227755
-0.409791262920309,2575.20022227755
-0.364483170804761,2575.21022227755
-0.313239708785431,2575.22022227755
-0.258717431991487,2575.23022227755
-0.204292216352639,2575.24022227755
-0.152433462928975,2575.25022227755
-0.104537893383176,2575.26022227755
-0.0626218441238919,2575.27022227755
-0.0270085756613817,2575.28022227755
0.00237755845687214,2575.29022227755
0.0267738009366829,2575.30022227755
0.0469514225758694,2575.31022227755
0.0645193828227391,2575.32022227755
0.079252875273135,2575.33022227755
0.0926244860007209,2575.34022227755
0.105138658377408,2575.35022227755
0.116635840622872,2575.36022227755
0.128217480850752,2575.37022227755
0.138972135078732,2575.38022227755
0.149507818535706,2575.39022227755
0.160021788675498,2575.40022227755
0.169268260669271,2575.41022227755
0.176748648962543,2575.42022227755
0.181998111090912,2575.43022227755
0.185008126475708,2575.44022227755
0.186300439523566,2575.45022227755
0.185388798732378,2575.46022227755
0.183757598458619,2575.47022227755
0.181297487950728,2575.48022227755
0.178938898652195,2575.49022227755
0.177633595317308,2575.50022227755
0.177440938426353,2575.51022227755
0.178928758455957,2575.52022227755
0.181789923351596,2575.53022227755
0.186248097841464,2575.54022227755
0.191282983764956,2575.55022227755
0.197656898684464,2575.56022227755
0.204112606247771,2575.57022227755
0.210944760717009,2575.58022227755
0.217651754684892,2575.59022227755
0.223038124926983,2575.60022227755
0.228091500459625,2575.61022227755
0.23135862503957,2575.62022227755
0.23416615633826,2575.63022227755
0.235610983807575,2575.64022227755
0.23564888663769,2575.65022227755
0.234374277295689,2575.66022227755
0.231582774872261,2575.67022227755
0.22808676760989,2575.68022227755
0.223563247921452,2575.69022227755
0.218444583055971,2575.70022227755
0.212699596608876,2575.71022227755
0.206486883590375,2575.72022227755
0.20014757846352,2575.73022227755
0.193452336805971,2575.74022227755
0.186650090359325,2575.75022227755
0.180414188369574,2575.76022227755
0.174155879146129,2575.77022227755
0.167970753893098,2575.78022227755
0.161709395167331,2575.79022227755
0.15540761905531,2575.80022227755
0.148885738060759,2575.81022227755
0.142934802048634,2575.82022227755
0.136505521113275,2575.83022227755
0.129718662882537,2575.84022227755
0.123118243207431,2575.85022227755
0.116136193493727,2575.86022227755
0.109407814839301,2575.87022227755
0.101666749802567,2575.88022227755
0.0931932210009496,2575.89022227755
0.0841281433639442,2575.90022227755
0.075230557050137,2575.91022227755
0.0659095919402137,2575.92022227755
0.056764536474438,2575.93022227755
0.0484386709795392,2575.94022227755
0.0401475410666482,2575.95022227755
0.0317895134432493,2575.96022227755
0.0231000445814363,2575.97022227755
0.014603272775159,2575.98022227755
0.00577013580844181,2575.99022227755
-0.00281826459760204,2576.00022227755
-0.0115713313360656,2576.01022227755
-0.0201147383183388,2576.02022227755
-0.0294137806394959,2576.03022227755
-0.0387637815710281,2576.04022227755
-0.048760890675063,2576.05022227755
-0.0587808018973854,2576.06022227755
-0.0691317929874088,2576.07022227755
-0.0789738176880332,2576.08022227755
-0.0890687327659535,2576.09022227755
-0.0987784266824307,2576.10022227755
-0.107605048253953,2576.11022227755
-0.113949072933307,2576.12022227755
-0.115304193928803,2576.13022227755
-0.109351566582885,2576.14022227755
-0.0935528094238346,2576.15022227755
-0.0673059632842336,2576.16022227755
-0.0319506371891263,2576.17022227755
0.0102824304506199,2576.18022227755
0.0559462753971211,2576.19022227755
0.101815552992216,2576.20022227755
0.145494030161357,2576.21022227755
0.185140657880853,2576.22022227755
0.220021672696072,2576.23022227755
0.249578664026868,2576.24022227755
0.273863449143379,2576.25022227755
0.293134434993781,2576.26022227755
0.309066303466722,2576.27022227755
0.321854169431649,2576.28022227755
0.331621521036914,2576.29022227755
0.3393346319742,2576.30022227755
0.344919260527932,2576.31022227755
0.34938487742878,2576.32022227755
0.352864493362775,2576.33022227755
0.355527308938047,2576.34022227755
0.358636917457442,2576.35022227755
0.36208431690343,2576.36022227755
0.365487930850037,2576.37022227755
0.368125580792815,2576.38022227755
0.368881644455188,2576.39022227755
0.367993068673538,2576.40022227755
0.36541966014613,2576.41022227755
0.362257978288165,2576.42022227755
0.358894157919018,2576.43022227755
0.356269086442687,2576.44022227755
0.354615850084638,2576.45022227755
0.354500441371417,2576.46022227755
0.356262023184271,2576.47022227755
0.359451806125835,2576.48022227755
0.364589424038333,2576.49022227755
0.369987503419544,2576.50022227755
0.376224481776761,2576.51022227755
0.382328275369278,2576.52022227755
0.388050572505507,2576.53022227755
0.393447029443629,2576.54022227755
0.397565575616434,2576.55022227755
0.400632007034562,2576.56022227755
0.401916821443768,2576.57022227755
0.400746677753138,2576.58022227755
0.397465791029749,2576.59022227755
0.392411291205255,2576.60022227755
0.386389201218841,2576.61022227755
0.37935125419176,2576.62022227755
0.371207250965614,2576.63022227755
0.363387987908504,2576.64022227755
0.355098638145337,2576.65022227755
0.346948547113702,2576.66022227755
0.339250438372379,2576.67022227755
0.331521243111324,2576.68022227755
0.323772926355661,2576.69022227755
0.315450867095148,2576.70022227755
0.306305249025582,2576.71022227755
0.297358915148367,2576.72022227755
0.287660997016124,2576.73022227755
0.278708266499219,2576.74022227755
0.270302107048116,2576.75022227755
0.262884727975299,2576.76022227755
0.256386007807571,2576.77022227755
0.249693418994931,2576.78022227755
0.243250365551585,2576.79022227755
0.23598972274313,2576.80022227755
0.228034601029333,2576.81022227755
0.219777506462163,2576.82022227755
0.211344061115618,2576.83022227755
0.203050748853304,2576.84022227755
0.194598690436421,2576.85022227755
0.186818497048903,2576.86022227755
0.178920359453123,2576.87022227755
0.171002167964716,2576.88022227755
0.162925764094523,2576.89022227755
0.154530137253755,2576.90022227755
0.144649670164767,2576.91022227755
0.13450840554986,2576.92022227755
0.124582751964926,2576.93022227755
0.115842246944927,2576.94022227755
0.109785845936404,2576.95022227755
0.109218146809838,2576.96022227755
0.116759394899872,2576.97022227755
0.134423980277864,2576.98022227755
0.163369386737661,2576.99022227755
0.201908849098917,2577.00022227755
0.248500055640152,2577.01022227755
0.300540603701809,2577.02022227755
0.35515390146893,2577.03022227755
0.409197377713868,2577.04022227755
0.460185467608224,2577.05022227755
0.507306239455734,2577.06022227755
0.548543699112918,2577.07022227755
0.584044262059008,2577.08022227755
0.614005241102429,2577.09022227755
0.638988246272866,2577.10022227755
0.659480488064944,2577.11022227755
0.676812130548658,2577.12022227755
0.691353355342938,2577.13022227755
0.704439334692113,2577.14022227755
0.71656888879459,2577.15022227755
0.727996775143866,2577.16022227755
0.739947131776717,2577.17022227755
0.75172792420243,2577.18022227755
0.762673432383115,2577.19022227755
0.771493420200814,2577.20022227755
0.777165007888074,2577.21022227755
0.779808087232143,2577.22022227755
0.7786982255561,2577.23022227755
0.774398974987886,2577.24022227755
0.766537027638304,2577.25022227755
0.756778684702026,2577.26022227755
0.746586838554666,2577.27022227755
0.735568526901229,2577.28022227755
0.726125089849635,2577.29022227755
0.718035432847126,2577.30022227755
0.712064236511824,2577.31022227755
0.708534835576727,2577.32022227755
0.706217578243228,2577.33022227755
0.705727889928323,2577.34022227755
0.706296531132779,2577.35022227755
0.707482025698298,2577.36022227755
0.708757298888912,2577.37022227755
0.710253487251697,2577.38022227755
0.711097759550003,2577.39022227755
0.710741756799034,2577.40022227755
0.709242201567431,2577.41022227755
0.705669039603406,2577.42022227755
0.700829854917854,2577.43022227755
0.694943803749685,2577.44022227755
0.687661303841502,2577.45022227755
0.678891741964424,2577.46022227755
0.669146211601263,2577.47022227755
0.658568718481732,2577.48022227755
0.647695023793796,2577.49022227755
0.636314433728884,2577.50022227755
0.6245444893041,2577.51022227755
0.612580234145476,2577.52022227755
0.599881975346642,2577.53022227755
0.587612865884242,2577.54022227755
0.575147766911021,2577.55022227755
0.562847597806039,2577.56022227755
0.550674028191184,2577.57022227755
0.53769534499155,2577.58022227755
0.524642332004809,2577.59022227755
0.511507971015721,2577.60022227755
0.498649566700414,2577.61022227755
0.485928487901086,2577.62022227755
0.473671254371411,2577.63022227755
0.461100454366344,2577.64022227755
0.44869472335322,2577.65022227755
0.435976775587052,2577.66022227755
0.42338881282126,2577.67022227755
0.411105612898978,2577.68022227755
0.397971241395555,2577.69022227755
0.384938852015599,2577.70022227755
0.371642559337598,2577.71022227755
0.358608515360804,2577.72022227755
0.345123932530198,2577.73022227755
0.331903286549311,2577.74022227755
0.319264451055828,2577.75022227755
0.307087305877773,2577.76022227755
0.295305198639053,2577.77022227755
0.284161563661794,2577.78022227755
0.273299843719257,2577.79022227755
0.262624361303864,2577.80022227755
0.251796142336651,2577.81022227755
0.240626690065904,2577.82022227755
0.230205119870545,2577.83022227755
0.220001257443415,2577.84022227755
0.210430419656119,2577.85022227755
0.200775342710635,2577.86022227755
0.190887443973844,2577.87022227755
0.180586248716859,2577.88022227755
0.170388442242123,2577.89022227755
0.160048343655984,2577.90022227755
0.151809480416436,2577.91022227755
0.14781376976417,2577.92022227755
0.151424618497368,2577.93022227755
0.164786401722946,2577.94022227755
0.189552810387308,2577.95022227755
0.225696137237426,2577.96022227755
0.270861724917036,2577.97022227755
0.322526203255049,2577.98022227755
0.377824320382576,2577.99022227755
0.432840324241977,2578.00022227755
0.485196563630483,2578.01022227755
0.53202389467764,2578.02022227755
0.572077502282769,2578.03022227755
0.604796186492496,2578.04022227755
0.631223217034668,2578.05022227755
0.651234985965494,2578.06022227755
0.666150923184909,2578.07022227755
0.677619810322272,2578.08022227755
0.685715066767259,2578.09022227755
0.692074823681028,2578.10022227755
0.697234962182339,2578.11022227755
0.702454292715849,2578.12022227755
0.708503943150257,2578.13022227755
0.714583145006235,2578.14022227755
0.720332171193159,2578.15022227755
0.724110466280016,2578.16022227755
0.725586355168974,2578.17022227755
0.724059929398655,2578.18022227755
0.718722066385902,2578.19022227755
0.709033471149201,2578.20022227755
0.69535694447927,2578.21022227755
0.678540993287195,2578.22022227755
0.660051090487181,2578.23022227755
0.641822672031488,2578.24022227755
0.624830780699947,2578.25022227755
0.610037821280676,2578.26022227755
0.597467757732478,2578.27022227755
0.586440549734368,2578.28022227755
0.576275012982487,2578.29022227755
0.566897184347437,2578.30022227755
0.557383690956934,2578.31022227755
0.547387651798227,2578.32022227755
0.536455717635987,2578.33022227755
0.524880579463498,2578.34022227755
0.511658985388697,2578.35022227755
0.496916036423556,2578.36022227755
0.480494292985674,2578.37022227755
0.463329888617036,2578.38022227755
0.444643740003091,2578.39022227755
0.425881206443975,2578.40022227755
0.406162422177253,2578.41022227755
0.385810413441955,2578.42022227755
0.36433782153297,2578.43022227755
0.342553041506081,2578.44022227755
0.319996858045568,2578.45022227755
0.296954642306765,2578.46022227755
0.273694923536398,2578.47022227755
0.250214868504194,2578.48022227755
0.225859776395403,2578.49022227755
0.200948396622898,2578.50022227755
0.176399214603599,2578.51022227755
0.152448302867196,2578.52022227755
0.129358771016664,2578.53022227755
0.107834816398127,2578.54022227755
0.0875498327081237,2578.55022227755
0.0689153024879269,2578.56022227755
0.0509313284524349,2578.57022227755
0.0341277263927119,2578.58022227755
0.0168395507559272,2578.59022227755
0.000185845680468471,2578.60022227755
-0.0165317339378976,2578.61022227755
-0.0327590307038363,2578.62022227755
-0.0488207172701572,2578.63022227755
-0.0645796440187886,2578.64022227755
-0.0801310305881952,2578.65022227755
-0.0957377447851563,2578.66022227755
-0.111346457002559,2578.67022227755
-0.125945355639441,2578.68022227755
-0.140249415625144,2578.69022227755
-0.15339219250624,2578.70022227755
-0.166412478074663,2578.71022227755
-0.179669153951967,2578.72022227755
-0.194059930889855,2578.73022227755
-0.209648083882188,2578.74022227755
-0.22543401097484,2578.75022227755
-0.240793703532512,2578.76022227755
-0.255260732657734,2578.77022227755
-0.269497237163108,2578.78022227755
-0.283157235408272,2578.79022227755
-0.296076849555563,2578.80022227755
-0.308851501672686,2578.81022227755
-0.321557039439002,2578.82022227755
-0.334598856185413,2578.83022227755
-0.347232039512412,2578.84022227755
-0.35964213924409,2578.85022227755
-0.371817413406591,2578.86022227755
-0.38294873698617,2578.87022227755
-0.393504177283041,2578.88022227755
-0.40361325641753,2578.89022227755
-0.41307612114639,2578.90022227755
-0.42216922702448,2578.91022227755
-0.43167779267034,2578.92022227755
-0.440560759462409,2578.93022227755
-0.449524086956509,2578.94022227755
-0.458798528048969,2578.95022227755
-0.468386747151155,2578.96022227755
-0.47865621657136,2578.97022227755
-0.489319020122325,2578.98022227755
-0.500619270382768,2578.99022227755
-0.511893787444163,2579.00022227755
-0.52310865903561,2579.01022227755
-0.533092768253246,2579.02022227755
-0.540317281103275,2579.03022227755
-0.541659145250521,2579.04022227755
-0.533565133802549,2579.05022227755
-0.513393709192613,2579.06022227755
-0.479648984344106,2579.07022227755
-0.433709775104229,2579.08022227755
-0.379004114442106,2579.09022227755
-0.319942458192348,2579.10022227755
-0.260818701194276,2579.11022227755
-0.204744692751885,2579.12022227755
-0.154723500683145,2579.13022227755
-0.111823333916772,2579.14022227755
-0.0761971941488229,2579.15022227755
-0.0467454459299589,2579.16022227755
-0.0228628621677733,2579.17022227755
-0.0027990665096087,2579.18022227755
0.014019913255604,2579.19022227755
0.0281014313318673,2579.20022227755
0.0394686427295749,2579.21022227755
0.0488074190631994,2579.22022227755
0.056816894697761,2579.23022227755
0.0637170536772885,2579.24022227755
0.0711550970489367,2579.25022227755
0.0789354058287226,2579.26022227755
0.0869278036442832,2579.27022227755
0.0951821261907222,2579.28022227755
0.102305582239097,2579.29022227755
0.107440936571371,2579.30022227755
0.109870936983086,2579.31022227755
0.108688794418808,2579.32022227755
0.105214462691462,2579.33022227755
0.09983526288759,2579.34022227755
0.0938352782993789,2579.35022227755
0.0877446587531515,2579.36022227755
0.0829924537944923,2579.37022227755
0.0790743582544896,2579.38022227755
0.075871493278321,2579.39022227755
0.0746103679218276,2579.40022227755
0.0738864839298668,2579.41022227755
0.0754887190949645,2579.42022227755
0.0781940775734829,2579.43022227755
0.0812286615634871,2579.44022227755
0.0846365231346252,2579.45022227755
0.0876751008655105,2579.46022227755
0.0905096168210899,2579.47022227755
0.0926813064409034,2579.48022227755
0.094677778558155,2579.49022227755
0.0949539074276281,2579.50022227755
0.0945379091278297,2579.51022227755
0.0927494777535539,2579.52022227755
0.0892220097330193,2579.53022227755
0.084493996142052,2579.54022227755
0.0783608311851506,2579.55022227755
0.0708924460366824,2579.56022227755
0.0625157842529497,2579.57022227755
0.0533523414597489,2579.58022227755
0.0439353414424533,2579.59022227755
0.0338691267747406,2579.60022227755
0.0231171683213859,2579.61022227755
0.0119815216884805,2579.62022227755
0.0006942154020621,2579.63022227755
-0.010557853619861,2579.64022227755
-0.0210148288992173,2579.65022227755
-0.0315133809042961,2579.66022227755
-0.0407686858271915,2579.67022227755
-0.0492639561039642,2579.68022227755
-0.0571734192459128,2579.69022227755
-0.0647805708308921,2579.70022227755
-0.0722628688289828,2579.71022227755
-0.0794428386762836,2579.72022227755
-0.0867999614447896,2579.73022227755
-0.093782685228626,2579.74022227755
-0.0999328625004943,2579.75022227755
-0.105501662297145,2579.76022227755
-0.109690563528527,2579.77022227755
-0.112471938265836,2579.78022227755
-0.114532954602361,2579.79022227755
-0.115644460596769,2579.80022227755
-0.116562987460538,2579.81022227755
-0.117747012553454,2579.82022227755
-0.119007479460156,2579.83022227755
-0.120679967734617,2579.84022227755
-0.122633147501857,2579.85022227755
-0.124618869057662,2579.86022227755
-0.12611079206491,2579.87022227755
-0.127031715823097,2579.88022227755
-0.128316878525073,2579.89022227755
-0.129450942327641,2579.90022227755
-0.130158132989057,2579.91022227755
-0.131745967578239,2579.92022227755
-0.133334990371726,2579.93022227755
-0.135097902230248,2579.94022227755
-0.137080641047386,2579.95022227755
-0.138585838559129,2579.96022227755
-0.139122034144169,2579.97022227755
-0.137880268985783,2579.98022227755
-0.135766744293716,2579.99022227755
-0.13318057356124,2580.00022227755
-0.129814142600919,2580.01022227755
-0.126659176859219,2580.02022227755
-0.123568696630885,2580.03022227755
-0.121123149683936,2580.04022227755
-0.119885744457996,2580.05022227755
-0.11962978525253,2580.06022227755
-0.120765992439026,2580.07022227755
-0.123043893550819,2580.08022227755
-0.125994111748843,2580.09022227755
-0.129357264509894,2580.10022227755
-0.132252784967255,2580.11022227755
-0.132347798401552,2580.12022227755
-0.127388880513746,2580.13022227755
-0.114419399952562,2580.14022227755
-0.0908137801347697,2580.15022227755
-0.0548972788563255,2580.16022227755
-0.00729947478729456,2580.17022227755
0.0507363161480944,2580.18022227755
0.115980084499845,2580.19022227755
0.185116453080118,2580.20022227755
0.254502141949317,2580.21022227755
0.32089394695096,2580.22022227755
0.382176912596616,2580.23022227755
0.437492704060078,2580.24022227755
0.485991421093534,2580.25022227755
0.527826487781469,2580.26022227755
0.563686390531687,2580.27022227755
0.594646121953074,2580.28022227755
0.621625057206817,2580.29022227755
0.64595044207234,2580.30022227755
0.668519781587749,2580.31022227755
0.689802781429185,2580.32022227755
0.710605951306232,2580.33022227755
0.731094186235729,2580.34022227755
0.750732686653981,2580.35022227755
0.769680107642633,2580.36022227755
0.787112624806521,2580.37022227755
0.802298260730592,2580.38022227755
0.814567346349638,2580.39022227755
0.824194706244377,2580.40022227755
0.830416576118535,2580.41022227755
0.833992595320185,2580.42022227755
0.835674762004774,2580.43022227755
0.836001387537597,2580.44022227755
0.836094587041706,2580.45022227755
0.836250120761724,2580.46022227755
0.837065909752533,2580.47022227755
0.838766659848274,2580.48022227755
0.841725853292358,2580.49022227755
0.846516740908418,2580.50022227755
0.85230038634294,2580.51022227755
0.860126450864114,2580.52022227755
0.869037966118459,2580.53022227755
0.878618455309702,2580.54022227755
0.88817003011541,2580.55022227755
0.897476659582622,2580.56022227755
0.90609911910555,2580.57022227755
0.913496248040327,2580.58022227755
0.919385494328932,2580.59022227755
0.92290532118825,2580.60022227755
0.924245270885293,2580.61022227755
0.923050460047295,2580.62022227755
0.919752840728915,2580.63022227755
0.914608413244716,2580.64022227755
0.908512869336118,2580.65022227755
0.901700914681545,2580.66022227755
0.894600647571052,2580.67022227755
0.887415820128096,2580.68022227755
0.879316346815515,2580.69022227755
0.870613194047432,2580.70022227755
0.861989459981054,2580.71022227755
0.852936672276706,2580.72022227755
0.843774401972301,2580.73022227755
0.834362858601208,2580.74022227755
0.824298027636126,2580.75022227755
0.81419637049116,2580.76022227755
0.805332172269575,2580.77022227755
0.796915296123513,2580.78022227755
0.789718230508403,2580.79022227755
0.783651975872728,2580.80022227755
0.777651015046459,2580.81022227755
0.771242223204951,2580.82022227755
0.764429488356196,2580.83022227755
0.757374246990905,2580.84022227755
0.749786101478469,2580.85022227755
0.742630598289388,2580.86022227755
0.735601792694665,2580.87022227755
0.728313000602792,2580.88022227755
0.720849007122033,2580.89022227755
0.713526864907832,2580.90022227755
0.705962857274629,2580.91022227755
0.698591897014986,2580.92022227755
0.691659761278887,2580.93022227755
0.684034695257329,2580.94022227755
0.675742705229364,2580.95022227755
0.666405437553372,2580.96022227755
0.656437930577763,2580.97022227755
0.646293592388474,2580.98022227755
0.637123867702573,2580.99022227755
0.629157650863566,2581.00022227755
0.622806500919225,2581.01022227755
0.617845478907022,2581.02022227755
0.613518062126934,2581.03022227755
0.609192461475665,2581.04022227755
0.604606543742057,2581.05022227755
0.600014219203464,2581.06022227755
0.595600134467941,2581.07022227755
0.591730152007818,2581.08022227755
0.588972333363884,2581.09022227755
0.58772113188016,2581.10022227755
0.586935464041936,2581.11022227755
0.586626499578738,2581.12022227755
0.585395854269087,2581.13022227755
0.583763982368591,2581.14022227755
0.581403684992756,2581.15022227755
0.578311337021563,2581.16022227755
0.575473217620359,2581.17022227755
0.572901465624229,2581.18022227755
0.571962284426438,2581.19022227755
0.574827081170835,2581.20022227755
0.58439662903618,2581.21022227755
0.603854997313233,2581.22022227755
0.634553002007116,2581.23022227755
0.676536995699799,2581.24022227755
0.728864076305607,2581.25022227755
0.788660367352931,2581.26022227755
0.852519055995459,2581.27022227755
0.917882638607537,2581.28022227755
0.980475915569522,2581.29022227755
1.03778823517926,2581.30022227755
1.08823741188453,2581.31022227755
1.1308940441865,2581.32022227755
1.16558690231147,2581.33022227755
1.19350812714046,2581.34022227755
1.21599753749085,2581.35022227755
1.23362365146172,2581.36022227755
1.24821664599572,2581.37022227755
1.26055619817247,2581.38022227755
1.27154753237828,2581.39022227755
1.28243005222307,2581.40022227755
1.29296951851498,2581.41022227755
1.30392607238114,2581.42022227755
1.31425977344064,2581.43022227755
1.32460741668781,2581.44022227755
1.33274629169732,2581.45022227755
1.33800337972847,2581.46022227755
1.33938588901581,2581.47022227755
1.3378784138433,2581.48022227755
1.33355016372037,2581.49022227755
1.32741440832604,2581.50022227755
1.3211882996967,2581.51022227755
1.3156516062752,2581.52022227755
1.31164094290139,2581.53022227755
1.30956030329282,2581.54022227755
1.30948203616412,2581.55022227755
1.31042085563013,2581.56022227755
1.31230479072666,2581.57022227755
1.31413953772308,2581.58022227755
1.3158576341003,2581.59022227755
1.31675812270503,2581.60022227755
1.31727870091401,2581.61022227755
1.31720034657941,2581.62022227755
1.3169720800461,2581.63022227755
1.31687644579556,2581.64022227755
1.31464400127722,2581.65022227755
1.31066590560924,2581.66022227755
1.30404564765685,2581.67022227755
1.29553354507974,2581.68022227755
1.28529158380311,2581.69022227755
1.27351983834052,2581.70022227755
1.26142488719452,2581.71022227755
1.24884976254818,2581.72022227755
1.2360623519292,2581.73022227755
1.22228007629198,2581.74022227755
1.20768829704079,2581.75022227755
1.1919185904317,2581.76022227755
1.17454817735579,2581.77022227755
1.15720084981553,2581.78022227755
1.13972045030291,2581.79022227755
1.12229567287301,2581.80022227755
1.10565023529694,2581.81022227755
1.08963368083106,2581.82022227755
1.0736588368988,2581.83022227755
1.05813831939637,2581.84022227755
1.04256409962384,2581.85022227755
1.02724987492013,2581.86022227755
1.01211826523971,2581.87022227755
0.996873786618222,2581.88022227755
0.981455730577062,2581.89022227755
0.965956487177609,2581.90022227755
0.950284126864096,2581.91022227755
0.934544537954098,2581.92022227755
0.918597011186388,2581.93022227755
0.902259255098227,2581.94022227755
0.885494022072443,2581.95022227755
0.86935509180155,2581.96022227755
0.853816324781466,2581.97022227755
0.838928734761849,2581.98022227755
0.824965821964834,2581.99022227755
0.810810450299911,2582.00022227755
0.797045252985191,2582.01022227755
0.783133216816122,2582.02022227755
0.768815684516124,2582.03022227755
0.754491163977251,2582.04022227755
0.740155749832398,2582.05022227755
0.725183558770832,2582.06022227755
0.710622250020137,2582.07022227755
0.695930571369234,2582.08022227755
0.681096255257731,2582.09022227755
0.66592750084348,2582.10022227755
0.650786161077034,2582.11022227755
0.635515274488368,2582.12022227755
0.620400103647212,2582.13022227755
0.604816697279245,2582.14022227755
0.589192956479657,2582.15022227755
0.573335192422066,2582.16022227755
0.556497098785881,2582.17022227755
0.539141780083257,2582.18022227755
0.520949593509545,2582.19022227755
0.503230333730054,2582.20022227755
0.485504036163769,2582.21022227755
0.468185635636345,2582.22022227755
0.452100770424623,2582.23022227755
0.438815474855274,2582.24022227755
0.429445525182675,2582.25022227755
0.427133956992413,2582.26022227755
0.433774988274669,2582.27022227755
0.451138474499503,2582.28022227755
0.478598285781186,2582.29022227755
0.514462413139935,2582.30022227755
0.555402706581527,2582.31022227755
0.598058827261054,2582.32022227755
0.639076366092325,2582.33022227755
0.676103469894954,2582.34022227755
0.707977805922804,2582.35022227755
0.734226933322318,2582.36022227755
0.754911345550721,2582.37022227755
0.77083636884356,2582.38022227755
0.782892487007296,2582.39022227755
0.790911575178754,2582.40022227755
0.796584174761647,2582.41022227755
0.800090060241041,2582.42022227755
0.802119686431025,2582.43022227755
0.803803828932366,2582.44022227755
0.804694682254175,2582.45022227755
0.806075236433182,2582.46022227755
0.80748405237647,2582.47022227755
0.80821956462387,2582.48022227755
0.807720822056056,2582.49022227755
0.806263457274315,2582.50022227755
0.802596111672399,2582.51022227755
0.796907787972163,2582.52022227755
0.789051217647601,2582.53022227755
0.779041890280125,2582.54022227755
0.76694177432316,2582.55022227755
0.754020784478486,2582.56022227755
0.741563641615208,2582.57022227755
0.730539903251154,2582.58022227755
0.72078411811743,2582.59022227755
0.71297415851826,2582.60022227755
0.706601796330333,2582.61022227755
0.70149079905954,2582.62022227755
0.697390092046288,2582.63022227755
0.693714884897017,2582.64022227755
0.689692945626559,2582.65022227755
0.685502177838009,2582.66022227755
0.680993462462972,2582.67022227755
0.675202970431242,2582.68022227755
0.669207445645013,2582.69022227755
0.662709984943777,2582.70022227755
0.655444764601239,2582.71022227755
0.647786034684645,2582.72022227755
0.639152213370227,2582.73022227755
0.629810163147428,2582.74022227755
0.619192834279026,2582.75022227755
0.607801542592809,2582.76022227755
0.595519347853113,2582.77022227755
0.582454892475012,2582.78022227755
0.568981141138632,2582.79022227755
0.55516869378309,2582.80022227755
0.540810796213509,2582.81022227755
0.526377806509711,2582.82022227755
0.511823392281985,2582.83022227755
0.497550439524012,2582.84022227755
0.4838910869196,2582.85022227755
0.469990867403353,2582.86022227755
0.456065130190146,2582.87022227755
0.442538964779218,2582.88022227755
0.42924618560462,2582.89022227755
0.416996746192965,2582.90022227755
0.404818211056126,2582.91022227755
0.392398804399611,2582.92022227755
0.379912007865032,2582.93022227755
0.367268568676238,2582.94022227755
0.353636582130595,2582.95022227755
0.339783838853379,2582.96022227755
0.326546669991522,2582.97022227755
0.313436143781473,2582.98022227755
0.300512082142189,2582.99022227755
0.287739157628827,2583.00022227755
0.275089399677575,2583.01022227755
0.262580865354595,2583.02022227755
0.250295566660665,2583.03022227755
0.237846760728576,2583.04022227755
0.224962569677035,2583.05022227755
0.212659640034912,2583.06022227755
0.200351520583914,2583.07022227755
0.187830726204766,2583.08022227755
0.175614242816465,2583.09022227755
0.163412072068005,2583.10022227755
0.151028203772732,2583.11022227755
0.138696952456323,2583.12022227755
0.12608031277518,2583.13022227755
0.11361264949624,2583.14022227755
0.100916997264662,2583.15022227755
0.0879516977830226,2583.16022227755
0.0765338766924003,2583.17022227755
0.065648741334597,2583.18022227755
0.0554272643124217,2583.19022227755
0.0456492140614977,2583.20022227755
0.0360404369855932,2583.21022227755
0.0259534928106287,2583.22022227755
0.0157072032265116,2583.23022227755
0.00468241877892715,2583.24022227755
-0.00718480339187105,2583.25022227755
-0.0193611177782327,2583.26022227755
-0.0312526997278272,2583.27022227755
-0.0427369922447038,2583.28022227755
-0.053393144734677,2583.29022227755
-0.0638626116249998,2583.30022227755
-0.073402203202443,2583.31022227755
-0.0818611269860755,2583.32022227755
-0.0880810852237561,2583.33022227755
-0.0888842953249877,2583.34022227755
-0.0832782273065432,2583.35022227755
-0.0698330154948934,2583.36022227755
-0.048807918013216,2583.37022227755
-0.0214910166358421,2583.38022227755
0.0103527575427964,2583.39022227755
0.0453145227243241,2583.40022227755
0.0800861091462236,2583.41022227755
0.112881473372958,2583.42022227755
0.143037913555175,2583.43022227755
0.169138323216044,2583.44022227755
0.191061989626882,2583.45022227755
0.208192410986926,2583.46022227755
0.221190361041255,2583.47022227755
0.230957255581348,2583.48022227755
0.238436198334018,2583.49022227755
0.243696180285566,2583.50022227755
0.248154067795274,2583.51022227755
0.251641862562122,2583.52022227755
0.25442063632271,2583.53022227755
0.256741687291798,2583.54022227755
0.258179376724792,2583.55022227755
0.258931592216767,2583.56022227755
0.258189920442706,2583.57022227755
0.256555082851487,2583.58022227755
0.253955698115761,2583.59022227755
0.250032132146688,2583.60022227755
0.245157533483943,2583.61022227755
0.239741530732669,2583.62022227755
0.234324775675233,2583.63022227755
0.229554811335507,2583.64022227755
0.226939122556417,2583.65022227755
0.225989719492825,2583.66022227755
0.225553858997244,2583.67022227755
0.225735939856958,2583.68022227755
0.226537851191945,2583.69022227755
0.227925641142198,2583.70022227755
0.230128456507133,2583.71022227755
0.232992219356461,2583.72022227755
0.235843992679257,2583.73022227755
0.238490209510592,2583.74022227755
0.240790750677957,2583.75022227755
0.243138051348077,2583.76022227755
0.245159780034224,2583.77022227755
0.246682158117755,2583.78022227755
0.247821615568998,2583.79022227755
0.247063012365772,2583.80022227755
0.244924961072129,2583.81022227755
0.241438080343968,2583.82022227755
0.236232016346811,2583.83022227755
0.229916642249317,2583.84022227755
0.223258216373195,2583.85022227755
0.215463512532828,2583.86022227755
0.207239626920948,2583.87022227755
0.198645592454527,2583.88022227755
0.189481419923398,2583.89022227755
0.180243822715984,2583.90022227755
0.170968624785738,2583.91022227755
0.161375232270358,2583.92022227755
0.151586173992997,2583.93022227755
0.141796047159805,2583.94022227755
0.132115596389667,2583.95022227755
0.122635033133542,2583.96022227755
0.113686314216819,2583.97022227755
0.105139126968239,2583.98022227755
0.0969138051095498,2583.99022227755
0.0887925744947323,2584.00022227755
0.0808345117669898,2584.01022227755
0.0723529204571128,2584.02022227755
0.0637668149092271,2584.03022227755
0.0548073343969731,2584.04022227755
0.0459731938201895,2584.05022227755
0.0368824217606112,2584.06022227755
0.0274528671027184,2584.07022227755
0.0182522467128344,2584.08022227755
0.00891123059006991,2584.09022227755
-0.000166375395376086,2584.10022227755
-0.00948740690749976,2584.11022227755
-0.0180606603918607,2584.12022227755
-0.0266050261836319,2584.13022227755
-0.0350306940932432,2584.14022227755
-0.0436005838492573,2584.15022227755
-0.0526506844272122,2584.16022227755
-0.061277421876335,2584.17022227755
-0.0700321465116966,2584.18022227755
-0.0785825233571597,2584.19022227755
-0.0872012324721398,2584.20022227755
-0.095185907878954,2584.21022227755
-0.103311367100868,2584.22022227755
-0.110968691393683,2584.23022227755
-0.118867232044407,2584.24022227755
-0.125849042253083,2584.25022227755
-0.13343006621652,2584.26022227755
-0.141393640553814,2584.27022227755
-0.149272815278717,2584.28022227755
-0.156570746699936,2584.29022227755
-0.163726350792209,2584.30022227755
-0.170604526700969,2584.31022227755
-0.176964606385128,2584.32022227755
-0.183493333803856,2584.33022227755
-0.18973251159889,2584.34022227755
-0.196282886425693,2584.35022227755
-0.202374070591602,2584.36022227755
-0.208737560288572,2584.37022227755
-0.215088142415638,2584.38022227755
-0.221763257117928,2584.39022227755
-0.227963010084054,2584.40022227755
-0.234344110421771,2584.41022227755
-0.23975751432664,2584.42022227755
-0.242597500179209,2584.43022227755
-0.241742464058682,2584.44022227755
-0.233939303670007,2584.45022227755
-0.218533171041769,2584.46022227755
-0.194963452148438,2584.47022227755
-0.162731725994087,2584.48022227755
-0.123726998027295,2584.49022227755
-0.0791216786048198,2584.50022227755
-0.0319646744700641,2584.51022227755
0.0152449997018036,2584.52022227755
0.0601697981941136,2584.53022227755
0.101068311714286,2584.54022227755
0.137242293464277,2584.55022227755
0.169172481991928,2584.56022227755
0.196127825515641,2584.57022227755
0.219094658208186,2584.58022227755
0.238012311061861,2584.59022227755
0.253348407835355,2584.60022227755
0.266194592479118,2584.61022227755
0.277132280607912,2584.62022227755
0.286956579063167,2584.63022227755
0.296390424066147,2584.64022227755
0.305421631317396,2584.65022227755
0.315437253974132,2584.66022227755
0.325314089455868,2584.67022227755
0.33437382474573,2584.68022227755
0.341847113895625,2584.69022227755
0.347011896578685,2584.70022227755
0.349538491452593,2584.71022227755
0.349759979372908,2584.72022227755
0.348329722237829,2584.73022227755
0.345800808266814,2584.74022227755
0.342724632183625,2584.75022227755
0.339503763517172,2584.76022227755
0.336439803716328,2584.77022227755
0.334002311821814,2584.78022227755
0.332288599229204,2584.79022227755
0.331634080518696,2584.80022227755
0.332555153232853,2584.81022227755
0.334665782151131,2584.82022227755
0.337205670089193,2584.83022227755
0.339187107583496,2584.84022227755
0.34014731690824,2584.85022227755
0.339565941559485,2584.86022227755
0.336441500993919,2584.87022227755
0.331308162798975,2584.88022227755
0.324148387629381,2584.89022227755
0.315410298807978,2584.90022227755
0.306539410452846,2584.91022227755
0.297112802946627,2584.92022227755
0.287304783089626,2584.93022227755
0.278073407986439,2584.94022227755
0.268375532499427,2584.95022227755
0.259583689668437,2584.96022227755
0.250287665941083,2584.97022227755
0.240748866416397,2584.98022227755
0.231020854454474,2584.99022227755
0.220912919200176,2585.00022227755
0.210181690019835,2585.01022227755
0.19891173920075,2585.02022227755
0.187429597335619,2585.03022227755
0.175417986148536,2585.04022227755
0.163144364842815,2585.05022227755
0.150305699440562,2585.06022227755
0.137440341569065,2585.07022227755
0.125559815636861,2585.08022227755
0.114078736702145,2585.09022227755
0.103885651221322,2585.10022227755
0.0939947247073324,2585.11022227755
0.084490174943439,2585.12022227755
0.075636981455046,2585.13022227755
0.067582324150792,2585.14022227755
0.0600087706695847,2585.15022227755
0.0522115123204739,2585.16022227755
0.0447552716214709,2585.17022227755
0.0363501113568574,2585.18022227755
0.0280189162477106,2585.19022227755
0.0193013796995343,2585.20022227755
0.0109189522034709,2585.21022227755
0.0030657911445234,2585.22022227755
-0.00450318596357776,2585.23022227755
-0.0117760774111988,2585.24022227755
-0.0190840762374156,2585.25022227755
-0.0263504075144831,2585.26022227755
-0.0335329215057285,2585.27022227755
-0.0408543643775184,2585.28022227755
-0.0480000694585648,2585.29022227755
-0.0552424658426944,2585.30022227755
-0.0624503180335946,2585.31022227755
-0.0697066193284446,2585.32022227755
-0.0774154200067076,2585.33022227755
-0.0849016403618994,2585.34022227755
-0.09211876031039,2585.35022227755
-0.0992392894125096,2585.36022227755
-0.10564422680126,2585.37022227755
-0.111806194802103,2585.38022227755
-0.118346247137706,2585.39022227755
-0.124816626774951,2585.40022227755
-0.13155309058243,2585.41022227755
-0.138112840639391,2585.42022227755
-0.145046831732036,2585.43022227755
-0.152199038667388,2585.44022227755
-0.159206549443735,2585.45022227755
-0.165804568700095,2585.46022227755
-0.170991779728627,2585.47022227755
-0.172156069178602,2585.48022227755
-0.167201954118285,2585.49022227755
-0.154688733377863,2585.50022227755
-0.133100826934242,2585.51022227755
-0.102587486618251,2585.52022227755
-0.0636179908400795,2585.53022227755
-0.0190933126507147,2585.54022227755
0.0290528095811317,2585.55022227755
0.0789668603709807,2585.56022227755
0.127454113396837,2585.57022227755
0.172919262380364,2585.58022227755
0.212470289057142,2585.59022227755
0.24610640366377,2585.60022227755
0.273415217446036,2585.61022227755
0.294218058684813,2585.62022227755
0.309385457136659,2585.63022227755
0.319545499800223,2585.64022227755
0.326857601551865,2585.65022227755
0.332576913832284,2585.66022227755
0.337529248944668,2585.67022227755
0.342948120057755,2585.68022227755
0.348788273370721,2585.69022227755
0.354395627145821,2585.70022227755
0.359647645646917,2585.71022227755
0.363505484454301,2585.72022227755
0.365524130175488,2585.73022227755
0.365436654253451,2585.74022227755
0.363252061857966,2585.75022227755
0.35896112861311,2585.76022227755
0.352554882705496,2585.77022227755
0.345043074734504,2585.78022227755
0.336996853302631,2585.79022227755
0.329501731427259,2585.80022227755
0.323873148487532,2585.81022227755
0.320152519596369,2585.82022227755
0.317946285472298,2585.83022227755
0.31686089361484,2585.84022227755
0.317464461597812,2585.85022227755
0.318201571445955,2585.86022227755
0.320307310176312,2585.87022227755
0.323115552850623,2585.88022227755
0.326355452207695,2585.89022227755
0.329607510881879,2585.90022227755
0.332555102292896,2585.91022227755
0.333955721771056,2585.92022227755
0.334351173004601,2585.93022227755
0.333838316915802,2585.94022227755
0.332360102659574,2585.95022227755
0.32989803581343,2585.96022227755
0.326018692616224,2585.97022227755
0.321115484439858,2585.98022227755
0.314890905207831,2585.99022227755
0.307177598392114,2586.00022227755
0.297929826094752,2586.01022227755
0.287994756645841,2586.02022227755
0.277918925734606,2586.03022227755
0.267271280659436,2586.04022227755
0.257318819580104,2586.05022227755
0.247338943961266,2586.06022227755
0.237763911005304,2586.07022227755
0.227930859617256,2586.08022227755
0.218080879252807,2586.09022227755
0.207771817967062,2586.10022227755
0.196938547764164,2586.11022227755
0.186680207340331,2586.12022227755
0.177004431380071,2586.13022227755
0.167712344625271,2586.14022227755
0.158731624729383,2586.15022227755
0.149351225284449,2586.16022227755
0.140166417555558,2586.17022227755
0.130912799426966,2586.18022227755
0.121664300363663,2586.19022227755
0.112973238260643,2586.20022227755
0.104163288466462,2586.21022227755
0.0946672034222797,2586.22022227755
0.0852898961631329,2586.23022227755
0.0755172101208964,2586.24022227755
0.0661089439519289,2586.25022227755
0.057467815298436,2586.26022227755
0.0487088941186045,2586.27022227755
0.0402074762361876,2586.28022227755
0.0307867439579578,2586.29022227755
0.0211872350331893,2586.30022227755
0.0118407740221149,2586.31022227755
0.00274531300013724,2586.32022227755
-0.0061564984996838,2586.33022227755
-0.0147908121487807,2586.34022227755
-0.0233789849894295,2586.35022227755
-0.0315669013595909,2586.36022227755
-0.0399122937460387,2586.37022227755
-0.0478553709647429,2586.38022227755
-0.0558431242000575,2586.39022227755
-0.0628777883870218,2586.40022227755
-0.0701261001212231,2586.41022227755
-0.0775421036782893,2586.42022227755
-0.0857268165428362,2586.43022227755
-0.0942209543236574,2586.44022227755
-0.102845988118752,2586.45022227755
-0.11108882556379,2586.46022227755
-0.117793964407802,2586.47022227755
-0.120601973140161,2586.48022227755
-0.117580526922104,2586.49022227755
-0.106405218063897,2586.50022227755
-0.0863471152347405,2586.51022227755
-0.0567578791475142,2586.52022227755
-0.019401649421769,2586.53022227755
0.0243441137262471,2586.54022227755
0.0714619918565398,2586.55022227755
0.119605802612001,2586.56022227755
0.166457283737099,2586.57022227755
0.209805896054881,2586.58022227755
0.248415512753309,2586.59022227755
0.280666324309402,2586.60022227755
0.306989100453043,2586.61022227755
0.327656886497947,2586.62022227755
0.343165647941329,2586.63022227755
0.355170298412973,2586.64022227755
0.364182701573616,2586.65022227755
0.370549828416998,2586.66022227755
0.375519727905944,2586.67022227755
0.379547099409197,2586.68022227755
0.382755173515971,2586.69022227755
0.385519061915801,2586.70022227755
0.387390363644879,2586.71022227755
0.388193950933031,2586.72022227755
0.387956386391259,2586.73022227755
0.385481660927921,2586.74022227755
0.380294629463843,2586.75022227755
0.373225073034296,2586.76022227755
0.365004322107615,2586.77022227755
0.356363128943005,2586.78022227755
0.348481875145354,2586.79022227755
0.341827187763163,2586.80022227755
0.336677273450161,2586.81022227755
0.333020490635612,2586.82022227755
0.330327200131325,2586.83022227755
0.329177875829121,2586.84022227755
0.328877503381976,2586.85022227755
0.329640671542811,2586.86022227755
0.330771092153726,2586.87022227755
0.332615040496786,2586.88022227755
0.334242144903465,2586.89022227755
0.335197651623511,2586.90022227755
0.334774155807513,2586.91022227755
0.333533608321618,2586.92022227755
0.330717512245086,2586.93022227755
0.326714794933001,2586.94022227755
0.321692453393442,2586.95022227755
0.315478646082216,2586.96022227755
0.308328808983133,2586.97022227755
0.300273174160115,2586.98022227755
0.291599650982035,2586.99022227755
0.282443629019384,2587.00022227755
0.272518044156111,2587.01022227755
0.26203462395235,2587.02022227755
0.251277215033061,2587.03022227755
0.240097406566468,2587.04022227755
0.228610998510849,2587.05022227755
0.217492109889952,2587.06022227755
0.206391471284927,2587.07022227755
0.195426626805863,2587.08022227755
0.184784175814173,2587.09022227755
0.174477225552619,2587.10022227755
0.1646289606992,2587.11022227755
0.155536676809357,2587.12022227755
0.146499483215181,2587.13022227755
0.137534975517919,2587.14022227755
0.128504908455844,2587.15022227755
0.118948634169643,2587.16022227755
0.109162174087218,2587.17022227755
0.0994937237102768,2587.18022227755
0.0894425798536498,2587.19022227755
0.0796380377129114,2587.20022227755
0.0698941933071595,2587.21022227755
0.0603445462544761,2587.22022227755
0.0515743234060275,2587.23022227755
0.0430058179276806,2587.24022227755
0.0342712291745235,2587.25022227755
0.02529493306766,2587.26022227755
0.0163794388961534,2587.27022227755
0.00752324475531424,2587.28022227755
-0.000810519684116025,2587.29022227755
-0.00868522435836666,2587.30022227755
-0.0166484634125473,2587.31022227755
-0.0245624958481559,2587.32022227755
-0.0330839486153847,2587.33022227755
-0.0413695106640113,2587.34022227755
-0.0497347529841803,2587.35022227755
-0.0571977565850051,2587.36022227755
-0.0634522097162131,2587.37022227755
-0.0666997643383238,2587.38022227755
-0.0655241829689005,2587.39022227755
-0.0577441555610084,2587.40022227755
-0.0409969909964366,2587.41022227755
-0.0147564000848441,2587.42022227755
0.0218914917718623,2587.43022227755
0.0667870870570235,2587.44022227755
0.117298925526625,2587.45022227755
0.171638971738371,2587.46022227755
0.225935196304962,2587.47022227755
0.277741649645494,2587.48022227755
0.32472628667587,2587.49022227755
0.364875353082378,2587.50022227755
0.398056800356085,2587.51022227755
0.423920305810958,2587.52022227755
0.444278192913593,2587.53022227755
0.460350216225968,2587.54022227755
0.473261925095131,2587.55022227755
0.483618990697601,2587.56022227755
0.492059786008334,2587.57022227755
0.49923125812121,2587.58022227755
0.50582472728344,2587.59022227755
0.512109698686518,2587.60022227755
0.518857987876966,2587.61022227755
0.525282493916282,2587.62022227755
0.530847010653993,2587.63022227755
0.534753856384773,2587.64022227755
0.536530883760748,2587.65022227755
0.535121467382121,2587.66022227755
0.530013433195192,2587.67022227755
0.522243772892762,2587.68022227755
0.512609239261185,2587.69022227755
0.502120765724787,2587.70022227755
0.491873767109989,2587.71022227755
0.482021842801461,2587.72022227755
0.473768947935402,2587.73022227755
0.466868221395975,2587.74022227755
0.461242020165126,2587.75022227755
0.457120972269326,2587.76022227755
0.454410000672168,2587.77022227755
0.452215735271195,2587.78022227755
0.450699776001754,2587.79022227755
0.449220994885083,2587.80022227755
0.447995613236837,2587.81022227755
0.44634274030348,2587.82022227755
0.444134387963159,2587.83022227755
0.441167371465601,2587.84022227755
0.436793960147376,2587.85022227755
0.431167752418918,2587.86022227755
0.42463103242622,2587.87022227755
0.416522479672939,2587.88022227755
0.407314543557814,2587.89022227755
0.396672145720602,2587.90022227755
0.384929968386062,2587.91022227755
0.372275049227212,2587.92022227755
0.359233910571789,2587.93022227755
0.345796405394319,2587.94022227755
0.33252767731407,2587.95022227755
0.318954615622311,2587.96022227755
0.306148307788505,2587.97022227755
0.293412653680193,2587.98022227755
0.280445357699584,2587.99022227755
0.26776524561734,2588.00022227755
0.255294180237103,2588.01022227755
0.243558820032895,2588.02022227755
0.231587050134064,2588.03022227755
0.219374298053208,2588.04022227755
0.207397236858518,2588.05022227755
0.195131323267502,2588.06022227755
0.182891133040361,2588.07022227755
0.171432352242816,2588.08022227755
0.160413114724536,2588.09022227755
0.149499241995889,2588.10022227755
0.138708421767718,2588.11022227755
0.127808525972648,2588.12022227755
0.116955910033085,2588.13022227755
0.10619442055885,2588.14022227755
0.0954314696735722,2588.15022227755
0.0846676568515517,2588.16022227755
0.0740160951866921,2588.17022227755
0.0632237708861352,2588.18022227755
0.0523948799896044,2588.19022227755
0.0415521430264037,2588.20022227755
0.0314511912468093,2588.21022227755
0.0213930764148354,2588.22022227755
0.0121703232642337,2588.23022227755
0.0028100094648749,2588.24022227755
-0.00658155495528139,2588.25022227755
-0.0157860167794658,2588.26022227755
-0.0243624799481663,2588.27022227755
-0.0329370485334782,2588.28022227755
-0.0418656572742179,2588.29022227755
-0.0508777883511744,2588.30022227755
-0.0605612027230287,2588.31022227755
-0.0699304302898364,2588.32022227755
-0.0796424886179628,2588.33022227755
-0.0892398216526513,2588.34022227755
-0.0983355846144608,2588.35022227755
-0.105602231325286,2588.36022227755
-0.109878588957867,2588.37022227755
-0.108699514684334,2588.38022227755
-0.0993750593291226,2588.39022227755
-0.0797194721144531,2588.40022227755
-0.0489446430407044,2588.41022227755
-0.00747624658851776,2588.42022227755
0.0433777514405865,2588.43022227755
0.100137072134213,2588.44022227755
0.159415424625553,2588.45022227755
0.217240554379514,2588.46022227755
0.270687761391727,2588.47022227755
0.317766436746719,2588.48022227755
0.357242999659921,2588.49022227755
0.39008980422994,2588.50022227755
0.41725081309566,2588.51022227755
0.438996995877785,2588.52022227755
0.456603353431833,2588.53022227755
0.471134185627135,2588.54022227755
0.482706364482502,2588.55022227755
0.492235908744197,2588.56022227755
0.500730852262362,2588.57022227755
0.508249673073475,2588.58022227755
0.515662190316424,2588.59022227755
0.523608141763792,2588.60022227755
0.530992001480251,2588.61022227755
0.537331259428339,2588.62022227755
0.541686678565697,2588.63022227755
0.543409891791328,2588.64022227755
0.541946339491589,2588.65022227755
0.537181020214749,2588.66022227755
0.529435254462412,2588.67022227755
0.519919302374965,2588.68022227755
0.509501220498931,2588.69022227755
0.498831707966302,2588.70022227755
0.489455196464532,2588.71022227755
0.481116484432712,2588.72022227755
0.474879954419757,2588.73022227755
0.470796511982429,2588.74022227755
0.468160558182174,2588.75022227755
0.466840091254242,2588.76022227755
0.466417817102316,2588.77022227755
0.466387367879157,2588.78022227755
0.465851631861686,2588.79022227755
0.46459399465868,2588.80022227755
0.46246330426828,2588.81022227755
0.459249871227503,2588.82022227755
0.455048310205724,2588.83022227755
0.450104596869977,2588.84022227755
0.444165367045755,2588.85022227755
0.437811303736235,2588.86022227755
0.430174583390295,2588.87022227755
0.421246980836457,2588.88022227755
0.41086546806336,2588.89022227755
0.39878939506363,2588.90022227755
0.385406055902671,2588.91022227755
0.372011924812248,2588.92022227755
0.358746119069582,2588.93022227755
0.345150692846421,2588.94022227755
0.331661685721579,2588.95022227755
0.318118818849216,2588.96022227755
0.305050213005114,2588.97022227755
0.292996400431426,2588.98022227755
0.281276820575003,2588.99022227755
0.269977576478895,2589.00022227755
0.25897743838474,2589.01022227755
0.248163712792034,2589.02022227755
0.237263055432855,2589.03022227755
0.226098141740947,2589.04022227755
0.214712770462432,2589.05022227755
0.203026938235236,2589.06022227755
0.190847748889404,2589.07022227755
0.178071188939935,2589.08022227755
0.165636159889468,2589.09022227755
0.153137415569827,2589.10022227755
0.141749837541835,2589.11022227755
0.131489716561348,2589.12022227755
0.121574051008585,2589.13022227755
0.111901381568241,2589.14022227755
0.101716988250731,2589.15022227755
0.0908805428589257,2589.16022227755
0.0796048810238461,2589.17022227755
0.0683405047419353,2589.18022227755
0.0574805804555955,2589.19022227755
0.0473938336054615,2589.20022227755
0.0376899421081017,2589.21022227755
0.0281646110562344,2589.22022227755
0.018416403258258,2589.23022227755
0.0085710668741186,2589.24022227755
-0.00103042379959978,2589.25022227755
-0.0105156202100715,2589.26022227755
-0.0202584325582023,2589.27022227755
-0.0300423101569097,2589.28022227755
-0.0396723304498135,2589.29022227755
-0.049098067027819,2589.30022227755
-0.0584301460685878,2589.31022227755
-0.0673222004309402,2589.32022227755
-0.0763247690464108,2589.33022227755
-0.0849260222699423,2589.34022227755
-0.0931215077386805,2589.35022227755
-0.10200427848188,2589.36022227755
-0.111417996619072,2589.37022227755
-0.121191046337601,2589.38022227755
-0.131049453390454,2589.39022227755
-0.140822410456194,2589.40022227755
-0.149907769964337,2589.41022227755
-0.156890114974241,2589.42022227755
-0.160920825243744,2589.43022227755
-0.160053060846258,2589.44022227755
-0.151902544340128,2589.45022227755
-0.13418193465953,2589.46022227755
-0.10588714293621,2589.47022227755
-0.0663114372746024,2589.48022227755
-0.0178604772757239,2589.49022227755
0.0380413020755425,2589.50022227755
0.0978497057538823,2589.51022227755
0.157580190423792,2589.52022227755
0.214731606812679,2589.53022227755
0.265578957475199,2589.54022227755
0.309638552581452,2589.55022227755
0.346075792840372,2589.56022227755
0.375178771345741,2589.57022227755
0.398855279767086,2589.58022227755
0.417900143164575,2589.59022227755
0.432976250764574,2589.60022227755
0.445686129576762,2589.61022227755
0.456019132690605,2589.62022227755
0.464694431412778,2589.63022227755
0.472300530169502,2589.64022227755
0.47901581953782,2589.65022227755
0.485728262290493,2589.66022227755
0.491727074154848,2589.67022227755
0.496809423944382,2589.68022227755
0.500539202330769,2589.69022227755
0.501554733128693,2589.70022227755
0.500485831143657,2589.71022227755
0.496570913401279,2589.72022227755
0.490007849825348,2589.73022227755
0.482172669093807,2589.74022227755
0.473669656043955,2589.75022227755
0.466048087274525,2589.76022227755
0.459164807295606,2589.77022227755
0.453152337938095,2589.78022227755
0.448338742750367,2589.79022227755
0.445306588202774,2589.80022227755
0.443809667794165,2589.81022227755
0.444054765328999,2589.82022227755
0.445134903671051,2589.83022227755
0.44640859020125,2589.84022227755
0.447508970738034,2589.85022227755
0.447880813819918,2589.86022227755
0.446317004125485,2589.87022227755
0.444107002636706,2589.88022227755
0.44091844717398,2589.89022227755
0.436631518328682,2589.90022227755
0.431808569974135,2589.91022227755
0.425820272862744,2589.92022227755
0.418481978155869,2589.93022227755
0.409401933978782,2589.94022227755
0.398812643847923,2589.95022227755
0.386748164992843,2589.96022227755
0.373655483977986,2589.97022227755
0.36012701354224,2589.98022227755
0.34626356573461,2589.99022227755
0.332675600635185,2590.00022227755
0.318179279784652,2590.01022227755
0.303867009267877,2590.02022227755
0.28922522336803,2590.03022227755
0.274573755503517,2590.04022227755
0.260392757441378,2590.05022227755
0.246105853209617,2590.06022227755
0.231938393411582,2590.07022227755
0.218526277454931,2590.08022227755
0.205461268979468,2590.09022227755
0.192638969514795,2590.10022227755
0.180285136266357,2590.11022227755
0.16796358067185,2590.12022227755
0.15619796865416,2590.13022227755
0.144517761577111,2590.14022227755
0.13297030350259,2590.15022227755
0.121254771390143,2590.16022227755
0.109569593299893,2590.17022227755
0.0982829459774902,2590.18022227755
0.0871449938995398,2590.19022227755
0.0765668190079471,2590.20022227755
0.0664458721684883,2590.21022227755
0.0569633611384253,2590.22022227755
0.0472652445236428,2590.23022227755
0.0374030758400417,2590.24022227755
0.0270513968371874,2590.25022227755
0.0161665129306323,2590.26022227755
0.00425148003893435,2590.27022227755
-0.00864582849479202,2590.28022227755
-0.0211176847766689,2590.29022227755
-0.0340053773489236,2590.30022227755
-0.0456059433586965,2590.31022227755
-0.0567432680452185,2590.32022227755
-0.0672649367286224,2590.33022227755
-0.0768713093959429,2590.34022227755
-0.0868427155661797,2590.35022227755
-0.0961189566750582,2590.36022227755
-0.105629684477529,2590.37022227755
-0.115725412226564,2590.38022227755
-0.126539404503702,2590.39022227755
-0.137291326364704,2590.40022227755
-0.149082927700864,2590.41022227755
-0.160593396897111,2590.42022227755
-0.172429990929401,2590.43022227755
-0.184493233289058,2590.44022227755
-0.196626508077982,2590.45022227755
-0.208565865939672,2590.46022227755
-0.219373806087762,2590.47022227755
-0.228710434204206,2590.48022227755
-0.235190799094645,2590.49022227755
-0.236850164781566,2590.50022227755
-0.231267182560686,2590.51022227755
-0.215861890804245,2590.52022227755
-0.189071034355044,2590.53022227755
-0.150641791215132,2590.54022227755
-0.102112352732588,2590.55022227755
-0.0457355488527044,2590.56022227755
0.0146306887402468,2590.57022227755
0.0760089841111765,2590.58022227755
0.134919305417361,2590.59022227755
0.188964472654186,2590.60022227755
0.236806858301564,2590.61022227755
0.277436756803571,2590.62022227755
0.311154026924842,2590.63022227755
0.33827778882697,2590.64022227755
0.359560253897631,2590.65022227755
0.375638938251834,2590.66022227755
0.388326054392762,2590.67022227755
0.398001034526635,2590.68022227755
0.405286309179001,2590.69022227755
0.411782117939362,2590.70022227755
0.41797629639863,2590.71022227755
0.42435586437486,2590.72022227755
0.431604808416259,2590.73022227755
0.438240124824418,2590.74022227755
0.443371592772855,2590.75022227755
0.446136853685436,2590.76022227755
0.445461214374618,2590.77022227755
0.442309715313473,2590.78022227755
0.436582126971075,2590.79022227755
0.428262398960435,2590.80022227755
0.419192450225508,2590.81022227755
0.41043872555864,2590.82022227755
0.402862142461119,2590.83022227755
0.396763266485106,2590.84022227755
0.392474951641455,2590.85022227755
0.389117595151345,2590.86022227755
0.386849801028647,2590.87022227755
0.38531909376095,2590.88022227755
0.384402793438927,2590.89022227755
0.38341563203674,2590.90022227755
0.38297918502479,2590.91022227755
0.382185568619757,2590.92022227755
0.381360121827939,2590.93022227755
0.379957503521723,2590.94022227755
0.377024054507561,2590.95022227755
0.372988909222314,2590.96022227755
0.367404127678473,2590.97022227755
0.36017434825297,2590.98022227755
0.351787632135923,2590.99022227755
0.342003640807909,2591.00022227755
0.331475398102451,2591.01022227755
0.319999356846247,2591.02022227755
0.307416517743304,2591.03022227755
0.294549145791474,2591.04022227755
0.28089272846097,2591.05022227755
0.267078778304393,2591.06022227755
0.252966443242381,2591.07022227755
0.23841210662899,2591.08022227755
0.223995078031889,2591.09022227755
0.209438856009927,2591.10022227755
0.195297553208646,2591.11022227755
0.181440604264254,2591.12022227755
0.167924948571426,2591.13022227755
0.155202860964603,2591.14022227755
0.143168202448896,2591.15022227755
0.131656711083993,2591.16022227755
0.120263955747271,2591.17022227755
0.109181926510874,2591.18022227755
0.0984452477638725,2591.19022227755
0.0875824905567298,2591.20022227755
0.0767840287450491,2591.21022227755
0.0661506329947979,2591.22022227755
0.055016294913525,2591.23022227755
0.0438959136198814,2591.24022227755
0.032481684740693,2591.25022227755
0.0210957812364094,2591.26022227755
0.00977456542249204,2591.27022227755
-0.00175842239561897,2591.28022227755
-0.0136557644291042,2591.29022227755
-0.0253328814451425,2591.30022227755
-0.0365668481070618,2591.31022227755
-0.0468058487741999,2591.32022227755
-0.056572372621218,2591.33022227755
-0.0658794065118112,2591.34022227755
-0.0746912699036167,2591.35022227755
-0.0834962887345686,2591.36022227755
-0.0919124971139125,2591.37022227755
-0.100768805571223,2591.38022227755
-0.109764137316629,2591.39022227755
-0.118926308853246,2591.40022227755
-0.128301758816585,2591.41022227755
-0.138407885110744,2591.42022227755
-0.149559281537072,2591.43022227755
-0.160477653594817,2591.44022227755
-0.171653344160024,2591.45022227755
-0.18228452557805,2591.46022227755
-0.191577820945637,2591.47022227755
-0.197745872227828,2591.48022227755
-0.198164994934385,2591.49022227755
-0.191482518779932,2591.50022227755
-0.174013173543474,2591.51022227755
-0.145892222372788,2591.52022227755
-0.106851818410668,2591.53022227755
-0.0586859041016558,2591.54022227755
-0.00415271787006107,2591.55022227755
0.0542079445322758,2591.56022227755
0.111606286440286,2591.57022227755
0.166639588185718,2591.58022227755
0.215994315359495,2591.59022227755
0.257763488666736,2591.60022227755
0.291553094997217,2591.61022227755
0.317510997207825,2591.62022227755
0.336557728925064,2591.63022227755
0.350162776860985,2591.64022227755
0.359537594772824,2591.65022227755
0.365329730573876,2591.66022227755
0.36991530660147,2591.67022227755
0.373169182126257,2591.68022227755
0.375999481240157,2591.69022227755
0.378405455452604,2591.70022227755
0.380388319980905,2591.71022227755
0.381888023516091,2591.72022227755
0.381665004801365,2591.73022227755
0.379275669677814,2591.74022227755
0.374052703286429,2591.75022227755
0.366211126677234,2591.76022227755
0.35628242871843,2591.77022227755
0.344746072915845,2591.78022227755
0.333034597906463,2591.79022227755
0.322459367581134,2591.80022227755
0.313849967037347,2591.81022227755
0.30803652494389,2591.82022227755
0.304715451449007,2591.83022227755
0.303098141493896,2591.84022227755
0.302602060004203,2591.85022227755
0.303578493165829,2591.86022227755
0.305031191957768,2591.87022227755
0.306688512212825,2591.88022227755
0.307965728350793,2591.89022227755
0.308320256044608,2591.90022227755
