PPG,time
0.179138023345045,2524.40779457743
0.347055975805476,2524.41779457743
0.294991312433253,2524.42779457743
0.30777993789619,2524.43779457743
0.282409240127254,2524.44779457743
0.279774574531053,2524.45779457743
0.261152545847267,2524.46779457743
0.251372971201992,2524.47779457743
0.235279414269611,2524.48779457743
0.222087149114428,2524.49779457743
0.207294185231079,2524.50779457743
0.192847411870546,2524.51779457743
0.178262199894272,2524.52779457743
0.163816631941848,2524.53779457743
0.148768944482302,2524.54779457743
0.133601092226306,2524.55779457743
0.118470812246917,2524.56779457743
0.103619429381467,2524.57779457743
0.0893548727222379,2524.58779457743
0.075853842378054,2524.59779457743
0.0629155588778724,2524.60779457743
0.0506078094872654,2524.61779457743
0.0381491261514393,2524.62779457743
0.0256700203639189,2524.63779457743
0.0127999980427235,2524.64779457743
-0.000117564657792765,2524.65779457743
-0.013332065575281,2524.66779457743
-0.0267762042505534,2524.67779457743
-0.0399389151377511,2524.68779457743
-0.0530639643766507,2524.69779457743
-0.0666493094829227,2524.70779457743
-0.080473564725746,2524.71779457743
-0.0942751957393979,2524.72779457743
-0.107168952536212,2524.73779457743
-0.119909992268176,2524.74779457743
-0.132033467288897,2524.75779457743
-0.143704536162188,2524.76779457743
-0.155252190945998,2524.77779457743
-0.167036065087086,2524.78779457743
-0.179728744831077,2524.79779457743
-0.192534600104729,2524.80779457743
-0.205817424399328,2524.81779457743
-0.218709462433233,2524.82779457743
-0.231195091724428,2524.83779457743
-0.242987850741445,2524.84779457743
-0.253965007444982,2524.85779457743
-0.265015922872233,2524.86779457743
-0.275826449731934,2524.87779457743
-0.287265563134485,2524.88779457743
-0.298883787153074,2524.89779457743
-0.310872891526765,2524.90779457743
-0.322869553553625,2524.91779457743
-0.334446639412095,2524.92779457743
-0.345551977446287,2524.93779457743
-0.3558953005402,2524.94779457743
-0.362965346489564,2524.95779457743
-0.363435326651883,2524.96779457743
-0.352627013554689,2524.97779457743
-0.327357396939894,2524.98779457743
-0.286045308623109,2524.99779457743
-0.230848461497539,2525.00779457743
-0.166894058069814,2525.01779457743
-0.100569127660748,2525.02779457743
-0.0354963815683958,2525.03779457743
0.024536488832287,2525.04779457743
0.0787317616604104,2525.05779457743
0.126074323612079,2525.06779457743
0.166660702641235,2525.07779457743
0.20024272778674,2525.08779457743
0.226835576704083,2525.09779457743
0.247538377446357,2525.10779457743
0.262410588175827,2525.11779457743
0.273162972327491,2525.12779457743
0.280153247670425,2525.13779457743
0.284464233326054,2525.14779457743
0.286490297676033,2525.15779457743
0.287334369400254,2525.16779457743
0.287430026602338,2525.17779457743
0.287095613331851,2525.18779457743
0.287292198385129,2525.19779457743
0.287833979211514,2525.20779457743
0.288547777719922,2525.21779457743
0.288757288945997,2525.22779457743
0.287281789776618,2525.23779457743
0.283314206438843,2525.24779457743
0.276151801896328,2525.25779457743
0.265355058897687,2525.26779457743
0.252160488075684,2525.27779457743
0.237621270039676,2525.28779457743
0.223440746282412,2525.29779457743
0.211698180433297,2525.30779457743
0.203831227685187,2525.31779457743
0.201048768021821,2525.32779457743
0.203516114054305,2525.33779457743
0.210745937594369,2525.34779457743
0.221969253605948,2525.35779457743
0.234947880303949,2525.36779457743
0.248111311932005,2525.37779457743
0.260597616275254,2525.38779457743
0.271572813325384,2525.39779457743
0.28048967733787,2525.40779457743
0.287669077880822,2525.41779457743
0.292072547129724,2525.42779457743
0.293092758028035,2525.43779457743
0.291922814970603,2525.44779457743
0.288178756812735,2525.45779457743
0.282932582776446,2525.46779457743
0.27694036066228,2525.47779457743
0.269719209792551,2525.48779457743
0.262209965201897,2525.49779457743
0.253403463757435,2525.50779457743
0.243366283439088,2525.51779457743
0.232224763293557,2525.52779457743
0.219759025666387,2525.53779457743
0.207034477922229,2525.54779457743
0.194066677496629,2525.55779457743
0.180422429454978,2525.56779457743
0.166665406661813,2525.57779457743
0.152785050398693,2525.58779457743
0.138841574189245,2525.59779457743
0.124965793738382,2525.60779457743
0.111193655977388,2525.61779457743
0.0976896130423005,2525.62779457743
0.0849302819736364,2525.63779457743
0.0724251493826982,2525.64779457743
0.0597019549096572,2525.65779457743
0.0472143325632404,2525.66779457743
0.0347835664312562,2525.67779457743
0.0227308641934683,2525.68779457743
0.0103425719692583,2525.69779457743
-0.00212817859219402,2525.70779457743
-0.0137581304211847,2525.71779457743
-0.0259977169585782,2525.72779457743
-0.0377205698388686,2525.73779457743
-0.0501142622865478,2525.74779457743
-0.0620807800128809,2525.75779457743
-0.0738754202471254,2525.76779457743
-0.0857182465694895,2525.77779457743
-0.0968713509704195,2525.78779457743
-0.108214792634822,2525.79779457743
-0.11982445946529,2525.80779457743
-0.131853288473301,2525.81779457743
-0.144990397320129,2525.82779457743
-0.159156008156827,2525.83779457743
-0.173621267744576,2525.84779457743
-0.187862669821606,2525.85779457743
-0.20216166540495,2525.86779457743
-0.215715630130552,2525.87779457743
-0.228434011748316,2525.88779457743
-0.240814002654646,2525.89779457743
-0.252458904058549,2525.90779457743
-0.263200477460046,2525.91779457743
-0.271546199387894,2525.92779457743
-0.275095645624359,2525.93779457743
-0.26914029794956,2525.94779457743
-0.250072108888945,2525.95779457743
-0.215071738423852,2525.96779457743
-0.165586638838682,2525.97779457743
-0.105680365611877,2525.98779457743
-0.0402946947782319,2525.99779457743
0.025325101492904,2526.00779457743
0.0882091665584346,2526.01779457743
0.146084255635298,2526.02779457743
0.197721385907925,2526.03779457743
0.242010060921653,2526.04779457743
0.279063313326766,2526.05779457743
0.309804834728736,2526.06779457743
0.334636788425129,2526.07779457743
0.353513815049855,2526.08779457743
0.367869071525427,2526.09779457743
0.378028011314893,2526.10779457743
0.384960407067532,2526.11779457743
0.389504180386326,2526.12779457743
0.392274219445645,2526.13779457743
0.393913747941518,2526.14779457743
0.394146325775221,2526.15779457743
0.393151595305498,2526.16779457743
0.392089407574724,2526.17779457743
0.391414558464807,2526.18779457743
0.390550127497516,2526.19779457743
0.389366365644749,2526.20779457743
0.386649325593472,2526.21779457743
0.381686311483778,2526.22779457743
0.372810936879527,2526.23779457743
0.359648427254755,2526.24779457743
0.3437726711576,2526.25779457743
0.32714094841349,2526.26779457743
0.3124341145359,2526.27779457743
0.301264638911856,2526.28779457743
0.295183910065009,2526.29779457743
0.294101878409182,2526.30779457743
0.298529915970294,2526.31779457743
0.307189041569247,2526.32779457743
0.318072794151884,2526.33779457743
0.330010927961649,2526.34779457743
0.342305837778979,2526.35779457743
0.352466273223514,2526.36779457743
0.360785928266484,2526.37779457743
0.36670668649307,2526.38779457743
0.369350700902833,2526.39779457743
0.369385757702472,2526.40779457743
0.3669811362658,2526.41779457743
0.362036456346873,2526.42779457743
0.355264473653949,2526.43779457743
0.347037888908377,2526.44779457743
0.337671137935568,2526.45779457743
0.327380520796376,2526.46779457743
0.316145363653174,2526.47779457743
0.304039949366429,2526.48779457743
0.290804312836482,2526.49779457743
0.277477131830335,2526.50779457743
0.26379210640497,2526.51779457743
0.250223079732902,2526.52779457743
0.235724010237727,2526.53779457743
0.22105682817649,2526.54779457743
0.206149491668656,2526.55779457743
0.190965173388374,2526.56779457743
0.175998606018685,2526.57779457743
0.161568323144751,2526.58779457743
0.147022165350689,2526.59779457743
0.132527842757153,2526.60779457743
0.117775270413709,2526.61779457743
0.10341545717506,2526.62779457743
0.0892545782899506,2526.63779457743
0.0751099306081906,2526.64779457743
0.0612931218031866,2526.65779457743
0.047862711173296,2526.66779457743
0.0342502465029372,2526.67779457743
0.0211311043541357,2526.68779457743
0.00792066849724652,2526.69779457743
-0.00553660644587238,2526.70779457743
-0.0189397220572226,2526.71779457743
-0.032480711412111,2526.72779457743
-0.0464039112059849,2526.73779457743
-0.0603309119231884,2526.74779457743
-0.0743609474634997,2526.75779457743
-0.0879053043291315,2526.76779457743
-0.100687014740615,2526.77779457743
-0.113387353953635,2526.78779457743
-0.126429393555319,2526.79779457743
-0.139372102153094,2526.80779457743
-0.152472265763129,2526.81779457743
-0.165128226186799,2526.82779457743
-0.178113601365909,2526.83779457743
-0.190560875065663,2526.84779457743
-0.203694483199099,2526.85779457743
-0.216168419930444,2526.86779457743
-0.22913616939156,2526.87779457743
-0.242196556816778,2526.88779457743
-0.255616603553904,2526.89779457743
-0.268687240888668,2526.90779457743
-0.281876683963015,2526.91779457743
-0.2944293782993,2526.92779457743
-0.305246815295561,2526.93779457743
-0.312928461666686,2526.94779457743
-0.313398382704271,2526.95779457743
-0.303020787511259,2526.96779457743
-0.277037203443281,2526.97779457743
-0.23364372054027,2526.98779457743
-0.175347158488589,2526.99779457743
-0.106895993718623,2527.00779457743
-0.0339321717752389,2527.01779457743
0.0388550772623934,2527.02779457743
0.107889898102343,2527.03779457743
0.17105706302656,2527.04779457743
0.22807280770852,2527.05779457743
0.27725130128475,2527.06779457743
0.318742764096761,2527.07779457743
0.352788687890052,2527.08779457743
0.379769183592786,2527.09779457743
0.400995046697374,2527.10779457743
0.417227562588671,2527.11779457743
0.429287819016626,2527.12779457743
0.438242504027852,2527.13779457743
0.445052783565448,2527.14779457743
0.450208842844433,2527.15779457743
0.454959953193385,2527.16779457743
0.460005982308392,2527.17779457743
0.46553547165352,2527.18779457743
0.472190093809015,2527.19779457743
0.479418973586933,2527.20779457743
0.486571044574484,2527.21779457743
0.493304663617647,2527.22779457743
0.498008776934224,2527.23779457743
0.499263754145337,2527.24779457743
0.496206632370219,2527.25779457743
0.488302746289845,2527.26779457743
0.475827072057663,2527.27779457743
0.460578894075608,2527.28779457743
0.445184313480391,2527.29779457743
0.431779230867539,2527.30779457743
0.422624944247285,2527.31779457743
0.418054442447324,2527.32779457743
0.418807755975351,2527.33779457743
0.423563495240061,2527.34779457743
0.432134619830172,2527.35779457743
0.442108365444631,2527.36779457743
0.453264175103166,2527.37779457743
0.464195837416182,2527.38779457743
0.473388121864402,2527.39779457743
0.480738971087014,2527.40779457743
0.486136140147758,2527.41779457743
0.489319803815844,2527.42779457743
0.49035259333534,2527.43779457743
0.489180249206431,2527.44779457743
0.485416943101477,2527.45779457743
0.480262211815139,2527.46779457743
0.472422998978193,2527.47779457743
0.462601108630772,2527.48779457743
0.451120562052319,2527.49779457743
0.438618431868687,2527.50779457743
0.425784076988396,2527.51779457743
0.412701742748472,2527.52779457743
0.39921924928465,2527.53779457743
0.384652283724282,2527.54779457743
0.369577908135473,2527.55779457743
0.35362024879121,2527.56779457743
0.337370288824686,2527.57779457743
0.321326350333905,2527.58779457743
0.304959995198448,2527.59779457743
0.289406100356642,2527.60779457743
0.274017506036887,2527.61779457743
0.259254278379494,2527.62779457743
0.244995462787358,2527.63779457743
0.230534007066661,2527.64779457743
0.216394210449801,2527.65779457743
0.202500874253617,2527.66779457743
0.187777905814615,2527.67779457743
0.173622167528377,2527.68779457743
0.159173859464486,2527.69779457743
0.144736061193019,2527.70779457743
0.130450422673672,2527.71779457743
0.115887679510075,2527.72779457743
0.101081271264243,2527.73779457743
0.0859869964783593,2527.74779457743
0.0712217067403401,2527.75779457743
0.056127690895051,2527.76779457743
0.0412790073173318,2527.77779457743
0.027101297509554,2527.78779457743
0.0128758026618503,2527.79779457743
-0.000753213505785263,2527.80779457743
-0.0140322833138699,2527.81779457743
-0.0269584322908605,2527.82779457743
-0.0397748342294615,2527.83779457743
-0.0523486636147788,2527.84779457743
-0.0645786261352819,2527.85779457743
-0.0772691905190246,2527.86779457743
-0.0906175112256453,2527.87779457743
-0.103959074335553,2527.88779457743
-0.117429842981819,2527.89779457743
-0.130800349250868,2527.90779457743
-0.144548363785704,2527.91779457743
-0.157762914567503,2527.92779457743
-0.171568579502827,2527.93779457743
-0.184998376974204,2527.94779457743
-0.198378940180615,2527.95779457743
-0.211381008260684,2527.96779457743
-0.22461288434252,2527.97779457743
-0.237502746623582,2527.98779457743
-0.249342132795174,2527.99779457743
-0.258764967616495,2528.00779457743
-0.263579501875105,2528.01779457743
-0.259874668700102,2528.02779457743
-0.241888594341924,2528.03779457743
-0.206697014481831,2528.04779457743
-0.154178750493276,2528.05779457743
-0.0890025889453557,2528.06779457743
-0.0163475203158523,2528.07779457743
0.0581855511131116,2528.08779457743
0.130502416566251,2528.09779457743
0.19883180820037,2528.10779457743
0.260529942955735,2528.11779457743
0.31494426777567,2528.12779457743
0.361543155201541,2528.13779457743
0.400487225832585,2528.14779457743
0.431416436987332,2528.15779457743
0.45595620005833,2528.16779457743
0.473858591597998,2528.17779457743
0.486857255318635,2528.18779457743
0.496240292889159,2528.19779457743
0.503039258624499,2528.20779457743
0.508164074542841,2528.21779457743
0.5124833524722,2528.22779457743
0.516901246179204,2528.23779457743
0.52183447201722,2528.24779457743
0.526904482538106,2528.25779457743
0.532198240600761,2528.26779457743
0.537388944731588,2528.27779457743
0.541750820970009,2528.28779457743
0.544816091851029,2528.29779457743
0.544541385417945,2528.30779457743
0.539887681642625,2528.31779457743
0.530795624819729,2528.32779457743
0.517454110764811,2528.33779457743
0.501642901339897,2528.34779457743
0.485807555385913,2528.35779457743
0.472757780507005,2528.36779457743
0.463860502783492,2528.37779457743
0.45909421028407,2528.38779457743
0.459320804662351,2528.39779457743
0.463573646168111,2528.40779457743
0.471573144679622,2528.41779457743
0.481435285199668,2528.42779457743
0.492057464573062,2528.43779457743
0.502243753163714,2528.44779457743
0.511426016688627,2528.45779457743
0.519143457469035,2528.46779457743
0.524131448191601,2528.47779457743
0.526811999277691,2528.48779457743
0.52726282138492,2528.49779457743
0.525164434977183,2528.50779457743
0.520269296487688,2528.51779457743
0.513608650015467,2528.52779457743
0.505382073336847,2528.53779457743
0.495905328236847,2528.54779457743
0.485341316325174,2528.55779457743
0.473316931911647,2528.56779457743
0.459781093698507,2528.57779457743
0.44559413165201,2528.58779457743
0.430314562449742,2528.59779457743
0.414290593859369,2528.60779457743
0.398195056689273,2528.61779457743
0.381418410588667,2528.62779457743
0.365115857361866,2528.63779457743
0.348594298103265,2528.64779457743
0.331616688701072,2528.65779457743
0.314657954873209,2528.66779457743
0.298223305109797,2528.67779457743
0.282194481700547,2528.68779457743
0.266625653974088,2528.69779457743
0.252037620004729,2528.70779457743
0.237683338585987,2528.71779457743
0.223538579368948,2528.72779457743
0.209733550396196,2528.73779457743
0.195371162032125,2528.74779457743
0.180985932281191,2528.75779457743
0.166734726420205,2528.76779457743
0.152092115829961,2528.77779457743
0.137706973708715,2528.78779457743
0.123043413681454,2528.79779457743
0.108364207593377,2528.80779457743
0.0932610091430827,2528.81779457743
0.0779978448938148,2528.82779457743
0.0627954175722324,2528.83779457743
0.0480092869321072,2528.84779457743
0.0336523348868239,2528.85779457743
0.0192352558087127,2528.86779457743
0.00513481057929901,2528.87779457743
-0.00877713435458964,2528.88779457743
-0.0231052397710764,2528.89779457743
-0.0370432886103385,2528.90779457743
-0.0506664670138677,2528.91779457743
-0.0645344710674828,2528.92779457743
-0.0781409052686875,2528.93779457743
-0.0918952224228866,2528.94779457743
-0.105700362553273,2528.95779457743
-0.119489967916428,2528.96779457743
-0.133433912821031,2528.97779457743
-0.147393724628145,2528.98779457743
-0.160920610241368,2528.99779457743
-0.174401749354495,2529.00779457743
-0.18794655335681,2529.01779457743
-0.201100916806246,2529.02779457743
-0.214187306251354,2529.03779457743
-0.227817992926868,2529.04779457743
-0.240837758036747,2529.05779457743
-0.252361002268978,2529.06779457743
-0.260472385802163,2529.07779457743
-0.26074350173435,2529.08779457743
-0.248807478580793,2529.09779457743
-0.220191269699013,2529.10779457743
-0.174920989981838,2529.11779457743
-0.115636381826811,2529.12779457743
-0.0471649120903287,2529.13779457743
0.0248529343062114,2529.14779457743
0.0963221241696167,2529.15779457743
0.16391213596994,2529.16779457743
0.226082275601431,2529.17779457743
0.280328777297089,2529.18779457743
0.326612329973829,2529.19779457743
0.364455897768645,2529.20779457743
0.394257096498697,2529.21779457743
0.416587178745628,2529.22779457743
0.433431467011977,2529.23779457743
0.445039941848762,2529.24779457743
0.452614548210483,2529.25779457743
0.457496359486661,2529.26779457743
0.459514934223341,2529.27779457743
0.46087709727133,2529.28779457743
0.461219923093864,2529.29779457743
0.461312009898676,2529.30779457743
0.461849245453402,2529.31779457743
0.462623961384976,2529.32779457743
0.46319456662867,2529.33779457743
0.463026789224457,2529.34779457743
0.460651621942861,2529.35779457743
0.455170235280238,2529.36779457743
0.445793736702878,2529.37779457743
0.432313351040291,2529.38779457743
0.415586087451161,2529.39779457743
0.39748518087775,2529.40779457743
0.37981227794992,2529.41779457743
0.36639392674469,2529.42779457743
0.358728783407322,2529.43779457743
0.357993622681604,2529.44779457743
0.363865772715048,2529.45779457743
0.374916326257646,2529.46779457743
0.389550052676575,2529.47779457743
0.404795229205437,2529.48779457743
0.419450461709161,2529.49779457743
0.432340711318137,2529.50779457743
0.442699836011505,2529.51779457743
0.450710205411154,2529.52779457743
0.456026028629715,2529.53779457743
0.458293716513341,2529.54779457743
0.458471313998741,2529.55779457743
0.455971257135388,2529.56779457743
0.450776274336439,2529.57779457743
0.443620185014577,2529.58779457743
0.434384175735115,2529.59779457743
0.423555834818409,2529.60779457743
0.411830802591079,2529.61779457743
0.399400699473597,2529.62779457743
0.38612581500241,2529.63779457743
0.372336385105947,2529.64779457743
0.358007112787004,2529.65779457743
0.343431748825011,2529.66779457743
0.327958097614625,2529.67779457743
0.312439156513079,2529.68779457743
0.29673239899477,2529.69779457743
0.280497661441782,2529.70779457743
0.264341547822534,2529.71779457743
0.248874177337343,2529.72779457743
0.233076304874408,2529.73779457743
0.217676391965536,2529.74779457743
0.20292906849901,2529.75779457743
0.188411393815635,2529.76779457743
0.173876464955756,2529.77779457743
0.158964834300344,2529.78779457743
0.14413022444068,2529.79779457743
0.128822790622235,2529.80779457743
0.113461218162346,2529.81779457743
0.098178399039208,2529.82779457743
0.0829016579271479,2529.83779457743
0.068488701686633,2529.84779457743
0.0544330876428735,2529.85779457743
0.0409992983938745,2529.86779457743
0.0276859365434793,2529.87779457743
0.0146424459249314,2529.88779457743
0.00153290531456025,2529.89779457743
-0.0123306848360746,2529.90779457743
-0.0266873169228647,2529.91779457743
-0.0413725323588167,2529.92779457743
-0.0560742561348286,2529.93779457743
-0.0702575048859222,2529.94779457743
-0.0839906709227098,2529.95779457743
-0.0977313528782552,2529.96779457743
-0.112126832958085,2529.97779457743
-0.126593845655973,2529.98779457743
-0.141374776817029,2529.99779457743
-0.156359953775738,2530.00779457743
-0.171227696056381,2530.01779457743
-0.185345506032425,2530.02779457743
-0.199093612935877,2530.03779457743
-0.210761545195891,2530.04779457743
-0.219453325139268,2530.05779457743
-0.221873339342727,2530.06779457743
-0.213781681504716,2530.07779457743
-0.190627667682008,2530.08779457743
-0.150204669591875,2530.09779457743
-0.0943258567984595,2530.10779457743
-0.02692125817816,2530.11779457743
0.0470492926824583,2530.12779457743
0.121800606915314,2530.13779457743
0.194873038068757,2530.14779457743
0.263271565168572,2530.15779457743
0.325360378149791,2530.16779457743
0.379664699937455,2530.17779457743
0.425631230656229,2530.18779457743
0.463228321627843,2530.19779457743
0.493099173711621,2530.20779457743
0.515999055656461,2530.21779457743
0.533167428694463,2530.22779457743
0.545562826952536,2530.23779457743
0.553928735704074,2530.24779457743
0.55978569053059,2530.25779457743
0.564100563183629,2530.26779457743
0.567262842085129,2530.27779457743
0.569983089007822,2530.28779457743
0.57323823938997,2530.29779457743
0.577109468635858,2530.30779457743
0.581786573547607,2530.31779457743
0.585610789460364,2530.32779457743
0.587880792826624,2530.33779457743
0.587236121009821,2530.34779457743
0.582200156721551,2530.35779457743
0.57243117110733,2530.36779457743
0.558178119652713,2530.37779457743
0.540035744272813,2530.38779457743
0.520801138045538,2530.39779457743
0.503384558608978,2530.40779457743
0.489416026325274,2530.41779457743
0.480531621813317,2530.42779457743
0.477252288439544,2530.43779457743
0.47918124265854,2530.44779457743
0.485375419736041,2530.45779457743
0.494511477142123,2530.46779457743
0.505215708078702,2530.47779457743
0.516003730326108,2530.48779457743
0.525542004316223,2530.49779457743
0.53289898550361,2530.50779457743
0.53747292635778,2530.51779457743
0.539231240991528,2530.52779457743
0.538588270378103,2530.53779457743
0.535290856865824,2530.54779457743
0.530019910257667,2530.55779457743
0.523082508892002,2530.56779457743
0.514579982759715,2530.57779457743
0.504544756770267,2530.58779457743
0.492714871862464,2530.59779457743
0.479256799017423,2530.60779457743
0.464517360935771,2530.61779457743
0.44934127837617,2530.62779457743
0.433480770832746,2530.63779457743
0.417317130688031,2530.64779457743
0.401006430084659,2530.65779457743
0.383648236660618,2530.66779457743
0.365530458658303,2530.67779457743
0.346849468393602,2530.68779457743
0.328601397036114,2530.69779457743
0.309405434766076,2530.70779457743
0.290948901119273,2530.71779457743
0.272986871912376,2530.72779457743
0.255292500425356,2530.73779457743
0.238885174050081,2530.74779457743
0.222496753667112,2530.75779457743
0.207000085196929,2530.76779457743
0.192063391379921,2530.77779457743
0.177079389090521,2530.78779457743
0.16166202227241,2530.79779457743
0.146174574070038,2530.80779457743
0.130383659611441,2530.81779457743
0.114739357889055,2530.82779457743
0.099375411260614,2530.83779457743
0.0836330879043055,2530.84779457743
0.0678168280936337,2530.85779457743
0.0514543670431069,2530.86779457743
0.035341872713895,2530.87779457743
0.0192351623875898,2530.88779457743
0.00342298935154607,2530.89779457743
-0.011875451710375,2530.90779457743
-0.0273856989408149,2530.91779457743
-0.0426933569728005,2530.92779457743
-0.0581134783024842,2530.93779457743
-0.0732891874658268,2530.94779457743
-0.0879787280871558,2530.95779457743
-0.10199935528075,2530.96779457743
-0.115811587352511,2530.97779457743
-0.128806686195475,2530.98779457743
-0.141863552979696,2530.99779457743
-0.155156349734861,2531.00779457743
-0.168453418832638,2531.01779457743
-0.182823013881652,2531.02779457743
-0.197964023754089,2531.03779457743
-0.213177203791271,2531.04779457743
-0.227735866953751,2531.05779457743
-0.24227121761721,2531.06779457743
-0.25640060273067,2531.07779457743
-0.270394796655395,2531.08779457743
-0.283917597030327,2531.09779457743
-0.29699219688138,2531.10779457743
-0.308490289955421,2531.11779457743
-0.315701148560148,2531.12779457743
-0.315590413197691,2531.13779457743
-0.301494974324255,2531.14779457743
-0.26898365381574,2531.15779457743
-0.217028268258457,2531.16779457743
-0.14967087115155,2531.17779457743
-0.0726312935353919,2531.18779457743
0.00854809133939375,2531.19779457743
0.0876553129164289,2531.20779457743
0.162232184591673,2531.21779457743
0.229732461949211,2531.22779457743
0.288947838317576,2531.23779457743
0.340352862471635,2531.24779457743
0.383210997843507,2531.25779457743
0.417846750960685,2531.26779457743
0.444746371507895,2531.27779457743
0.464752510899018,2531.28779457743
0.479559003260539,2531.29779457743
0.489978753700291,2531.30779457743
0.497014295796853,2531.31779457743
0.502968447831292,2531.32779457743
0.507813346663254,2531.33779457743
0.512048644367771,2531.34779457743
0.516293960210885,2531.35779457743
0.520650955280379,2531.36779457743
0.525947854990899,2531.37779457743
0.531863880607041,2531.38779457743
0.536745517983199,2531.39779457743
0.539865255951997,2531.40779457743
0.540160783204377,2531.41779457743
0.536258757809541,2531.42779457743
0.527065710325031,2531.43779457743
0.51324477881137,2531.44779457743
0.496066613328966,2531.45779457743
0.477746823190586,2531.46779457743
0.460803157866595,2531.47779457743
0.44789278613238,2531.48779457743
0.440012178150148,2531.49779457743
0.437871263089335,2531.50779457743
0.441289265818083,2531.51779457743
0.448369534245518,2531.52779457743
0.458098811326272,2531.53779457743
0.469164854705734,2531.54779457743
0.480344466803731,2531.55779457743
0.490935497649068,2531.56779457743
0.499362201168415,2531.57779457743
0.5054489443182,2531.58779457743
0.50904863795574,2531.59779457743
0.509512981504162,2531.60779457743
0.507646487167866,2531.61779457743
0.503252719040277,2531.62779457743
0.496278359967404,2531.63779457743
0.487465856727233,2531.64779457743
0.476925380749894,2531.65779457743
0.464860156081943,2531.66779457743
0.451499097356456,2531.67779457743
0.436805445240379,2531.68779457743
0.420841779185879,2531.69779457743
0.404076658781526,2531.70779457743
0.386534747989326,2531.71779457743
0.36871558276489,2531.72779457743
0.350674957808912,2531.73779457743
0.332466412168985,2531.74779457743
0.313322231488125,2531.75779457743
0.294361097426016,2531.76779457743
0.27475818388331,2531.77779457743
0.256376211172732,2531.78779457743
0.23801558053893,2531.79779457743
0.220754225729075,2531.80779457743
0.204596925454689,2531.81779457743
0.188600235167874,2531.82779457743
0.173153012088967,2531.83779457743
0.157602867283014,2531.84779457743
0.142528514396012,2531.85779457743
0.126874004649097,2531.86779457743
0.110897571694056,2531.87779457743
0.0951305069286339,2531.88779457743
0.0791849557567671,2531.89779457743
0.0635205738400964,2531.90779457743
0.0478976142016733,2531.91779457743
0.0322718119460913,2531.92779457743
0.0164520581304115,2531.93779457743
0.000688362962265059,2531.94779457743
-0.0156521703655876,2531.95779457743
-0.0322634918274083,2531.96779457743
-0.0488237855084337,2531.97779457743
-0.0648442578871111,2531.98779457743
-0.0804050964382023,2531.99779457743
-0.0957228557957231,2532.00779457743
-0.110331654429069,2532.01779457743
-0.12527826821216,2532.02779457743
-0.140182852227487,2532.03779457743
-0.154721446762074,2532.04779457743
-0.168619901236586,2532.05779457743
-0.182692678241247,2532.06779457743
-0.196121461533744,2532.07779457743
-0.209512306712428,2532.08779457743
-0.222790622160445,2532.09779457743
-0.236364543414238,2532.10779457743
-0.25022025635543,2532.11779457743
-0.264305831080263,2532.12779457743
-0.278280571757647,2532.13779457743
-0.292632403317973,2532.14779457743
-0.306714104035776,2532.15779457743
-0.321154442551303,2532.16779457743
-0.336314305012932,2532.17779457743
-0.350549537729377,2532.18779457743
-0.364583374560342,2532.19779457743
-0.377512943072164,2532.20779457743
-0.388584257718706,2532.21779457743
-0.395276981643892,2532.22779457743
-0.392978186044438,2532.23779457743
-0.377157136051408,2532.24779457743
-0.342835344408146,2532.25779457743
-0.289948790899952,2532.26779457743
-0.221031476580756,2532.27779457743
-0.142199366221959,2532.28779457743
-0.0597257487728584,2532.29779457743
0.0208951031016159,2532.30779457743
0.0961095038441004,2532.31779457743
0.164223268633224,2532.32779457743
0.22411924322841,2532.33779457743
0.275526892771662,2532.34779457743
0.317731824253738,2532.35779457743
0.351885464599933,2532.36779457743
0.378468325547281,2532.37779457743
0.398034381702847,2532.38779457743
0.4119894690687,2532.39779457743
0.42205989617472,2532.40779457743
0.428141002957836,2532.41779457743
0.431892014188063,2532.42779457743
0.434393068743462,2532.43779457743
0.436540235055378,2532.44779457743
0.438951462155035,2532.45779457743
0.441734167132777,2532.46779457743
0.44498216760203,2532.47779457743
0.44845543755517,2532.48779457743
0.451419054745555,2532.49779457743
0.452566232728285,2532.50779457743
0.451064667129336,2532.51779457743
0.445636757060279,2532.52779457743
0.435418406821719,2532.53779457743
0.421105128861955,2532.54779457743
0.402998454551122,2532.55779457743
0.384056760222412,2532.56779457743
0.366741367113913,2532.57779457743
0.353450787086098,2532.58779457743
0.346026268993614,2532.59779457743
0.344955890093867,2532.60779457743
0.349589918481512,2532.61779457743
0.3573708379855,2532.62779457743
0.368430508003996,2532.63779457743
0.379869133892042,2532.64779457743
0.391605320879852,2532.65779457743
0.402007098956997,2532.66779457743
0.410543850016728,2532.67779457743
0.416245067416532,2532.68779457743
0.419005358297986,2532.69779457743
0.418689045347359,2532.70779457743
0.415908091193084,2532.71779457743
0.410774006640878,2532.72779457743
0.403456278910601,2532.73779457743
0.394241242840297,2532.74779457743
0.383412785829317,2532.75779457743
0.37133827109161,2532.76779457743
0.358423649157697,2532.77779457743
0.34419121881887,2532.78779457743
0.328990262661629,2532.79779457743
0.312035428913022,2532.80779457743
0.294499974424283,2532.81779457743
0.276138545983603,2532.82779457743
0.257611447574429,2532.83779457743
0.239485950186093,2532.84779457743
0.221223183553208,2532.85779457743
0.204221905594088,2532.86779457743
0.187160396490236,2532.87779457743
0.170392065978167,2532.88779457743
0.153217664381796,2532.89779457743
0.136191307317262,2532.90779457743
0.119093632089775,2532.91779457743
0.10244282677548,2532.92779457743
0.0862839442497449,2532.93779457743
0.0708420135842962,2532.94779457743
0.0549906581571246,2532.95779457743
0.0392692638206744,2532.96779457743
0.0230755533664857,2532.97779457743
0.00748677923156915,2532.98779457743
-0.00779489086946648,2532.99779457743
-0.0231381127286112,2533.00779457743
-0.0380565742367582,2533.01779457743
-0.0538671825460015,2533.02779457743
-0.0693794212947176,2533.03779457743
-0.0849633201927915,2533.04779457743
-0.100084111555421,2533.05779457743
-0.114883548258425,2533.06779457743
-0.129711720440855,2533.07779457743
-0.144547802159633,2533.08779457743
-0.159118196363855,2533.09779457743
-0.173931699369932,2533.10779457743
-0.188082563508493,2533.11779457743
-0.201479408516196,2533.12779457743
-0.214213557074544,2533.13779457743
-0.226754378572094,2533.14779457743
-0.23953980028808,2533.15779457743
-0.252690317328936,2533.16779457743
-0.266373509902511,2533.17779457743
-0.280621220325727,2533.18779457743
-0.295356423883581,2533.19779457743
-0.310655443986402,2533.20779457743
-0.325659305497488,2533.21779457743
-0.340159184835496,2533.22779457743
-0.354272259609796,2533.23779457743
-0.367722558441853,2533.24779457743
-0.38117416401824,2533.25779457743
-0.394351712417963,2533.26779457743
-0.407081400821798,2533.27779457743
-0.417837337677565,2533.28779457743
-0.423484927567235,2533.29779457743
-0.42034420489704,2533.30779457743
-0.402708276801736,2533.31779457743
-0.365757372492964,2533.32779457743
-0.310478007620095,2533.33779457743
-0.240441216798459,2533.34779457743
-0.161845426275162,2533.35779457743
-0.0812906860904477,2533.36779457743
-0.00402487288036955,2533.37779457743
0.0673391046508991,2533.38779457743
0.130875767852068,2533.39779457743
0.185945255555682,2533.40779457743
0.233000229280925,2533.41779457743
0.270843103628867,2533.42779457743
0.301521018617939,2533.43779457743
0.325334402176692,2533.44779457743
0.342856275496446,2533.45779457743
0.355349473720992,2533.46779457743
0.362562751706586,2533.47779457743
0.366470980578111,2533.48779457743
0.367787688151567,2533.49779457743
0.367330542177484,2533.50779457743
0.366321421775913,2533.51779457743
0.364968113059391,2533.52779457743
0.364118175601613,2533.53779457743
0.363725685071355,2533.54779457743
0.363853410308754,2533.55779457743
0.363172170390664,2533.56779457743
0.360686566030167,2533.57779457743
0.354861857235501,2533.58779457743
0.344846487809671,2533.59779457743
0.330935740411847,2533.60779457743
0.312415754784253,2533.61779457743
0.292006230897697,2533.62779457743
0.272301995924767,2533.63779457743
0.25597015301828,2533.64779457743
0.244920240566825,2533.65779457743
0.240581904256811,2533.66779457743
0.243148593680582,2533.67779457743
0.251088168379036,2533.68779457743
0.263319193220794,2533.69779457743
0.277706963836714,2533.70779457743
0.291952125301392,2533.71779457743
0.30550959773319,2533.72779457743
0.316753768037449,2533.73779457743
0.325509141913704,2533.74779457743
0.331468364303665,2533.75779457743
0.334545792365811,2533.76779457743
0.334895759683433,2533.77779457743
0.332904349117647,2533.78779457743
0.328556346844809,2533.79779457743
0.321897431104438,2533.80779457743
0.313113040070378,2533.81779457743
0.302198257739451,2533.82779457743
0.28944142803215,2533.83779457743
0.27475822692592,2533.84779457743
0.259016687764951,2533.85779457743
0.242304313885695,2533.86779457743
0.225444593296626,2533.87779457743
0.208377455654625,2533.88779457743
0.191063425456331,2533.89779457743
0.173802467952461,2533.90779457743
0.156137383082131,2533.91779457743
0.138772395183646,2533.92779457743
0.121650851965897,2533.93779457743
0.104998726881427,2533.94779457743
0.0886689423718618,2533.95779457743
0.0726269941866274,2533.96779457743
0.0570423220003363,2533.97779457743
0.0414894978871489,2533.98779457743
0.0260882045450644,2533.99779457743
0.0108230450316565,2534.00779457743
-0.00445995312461441,2534.01779457743
-0.0190870213750738,2534.02779457743
-0.0333570061105077,2534.03779457743
-0.0471735225318053,2534.04779457743
-0.0612636866854004,2534.05779457743
-0.075110975632772,2534.06779457743
-0.0886264233090694,2534.07779457743
-0.102373775701789,2534.08779457743
-0.115497581683681,2534.09779457743
-0.129392580517455,2534.10779457743
-0.142416804324534,2534.11779457743
-0.1548935049112,2534.12779457743
-0.167337895251477,2534.13779457743
-0.179607446435258,2534.14779457743
-0.192078108151271,2534.15779457743
-0.204655263836132,2534.16779457743
-0.217532610573411,2534.17779457743
-0.230444175851272,2534.18779457743
-0.243818362175744,2534.19779457743
-0.257728199714948,2534.20779457743
-0.27189883981263,2534.21779457743
-0.285987233720348,2534.22779457743
-0.300645477667026,2534.23779457743
-0.314329255278851,2534.24779457743
-0.327732008844448,2534.25779457743
-0.340564018202968,2534.26779457743
-0.352251774240817,2534.27779457743
-0.362240883733754,2534.28779457743
-0.36946524148832,2534.29779457743
-0.371176984928745,2534.30779457743
-0.363172160929897,2534.31779457743
-0.33981957891827,2534.32779457743
-0.298717410714204,2534.33779457743
-0.24089166596712,2534.34779457743
-0.170790694826817,2534.35779457743
-0.0947678318346753,2534.36779457743
-0.018364700391256,2534.37779457743
0.0543215665397896,2534.38779457743
0.120813504461509,2534.39779457743
0.180445360221502,2534.40779457743
0.231658249849413,2534.41779457743
0.274764693584155,2534.42779457743
0.309525017811773,2534.43779457743
0.336338670793661,2534.44779457743
0.355581937372182,2534.45779457743
0.368376669530966,2534.46779457743
0.375605850158345,2534.47779457743
0.378734299597393,2534.48779457743
0.378650835769938,2534.49779457743
0.376114842523833,2534.50779457743
0.372432359390784,2534.51779457743
0.368152617154319,2534.52779457743
0.364540110372369,2534.53779457743
0.361507159576759,2534.54779457743
0.358337045916537,2534.55779457743
0.354290564229569,2534.56779457743
0.347812130345672,2534.57779457743
0.337756110747971,2534.58779457743
0.323122674725368,2534.59779457743
0.303629396994737,2534.60779457743
0.281423159586833,2534.61779457743
0.258527168448059,2534.62779457743
0.237791067136182,2534.63779457743
0.221325935056429,2534.64779457743
0.211156860046745,2534.65779457743
0.208597941649644,2534.66779457743
0.213117046182227,2534.67779457743
0.222837584063285,2534.68779457743
0.23671915500164,2534.69779457743
0.251714625608831,2534.70779457743
0.266493766649252,2534.71779457743
0.279666601831873,2534.72779457743
0.289577136814328,2534.73779457743
0.296538672869827,2534.74779457743
0.300694744823251,2534.75779457743
0.301076553517663,2534.76779457743
0.298597676343768,2534.77779457743
0.293338180753538,2534.78779457743
0.285673970461296,2534.79779457743
0.276206449347162,2534.80779457743
0.265112882500727,2534.81779457743
0.252549318955577,2534.82779457743
0.238627506987585,2534.83779457743
0.223808889509008,2534.84779457743
0.208496373008206,2534.85779457743
0.192462713724237,2534.86779457743
0.175762067687607,2534.87779457743
0.159134300669723,2534.88779457743
0.142097070430936,2534.89779457743
0.125614846522182,2534.90779457743
0.109486780899103,2534.91779457743
0.0933926802800412,2534.92779457743
0.0781390157284392,2534.93779457743
0.0631843166960133,2534.94779457743
0.0482789831993867,2534.95779457743
0.0337765089299328,2534.96779457743
0.0192762253311641,2534.97779457743
0.00467103933723836,2534.98779457743
-0.00948208898525639,2534.99779457743
-0.0246333921064422,2535.00779457743
-0.0399276996520142,2535.01779457743
-0.0550182208769361,2535.02779457743
-0.0708778886957833,2535.03779457743
-0.0862075154093441,2535.04779457743
-0.101346990733495,2535.05779457743
-0.116170418424703,2535.06779457743
-0.130789770728368,2535.07779457743
-0.145550806028059,2535.08779457743
-0.160615996684969,2535.09779457743
-0.17581264720882,2535.10779457743
-0.191308483128374,2535.11779457743
-0.206666271094137,2535.12779457743
-0.221614055601951,2535.13779457743
-0.236184310231719,2535.14779457743
-0.249448644908154,2535.15779457743
-0.262657646135737,2535.16779457743
-0.275419256244809,2535.17779457743
-0.288353216212132,2535.18779457743
-0.300763259178486,2535.19779457743
-0.313387299048481,2535.20779457743
-0.325429367474097,2535.21779457743
-0.337507742342194,2535.22779457743
-0.349978506239061,2535.23779457743
-0.362687825855725,2535.24779457743
-0.376160464382457,2535.25779457743
-0.390157227927032,2535.26779457743
-0.404155134196615,2535.27779457743
-0.417313969850536,2535.28779457743
-0.43007510219508,2535.29779457743
-0.442048559341911,2535.30779457743
-0.45245459016225,2535.31779457743
-0.460492446237249,2535.32779457743
-0.462867942217038,2535.33779457743
-0.453972473991644,2535.34779457743
-0.428518093878619,2535.35779457743
-0.382063653604919,2535.36779457743
-0.316908014096266,2535.37779457743
-0.237857148243599,2535.38779457743
-0.151840198600257,2535.39779457743
-0.0647564413946147,2535.40779457743
0.0188747436063023,2535.41779457743
0.0956780409134348,2535.42779457743
0.164552189355531,2535.43779457743
0.224526514855945,2535.44779457743
0.275871802466314,2535.45779457743
0.318407039216502,2535.46779457743
0.352900201555786,2535.47779457743
0.379605136632646,2535.48779457743
0.399956108243777,2535.49779457743
0.414454920111242,2535.50779457743
0.424860712450076,2535.51779457743
0.432740822051702,2535.52779457743
0.438620793456638,2535.53779457743
0.443734398717706,2535.54779457743
0.448765288394314,2535.55779457743
0.453855196484526,2535.56779457743
0.459407060533425,2535.57779457743
0.465690338222192,2535.58779457743
0.47228037640194,2535.59779457743
0.478908807216357,2535.60779457743
0.484601812926196,2535.61779457743
0.487214943509456,2535.62779457743
0.485467639426666,2535.63779457743
0.478389807956495,2535.64779457743
0.466055139580531,2535.65779457743
0.449501709641083,2535.66779457743
0.431184171893521,2535.67779457743
0.413691730655378,2535.68779457743
0.399903311763288,2535.69779457743
0.390882036409195,2535.70779457743
0.387829166099028,2535.71779457743
0.390332032919254,2535.72779457743
0.397534006367102,2535.73779457743
0.407524188900952,2535.74779457743
0.419403918541618,2535.75779457743
0.431742366311356,2535.76779457743
0.443450035959242,2535.77779457743
0.453682582348832,2535.78779457743
0.461739829330935,2535.79779457743
0.46661555722745,2535.80779457743
0.468232022151221,2535.81779457743
0.467216492862881,2535.82779457743
0.463337618066689,2535.83779457743
0.456821491650911,2535.84779457743
0.447875775911422,2535.85779457743
0.436986903729442,2535.86779457743
0.424309442162241,2535.87779457743
0.410329194121749,2535.88779457743
0.394742168231337,2535.89779457743
0.378105085919529,2535.90779457743
0.360661626199685,2535.91779457743
0.342300394884589,2535.92779457743
0.323897073737611,2535.93779457743
0.305433103547058,2535.94779457743
0.287791812383155,2535.95779457743
0.270343493148996,2535.96779457743
0.253681448531729,2535.97779457743
0.237082784283229,2535.98779457743
0.220292582312127,2535.99779457743
0.204079945209404,2536.00779457743
0.188054075440124,2536.01779457743
0.172579452229,2536.02779457743
0.156447353603258,2536.03779457743
0.140959470880767,2536.04779457743
0.125278447952692,2536.05779457743
0.109478604254998,2536.06779457743
0.093882378824787,2536.07779457743
0.0782369599580622,2536.08779457743
0.0633184426524483,2536.09779457743
0.0487190215940863,2536.10779457743
0.0341966060864908,2536.11779457743
0.0197494181995765,2536.12779457743
0.00510690618899864,2536.13779457743
-0.0103451483244709,2536.14779457743
-0.0255932166868121,2536.15779457743
-0.0413028187347109,2536.16779457743
-0.0575009463617134,2536.17779457743
-0.0735517293485368,2536.18779457743
-0.0890792947710487,2536.19779457743
-0.104006475496821,2536.20779457743
-0.118418986361201,2536.21779457743
-0.132290905060979,2536.22779457743
-0.146412619948326,2536.23779457743
-0.160417535996201,2536.24779457743
-0.173937313458527,2536.25779457743
-0.187311195815361,2536.26779457743
-0.200453949154443,2536.27779457743
-0.213770066743442,2536.28779457743
-0.227313690334608,2536.29779457743
-0.24148135990768,2536.30779457743
-0.255712914179413,2536.31779457743
-0.270138439910628,2536.32779457743
-0.284273599408257,2536.33779457743
-0.298218811613844,2536.34779457743
-0.312276348322441,2536.35779457743
-0.32665193840803,2536.36779457743
-0.341158011947275,2536.37779457743
-0.355898479251309,2536.38779457743
-0.369806200312849,2536.39779457743
-0.382926808464397,2536.40779457743
-0.393718551161277,2536.41779457743
-0.399506660554423,2536.42779457743
-0.395355767667439,2536.43779457743
-0.376486123176844,2536.44779457743
-0.337450300250959,2536.45779457743
-0.278891491226235,2536.46779457743
-0.204595412993932,2536.47779457743
-0.12108050918331,2536.48779457743
-0.0341160725045707,2536.49779457743
0.0514368835813367,2536.50779457743
0.131250026643297,2536.51779457743
0.203889897122643,2536.52779457743
0.267680099309062,2536.53779457743
0.321547978096603,2536.54779457743
0.365840989134468,2536.55779457743
0.401433597669176,2536.56779457743
0.42863324821657,2536.57779457743
0.449121815840818,2536.58779457743
0.464357714170724,2536.59779457743
0.474800430420656,2536.60779457743
0.481637190826601,2536.61779457743
0.48546873885246,2536.62779457743
0.488223560182833,2536.63779457743
0.49041330377502,2536.64779457743
0.49301712300246,2536.65779457743
0.496704861785227,2536.66779457743
0.500695076197968,2536.67779457743
0.504837649692744,2536.68779457743
0.508774386322009,2536.69779457743
0.511111552039093,2536.70779457743
0.510485349523968,2536.71779457743
0.505945819752294,2536.72779457743
0.496200340652748,2536.73779457743
0.481628167023887,2536.74779457743
0.463344456225777,2536.75779457743
0.443647801473104,2536.76779457743
0.426540668376735,2536.77779457743
0.413313374412984,2536.78779457743
0.405759328850289,2536.79779457743
0.404398425387227,2536.80779457743
0.408534896689664,2536.81779457743
0.417259436645672,2536.82779457743
0.428955410332742,2536.83779457743
0.442027911258975,2536.84779457743
0.455040015598122,2536.85779457743
0.466547447702445,2536.86779457743
0.475803255720533,2536.87779457743
0.481713119586592,2536.88779457743
0.484303748286233,2536.89779457743
0.484082452710664,2536.90779457743
0.480451246971658,2536.91779457743
0.474505828713602,2536.92779457743
0.465905700604634,2536.93779457743
0.455039741102011,2536.94779457743
0.442736920608408,2536.95779457743
0.428847112167396,2536.96779457743
0.41388798785668,2536.97779457743
0.398479832504616,2536.98779457743
0.381572584896403,2536.99779457743
0.364080575005974,2537.00779457743
0.346238942843388,2537.01779457743
0.327618868422264,2537.02779457743
0.308913396410275,2537.03779457743
0.289724181003204,2537.04779457743
0.271282960376106,2537.05779457743
0.253533106703574,2537.06779457743
0.236519757777092,2537.07779457743
0.219663732724593,2537.08779457743
0.203066155984801,2537.09779457743
0.186572540835616,2537.10779457743
0.17030972101013,2537.11779457743
0.154712509202144,2537.12779457743
0.139437207288641,2537.13779457743
0.124836870504565,2537.14779457743
0.110174811915413,2537.15779457743
0.0948178579684601,2537.16779457743
0.0791331857321541,2537.17779457743
0.0633043429347057,2537.18779457743
0.0469714104632153,2537.19779457743
0.0310122463528814,2537.20779457743
0.0150183290416464,2537.21779457743
-0.000562323493281168,2537.22779457743
-0.0159418703668706,2537.23779457743
-0.0320646748339155,2537.24779457743
-0.0483127144588596,2537.25779457743
-0.0647115847245003,2537.26779457743
-0.0809668737649377,2537.27779457743
-0.0969388721841004,2537.28779457743
-0.112437750131784,2537.29779457743
-0.127440502156841,2537.30779457743
-0.142041416568229,2537.31779457743
-0.156072304784411,2537.32779457743
-0.170544947711847,2537.33779457743
-0.184580455529783,2537.34779457743
-0.198594652634993,2537.35779457743
-0.211882414471892,2537.36779457743
-0.225225278738392,2537.37779457743
-0.238110888345142,2537.38779457743
-0.251812202906451,2537.39779457743
-0.265976140403743,2537.40779457743
-0.280096553174994,2537.41779457743
-0.294748058433645,2537.42779457743
-0.309234000222506,2537.43779457743
-0.323408604770512,2537.44779457743
-0.337383976785928,2537.45779457743
-0.351285723057501,2537.46779457743
-0.364705660015805,2537.47779457743
-0.378225803419642,2537.48779457743
-0.391375358507311,2537.49779457743
-0.403653030739577,2537.50779457743
-0.413297296284912,2537.51779457743
-0.416661977470803,2537.52779457743
-0.408871235933833,2537.53779457743
-0.384865406901632,2537.54779457743
-0.340903417574865,2537.55779457743
-0.278612548390335,2537.56779457743
-0.203401268885939,2537.57779457743
-0.121039149309868,2537.58779457743
-0.0373695670605856,2537.59779457743
0.0431410716618812,2537.60779457743
0.117554054697508,2537.61779457743
0.184687771367458,2537.62779457743
0.242456861043872,2537.63779457743
0.290785856063666,2537.64779457743
0.329716784128696,2537.65779457743
0.35903741930856,2537.66779457743
0.380304682493953,2537.67779457743
0.39453532830162,2537.68779457743
0.403593737326163,2537.69779457743
0.408858323865197,2537.70779457743
0.411531690202578,2537.71779457743
0.41204030444367,2537.72779457743
0.411381144794818,2537.73779457743
0.410221631700915,2537.74779457743
0.409802700291426,2537.75779457743
0.409616666374728,2537.76779457743
0.409626645366615,2537.77779457743
0.409793200757789,2537.78779457743
0.408714325494572,2537.79779457743
0.405499784376915,2537.80779457743
0.398981649721876,2537.81779457743
0.388293223594439,2537.82779457743
0.372760532606142,2537.83779457743
0.353129983213157,2537.84779457743
0.331947867466329,2537.85779457743
0.312274485139015,2537.86779457743
0.29648776729374,2537.87779457743
0.287243507530317,2537.88779457743
0.285429940531322,2537.89779457743
0.290361906939379,2537.90779457743
0.300724368119774,2537.91779457743
0.315095572341415,2537.92779457743
0.330275226739878,2537.93779457743
0.345602686319641,2537.94779457743
0.35966748951209,2537.95779457743
0.370914852813784,2537.96779457743
0.378997155753841,2537.97779457743
0.38369019192705,2537.98779457743
0.385547910031181,2537.99779457743
0.385143599274576,2538.00779457743
0.381977087728989,2538.01779457743
0.376786761697752,2538.02779457743
0.369134262801158,2538.03779457743
0.359023157575784,2538.04779457743
0.346884311200216,2538.05779457743
0.33301636579599,2538.06779457743
0.318108806075241,2538.07779457743
0.30207784930586,2538.08779457743
0.285180876790907,2538.09779457743
0.267677554661895,2538.10779457743
0.250232890485426,2538.11779457743
0.232186867179197,2538.12779457743
0.214039004168559,2538.13779457743
0.196290085114727,2538.14779457743
0.17859121706777,2538.15779457743
0.160975372566188,2538.16779457743
0.143817221436375,2538.17779457743
0.12685411464373,2538.18779457743
0.110958201115083,2538.19779457743
0.0956103197637105,2538.20779457743
0.0813119711772157,2538.21779457743
0.0676234766627447,2538.22779457743
0.0542798291211349,2538.23779457743
0.0411328839897756,2538.24779457743
0.027934304871916,2538.25779457743
0.0146556890767688,2538.26779457743
0.00031634468715956,2538.27779457743
-0.014296218616197,2538.28779457743
-0.0287755939607691,2538.29779457743
-0.0435479494281823,2538.30779457743
-0.0578827150814574,2538.31779457743
-0.0721765838539435,2538.32779457743
-0.08544562515964,2538.33779457743
-0.0985729948511862,2538.34779457743
-0.11213800634121,2538.35779457743
-0.1259412501583,2538.36779457743
-0.139767024107429,2538.37779457743
-0.15402917022751,2538.38779457743
-0.167793357845319,2538.39779457743
-0.181811096543778,2538.40779457743
-0.196111889627592,2538.41779457743
-0.210243510891619,2538.42779457743
-0.225071336043008,2538.43779457743
-0.240064201334776,2538.44779457743
-0.254846255376932,2538.45779457743
-0.269315013214056,2538.46779457743
-0.283653163965283,2538.47779457743
-0.298035058023955,2538.48779457743
-0.312572308846267,2538.49779457743
-0.327089885907717,2538.50779457743
-0.341185917405772,2538.51779457743
-0.354416518078748,2538.52779457743
-0.365553319390246,2538.53779457743
-0.370805027309605,2538.54779457743
-0.367212167303192,2538.55779457743
-0.34869925238841,2538.56779457743
-0.312347478879407,2538.57779457743
-0.258293040754196,2538.58779457743
-0.190054083513891,2538.59779457743
-0.114005929700185,2538.60779457743
-0.0342704714981974,2538.61779457743
0.0439357040401001,2538.62779457743
0.116812790581488,2538.63779457743
0.184040642085094,2538.64779457743
0.242771537508221,2538.65779457743
0.29269344223729,2538.66779457743
0.333552606413963,2538.67779457743
0.364899663750119,2538.68779457743
0.38736948671418,2538.69779457743
0.402361234187139,2538.70779457743
0.410846366272975,2538.71779457743
0.414402663877003,2538.72779457743
0.413995178120592,2538.73779457743
0.411363172263233,2538.74779457743
0.407166657833536,2538.75779457743
0.403439488256901,2538.76779457743
0.399746335384695,2538.77779457743
0.396474953050646,2538.78779457743
0.393302214597134,2538.79779457743
0.389255042084883,2538.80779457743
0.38368450984346,2538.81779457743
0.376099342060223,2538.82779457743
0.364784977600964,2538.83779457743
0.349097325389258,2538.84779457743
0.33003047410894,2538.85779457743
0.308098061760789,2538.86779457743
0.286247393740788,2538.87779457743
0.266681471046364,2538.88779457743
0.251864902461616,2538.89779457743
0.243039645084628,2538.90779457743
0.240289183261089,2538.91779457743
0.243671550827784,2538.92779457743
0.251688125579014,2538.93779457743
0.262986728097373,2538.94779457743
0.275792093081266,2538.95779457743
0.28850204696275,2538.96779457743
0.299591588994531,2538.97779457743
0.308447192423829,2538.98779457743
0.314627845550758,2538.99779457743
0.317434985385719,2539.00779457743
0.316272377656351,2539.01779457743
0.31208371908546,2539.02779457743
0.3050539955304,2539.03779457743
0.295728276144287,2539.04779457743
0.284401842041337,2539.05779457743
0.271027946931724,2539.06779457743
0.257588726425567,2539.07779457743
0.242994513659151,2539.08779457743
0.227352651532196,2539.09779457743
0.211206607006147,2539.10779457743
0.19459605672832,2539.11779457743
0.176824546021615,2539.12779457743
0.158695698720779,2539.13779457743
0.140588726257716,2539.14779457743
0.122248866491953,2539.15779457743
0.10372745835076,2539.16779457743
0.0854445202054753,2539.17779457743
0.0680991841063038,2539.18779457743
0.0502674180928133,2539.19779457743
0.0330944814882239,2539.20779457743
0.0160785681949385,2539.21779457743
-0.000719443905183999,2539.22779457743
-0.017565381438157,2539.23779457743
-0.0337897166978043,2539.24779457743
-0.0498338683157439,2539.25779457743
-0.0660547593170048,2539.26779457743
-0.0822398672244722,2539.27779457743
-0.0981691123070488,2539.28779457743
-0.11330965555604,2539.29779457743
-0.1285884250528,2539.30779457743
-0.143964508312959,2539.31779457743
-0.159352730627787,2539.32779457743
-0.175443471929084,2539.33779457743
-0.190614130676966,2539.34779457743
-0.205884592198799,2539.35779457743
-0.221408480707416,2539.36779457743
-0.237244523824877,2539.37779457743
-0.253190558087281,2539.38779457743
-0.269615761316068,2539.39779457743
-0.285266909817248,2539.40779457743
-0.300919086686582,2539.41779457743
-0.315862984998734,2539.42779457743
-0.330464195101536,2539.43779457743
-0.344457944384155,2539.44779457743
-0.357984472442238,2539.45779457743
-0.371235150853235,2539.46779457743
-0.384029839211251,2539.47779457743
-0.396761005494002,2539.48779457743
-0.40963944630074,2539.49779457743
-0.422653123616144,2539.50779457743
-0.43587785080108,2539.51779457743
-0.449125205640671,2539.52779457743
-0.462814888411805,2539.53779457743
-0.476095776068864,2539.54779457743
-0.490228972748069,2539.55779457743
-0.504747204993893,2539.56779457743
-0.519317482846942,2539.57779457743
-0.53357212674783,2539.58779457743
-0.547671850232701,2539.59779457743
-0.560894274827879,2539.60779457743
-0.573626259716032,2539.61779457743
-0.58482649179162,2539.62779457743
-0.59354543236043,2539.63779457743
-0.596427074012125,2539.64779457743
-0.58792219559232,2539.65779457743
-0.562611066385395,2539.66779457743
-0.517243367092495,2539.67779457743
-0.453462272486675,2539.68779457743
-0.376973798485864,2539.69779457743
-0.293857035536298,2539.70779457743
-0.210043673150251,2539.71779457743
-0.129479527686879,2539.72779457743
-0.0543779387969746,2539.73779457743
0.0130153587142875,2539.74779457743
0.0710555616381796,2539.75779457743
0.119682785599727,2539.76779457743
0.159755815185395,2539.77779457743
0.191200812775938,2539.78779457743
0.214833892521083,2539.79779457743
0.231991380556704,2539.80779457743
0.24439324033932,2539.81779457743
0.252880941516916,2539.82779457743
0.258543958631062,2539.83779457743
0.261898258533217,2539.84779457743
0.264592987501971,2539.85779457743
0.2663310933998,2539.86779457743
0.26809692491109,2539.87779457743
0.270720567471091,2539.88779457743
0.274497364275477,2539.89779457743
0.279400762488538,2539.90779457743
0.284194478523618,2539.91779457743
0.287630844637902,2539.92779457743
0.287869163326651,2539.93779457743
0.28345911931466,2539.94779457743
0.273647197833182,2539.95779457743
0.259729466119369,2539.96779457743
0.242428294059334,2539.97779457743
0.22441232123428,2539.98779457743
0.207824064211083,2539.99779457743
0.194676046325907,2540.00779457743
0.186713752975606,2540.01779457743
0.184794294893587,2540.02779457743
0.188190552593332,2540.03779457743
0.195668208131637,2540.04779457743
0.20592838459536,2540.05779457743
0.217912465811707,2540.06779457743
0.2297201608474,2540.07779457743
0.240451293892132,2540.08779457743
0.248636093604382,2540.09779457743
0.25376903466,2540.10779457743
0.255824898117675,2540.11779457743
0.255391261467374,2540.12779457743
0.252548246465435,2540.13779457743
0.247314663607609,2540.14779457743
0.2397602594569,2540.15779457743
0.23059803241998,2540.16779457743
0.220043609365585,2540.17779457743
0.207984002031443,2540.18779457743
0.195206626648976,2540.19779457743
0.181447333487334,2540.20779457743
0.166419470147149,2540.21779457743
0.150537409538226,2540.22779457743
0.133770521520638,2540.23779457743
0.116594316031006,2540.24779457743
0.0991097945702397,2540.25779457743
0.0818777173969635,2540.26779457743
0.0641768408733401,2540.27779457743
0.0468131321742013,2540.28779457743
0.02961189989945,2540.29779457743
0.0122249934198576,2540.30779457743
-0.00498043471381066,2540.31779457743
-0.0221360901949747,2540.32779457743
-0.0387336563400485,2540.33779457743
-0.0553524689523781,2540.34779457743
-0.0713518534248767,2540.35779457743
-0.0864588039556239,2540.36779457743
-0.101567632835362,2540.37779457743
-0.116461580610084,2540.38779457743
-0.131330826791433,2540.39779457743
-0.146029798559229,2540.40779457743
-0.160304676899741,2540.41779457743
-0.174594458044111,2540.42779457743
-0.188923361525181,2540.43779457743
-0.203175752470232,2540.44779457743
-0.218326537694143,2540.45779457743
-0.233647429623835,2540.46779457743
-0.24952809082815,2540.47779457743
-0.265384497835063,2540.48779457743
-0.281285306663547,2540.49779457743
-0.297107119559168,2540.50779457743
-0.312502520352728,2540.51779457743
-0.327173454550473,2540.52779457743
-0.341008275368764,2540.53779457743
-0.354146821760971,2540.54779457743
-0.366943814998971,2540.55779457743
-0.379871637146929,2540.56779457743
-0.392150943794161,2540.57779457743
-0.403925666617305,2540.58779457743
-0.415571132991286,2540.59779457743
-0.427034019053992,2540.60779457743
-0.43891552105879,2540.61779457743
-0.451380690372833,2540.62779457743
-0.464212770729285,2540.63779457743
-0.477265200234481,2540.64779457743
-0.490460054415784,2540.65779457743
-0.503811625507439,2540.66779457743
-0.517253560398446,2540.67779457743
-0.53020387629272,2540.68779457743
-0.542892403467524,2540.69779457743
-0.555742061581062,2540.70779457743
-0.568221101743363,2540.71779457743
-0.580319634722503,2540.72779457743
-0.592925518931082,2540.73779457743
-0.604628036722695,2540.74779457743
-0.614377179117026,2540.75779457743
-0.618972964733953,2540.76779457743
-0.614194771583064,2540.77779457743
-0.59474406985072,2540.78779457743
-0.557366824807699,2540.79779457743
-0.501600568605243,2540.80779457743
-0.432219849205055,2540.81779457743
-0.354611570398584,2540.82779457743
-0.274777816480818,2540.83779457743
-0.197587409083215,2540.84779457743
-0.125860899531166,2540.85779457743
-0.0605196947800917,2540.86779457743
-0.00334072733850958,2540.87779457743
0.0460335533810448,2540.88779457743
0.0874348798756582,2540.89779457743
0.120563800111704,2540.90779457743
0.146475785931257,2540.91779457743
0.165727116445798,2540.92779457743
0.179119219789453,2540.93779457743
0.188032073227723,2540.94779457743
0.193496003998254,2540.95779457743
0.196519460071877,2540.96779457743
0.197672013293981,2540.97779457743
0.197572090886429,2540.98779457743
0.197355853084543,2540.99779457743
0.197989637946511,2541.00779457743
0.199691423838625,2541.01779457743
0.202145358931628,2541.02779457743
0.20479324869934,2541.03779457743
0.206510418380081,2541.04779457743
0.205687823306321,2541.05779457743
0.201698001787407,2541.06779457743
0.192545320975918,2541.07779457743
0.179348533630534,2541.08779457743
0.163388893526556,2541.09779457743
0.146404797423147,2541.10779457743
0.130882490701744,2541.11779457743
0.119655674688559,2541.12779457743
0.113480550940669,2541.13779457743
0.113363522650396,2541.14779457743
0.118501841905876,2541.15779457743
0.127011610842277,2541.16779457743
0.137586196482597,2541.17779457743
0.148484816274572,2541.18779457743
0.15925176373814,2541.19779457743
0.168267802533075,2541.20779457743
0.176031818138665,2541.21779457743
0.181510772119505,2541.22779457743
0.184746885803967,2541.23779457743
0.185720316616836,2541.24779457743
0.183863952818434,2541.25779457743
0.179983922215261,2541.26779457743
0.173968246337413,2541.27779457743
0.166165280528828,2541.28779457743
0.156553021468168,2541.29779457743
0.145998406415528,2541.30779457743
0.134052629933386,2541.31779457743
0.120861624179578,2541.32779457743
0.106542984865842,2541.33779457743
0.0907838070161399,2541.34779457743
0.0744994294480811,2541.35779457743
0.0578978795215578,2541.36779457743
0.0408094178837444,2541.37779457743
0.0235544443849855,2541.38779457743
0.00701173285512238,2541.39779457743
-0.00924678881007714,2541.40779457743
-0.0248994057655741,2541.41779457743
-0.0395854076759693,2541.42779457743
-0.054341887677312,2541.43779457743
-0.0688180985877608,2541.44779457743
-0.083802882129825,2541.45779457743
-0.0982071718662996,2541.46779457743
-0.112830087329151,2541.47779457743
-0.126732634102602,2541.48779457743
-0.140073982240391,2541.49779457743
-0.15385541961918,2541.50779457743
-0.167308764763994,2541.51779457743
-0.181032968074133,2541.52779457743
-0.19542661969895,2541.53779457743
-0.210209282735528,2541.54779457743
-0.225236934542183,2541.55779457743
-0.240634816548043,2541.56779457743
-0.255682576386642,2541.57779457743
-0.271067864832849,2541.58779457743
-0.286069114610467,2541.59779457743
-0.300721915342713,2541.60779457743
-0.315272234301268,2541.61779457743
-0.329845777308819,2541.62779457743
-0.343844835322993,2541.63779457743
-0.357211786416839,2541.64779457743
-0.369645201718926,2541.65779457743
-0.381733318727344,2541.66779457743
-0.393751654545496,2541.67779457743
-0.406016270236127,2541.68779457743
-0.418152993799858,2541.69779457743
-0.430037162450502,2541.70779457743
-0.441444570191649,2541.71779457743
-0.452647083968184,2541.72779457743
-0.463413772428523,2541.73779457743
-0.473903683317854,2541.74779457743
-0.484371680612566,2541.75779457743
-0.495054048792554,2541.76779457743
-0.506170199324173,2541.77779457743
-0.518374276378081,2541.78779457743
-0.531094040774199,2541.79779457743
-0.544320141690479,2541.80779457743
-0.557817407618389,2541.81779457743
-0.570723048025616,2541.82779457743
-0.583372393386058,2541.83779457743
-0.595728337880896,2541.84779457743
-0.60709608123156,2541.85779457743
-0.617829498055007,2541.86779457743
-0.626905378844584,2541.87779457743
-0.632523154208143,2541.88779457743
-0.63110497167769,2541.89779457743
-0.616448697624001,2541.90779457743
-0.585594075916489,2541.91779457743
-0.537745281856585,2541.92779457743
-0.476985556027243,2541.93779457743
-0.408656081046707,2541.94779457743
-0.339177958690873,2541.95779457743
-0.272042859374667,2541.96779457743
-0.210082616729757,2541.97779457743
-0.15528525279128,2541.98779457743
-0.10748172945114,2541.99779457743
-0.0669932289991793,2542.00779457743
-0.0347931886361366,2542.01779457743
-0.00984859119429655,2542.02779457743
0.00835351062451292,2542.03779457743
0.0207377235102531,2542.04779457743
0.0284516450690272,2542.05779457743
0.0324889517833998,2542.06779457743
0.0333347026663266,2542.07779457743
0.0322406628004969,2542.08779457743
0.0296793286777143,2542.09779457743
0.0259520263479377,2542.10779457743
0.0227248646410027,2542.11779457743
0.0191377984078914,2542.12779457743
0.0162119300919905,2542.13779457743
0.0136253693897547,2542.14779457743
0.0109102718515812,2542.15779457743
0.00723395791428377,2542.16779457743
0.00238421549397578,2542.17779457743
-0.00490067949264548,2542.18779457743
-0.0159682173315864,2542.19779457743
-0.0302702381812811,2542.20779457743
-0.0468848095047719,2542.21779457743
-0.0635340549198639,2542.22779457743
-0.0771781238680929,2542.23779457743
-0.0863155692178901,2542.24779457743
-0.0889800922233788,2542.25779457743
-0.0857866338358742,2542.26779457743
-0.0775682587654209,2542.27779457743
-0.0665671426780738,2542.28779457743
-0.0538540148121695,2542.29779457743
-0.0406444700791176,2542.30779457743
-0.0278283787850124,2542.31779457743
-0.0164460724831926,2542.32779457743
-0.00758316576899784,2542.33779457743
-0.00148256075190982,2542.34779457743
0.00169014373903541,2542.35779457743
0.00212255137231015,2542.36779457743
0.000129145672404414,2542.37779457743
-0.00371371476363094,2542.38779457743
-0.00939027542008192,2542.39779457743
-0.0163175399572603,2542.40779457743
-0.0247877203278427,2542.41779457743
-0.0345188312814371,2542.42779457743
-0.0452951691452709,2542.43779457743
-0.0566717532308062,2542.44779457743
-0.0687088412207109,2542.45779457743
-0.0814813534489237,2542.46779457743
-0.0945203312818449,2542.47779457743
-0.107716908300332,2542.48779457743
-0.121452468595937,2542.49779457743
-0.135554148020939,2542.50779457743
-0.149832517040219,2542.51779457743
-0.164539821890983,2542.52779457743
-0.179152392061664,2542.53779457743
-0.19341089277577,2542.54779457743
-0.20704733915878,2542.55779457743
-0.220060155982937,2542.56779457743
-0.231843377507974,2542.57779457743
-0.243110326351425,2542.58779457743
-0.253562557190063,2542.59779457743
-0.263425260102519,2542.60779457743
-0.273728682833442,2542.61779457743
-0.284291890286365,2542.62779457743
-0.295533949192151,2542.63779457743
-0.307314691214146,2542.64779457743
-0.318428846101062,2542.65779457743
-0.329864508728982,2542.66779457743
-0.340085546797984,2542.67779457743
-0.350626075711723,2542.68779457743
-0.360591481189098,2542.69779457743
-0.371085256869543,2542.70779457743
-0.381355813834836,2542.71779457743
-0.39178710316916,2542.72779457743
-0.402615109959206,2542.73779457743
-0.413484886892236,2542.74779457743
-0.425044596553598,2542.75779457743
-0.437118508263512,2542.76779457743
-0.449570391856673,2542.77779457743
-0.461466299780617,2542.78779457743
-0.472773031315123,2542.79779457743
-0.48344392551949,2542.80779457743
-0.493706559402352,2542.81779457743
-0.504053961198109,2542.82779457743
-0.51389652343477,2542.83779457743
-0.523942336314847,2542.84779457743
-0.534405207233331,2542.85779457743
-0.544645391027263,2542.86779457743
-0.554724898830625,2542.87779457743
-0.563928757957611,2542.88779457743
-0.57134994497238,2542.89779457743
-0.573970033639709,2542.90779457743
-0.567995819507342,2542.91779457743
-0.549425827209132,2542.92779457743
-0.516214813088059,2542.93779457743
-0.470014107026306,2542.94779457743
-0.413854554670847,2542.95779457743
-0.352101223930182,2542.96779457743
-0.288912417798491,2542.97779457743
-0.227957720315077,2542.98779457743
-0.172017964167072,2542.99779457743
-0.122741835825898,2543.00779457743
-0.080545473507215,2543.01779457743
-0.0456736220832889,2543.02779457743
-0.0183375324301272,2543.03779457743
0.00247216163458315,2543.04779457743
0.0169888954764202,2543.05779457743
0.0259714270250712,2543.06779457743
0.0303719487610862,2543.07779457743
0.0312598312510749,2543.08779457743
0.0297342491759632,2543.09779457743
0.0269856214272182,2543.10779457743
0.0232922910290287,2543.11779457743
0.01982484688722,2543.12779457743
0.0163093986491258,2543.13779457743
0.0131116038864342,2543.14779457743
0.0103110142227369,2543.15779457743
0.00751412310034282,2543.16779457743
0.00351403832173937,2543.17779457743
-0.00260869986762421,2543.18779457743
-0.0111111281225809,2543.19779457743
-0.0231267141288294,2543.20779457743
-0.037428625511992,2543.21779457743
-0.0530588427808252,2543.22779457743
-0.0683682465509425,2543.23779457743
-0.0813704856710384,2543.24779457743
-0.0896190491868074,2543.25779457743
-0.0927163691759456,2543.26779457743
-0.0893979278014199,2543.27779457743
-0.0811513486333259,2543.28779457743
-0.06937153883667,2543.29779457743
-0.0554878064811908,2543.30779457743
-0.041542930843984,2543.31779457743
-0.0285906595338601,2543.32779457743
-0.0179502229269725,2543.33779457743
-0.00982671120293497,2543.34779457743
-0.00487397154054283,2543.35779457743
-0.00276807323065788,2543.36779457743
-0.00264325809779135,2543.37779457743
-0.00530556557736252,2543.38779457743
-0.0103451898555158,2543.39779457743
-0.017359911128276,2543.40779457743
-0.0267074880196991,2543.41779457743
-0.0367080701354558,2543.42779457743
-0.0476744127580191,2543.43779457743
-0.0592008642487728,2543.44779457743
-0.0715323568649807,2543.45779457743
-0.0843111546244387,2543.46779457743
-0.0969083457870187,2543.47779457743
-0.109582962907727,2543.48779457743
-0.122329899526783,2543.49779457743
-0.135352170350284,2543.50779457743
-0.14875456640494,2543.51779457743
-0.161769616158738,2543.52779457743
-0.174660604555832,2543.53779457743
-0.186873505537986,2543.54779457743
-0.198921010240834,2543.55779457743
-0.211151952849354,2543.56779457743
-0.222725927733836,2543.57779457743
-0.234038629328127,2543.58779457743
-0.245359276672644,2543.59779457743
-0.255853758035522,2543.60779457743
-0.266471493730898,2543.61779457743
-0.27634774918334,2543.62779457743
-0.286278458248078,2543.63779457743
-0.296326229953163,2543.64779457743
-0.306629321628865,2543.65779457743
-0.317244713267482,2543.66779457743
-0.328553746971786,2543.67779457743
-0.340872481773553,2543.68779457743
-0.353083054220386,2543.69779457743
-0.364421483609201,2543.70779457743
-0.375838197752379,2543.71779457743
-0.386511622579428,2543.72779457743
-0.397309016323421,2543.73779457743
-0.407894215195971,2543.74779457743
-0.418572867681474,2543.75779457743
-0.429254002640681,2543.76779457743
-0.439985024623665,2543.77779457743
-0.450627778708421,2543.78779457743
-0.461212282848866,2543.79779457743
-0.471410256399166,2543.80779457743
-0.481613205986956,2543.81779457743
-0.491611081865997,2543.82779457743
-0.501045462387588,2543.83779457743
-0.510527906893419,2543.84779457743
-0.520134092089263,2543.85779457743
-0.530533894806582,2543.86779457743
-0.541176527972773,2543.87779457743
-0.551884564369081,2543.88779457743
-0.561844068678215,2543.89779457743
-0.571407764099175,2543.90779457743
-0.580296152119765,2543.91779457743
-0.588992411575267,2543.92779457743
-0.595626761697826,2543.93779457743
-0.598221602044342,2543.94779457743
-0.592784121188898,2543.95779457743
-0.574304689643175,2543.96779457743
-0.539968708575851,2543.97779457743
-0.489524052925581,2543.98779457743
-0.426777038996752,2543.99779457743
-0.356877356978866,2544.00779457743
-0.284900226345744,2544.01779457743
-0.2147672891301,2544.02779457743
-0.149634479586081,2544.03779457743
-0.0907262120989186,2544.04779457743
-0.0391840997455363,2544.05779457743
0.00437712573832075,2544.06779457743
0.0402522254805125,2544.07779457743
0.0683155482251058,2544.08779457743
0.0897282193499645,2544.09779457743
0.106029526368148,2544.10779457743
0.117688193023509,2544.11779457743
0.126224150489644,2544.12779457743
0.132624873551438,2544.13779457743
0.137655508170078,2544.14779457743
0.141472337405947,2544.15779457743
0.144441518844399,2544.16779457743
0.147397901794009,2544.17779457743
0.151086386574991,2544.18779457743
0.156421443456355,2544.19779457743
0.162980868056596,2544.20779457743
0.170195064005657,2544.21779457743
0.176842320535223,2544.22779457743
0.18115312061937,2544.23779457743
0.182569991667366,2544.24779457743
0.18010657614911,2544.25779457743
0.17400008446865,2544.26779457743
0.164048803560571,2544.27779457743
0.15214850187347,2544.28779457743
0.140920777765188,2544.29779457743
0.131734019739301,2544.30779457743
0.126777575631216,2544.31779457743
0.125673129316644,2544.32779457743
0.129991896192834,2544.33779457743
0.137685581198459,2544.34779457743
0.14753550957998,2544.35779457743
0.158554061481348,2544.36779457743
0.170004620915911,2544.37779457743
0.180567055361452,2544.38779457743
0.190185593041194,2544.39779457743
0.198325391903621,2544.40779457743
0.203476769489817,2544.41779457743
0.206810774970313,2544.42779457743
0.207898639831618,2544.43779457743
0.206852780606952,2544.44779457743
0.203440150204851,2544.45779457743
0.198394926134468,2544.46779457743
0.192043663525684,2544.47779457743
0.183742205006281,2544.48779457743
0.174476580266712,2544.49779457743
0.164514166369907,2544.50779457743
0.153573882737191,2544.51779457743
0.14204379300677,2544.52779457743
0.129008773639585,2544.53779457743
0.11523444747653,2544.54779457743
0.101420492122706,2544.55779457743
0.0874668065285514,2544.56779457743
0.0737427937288955,2544.57779457743
0.0601450169588273,2544.58779457743
0.0467403218762709,2544.59779457743
0.0341432404738682,2544.60779457743
0.0225829831089078,2544.61779457743
0.0116688054560484,2544.62779457743
0.00122581671273851,2544.63779457743
-0.00877939552430239,2544.64779457743
-0.0194315467572443,2544.65779457743
-0.0311690009122521,2544.66779457743
-0.0432763071551438,2544.67779457743
-0.055878410464924,2544.68779457743
-0.0689655757970905,2544.69779457743
-0.0811173490889948,2544.70779457743
-0.092828221557705,2544.71779457743
-0.104357968280746,2544.72779457743
-0.114861014216979,2544.73779457743
-0.125879645219788,2544.74779457743
-0.136601539074338,2544.75779457743
-0.147901603185612,2544.76779457743
-0.159112872484392,2544.77779457743
-0.170921045157405,2544.78779457743
-0.182651636122642,2544.79779457743
-0.19439122205226,2544.80779457743
-0.205575001769995,2544.81779457743
-0.216697606760426,2544.82779457743
-0.227441791531055,2544.83779457743
-0.23808997847297,2544.84779457743
-0.248795644298778,2544.85779457743
-0.258581619645147,2544.86779457743
-0.267985724178488,2544.87779457743
-0.277423604576755,2544.88779457743
-0.286918232251145,2544.89779457743
-0.296611265416525,2544.90779457743
-0.307099043685334,2544.91779457743
-0.31844328523321,2544.92779457743
-0.329598732586041,2544.93779457743
-0.341594409869683,2544.94779457743
-0.353217476879306,2544.95779457743
-0.364287149496721,2544.96779457743
-0.37550961175464,2544.97779457743
-0.385870243912278,2544.98779457743
-0.396890060144576,2544.99779457743
-0.406406220032726,2545.00779457743
-0.414059870076909,2545.01779457743
-0.415560178315108,2545.02779457743
-0.406691843490089,2545.03779457743
-0.383108795211535,2545.04779457743
-0.342856894960474,2545.05779457743
-0.288903172668287,2545.06779457743
-0.225386973217387,2545.07779457743
-0.157028008187103,2545.08779457743
-0.087667996586925,2545.09779457743
-0.0203403594058414,2545.10779457743
0.0423657195107504,2545.11779457743
0.0991471736763273,2545.12779457743
0.149140203035074,2545.13779457743
0.190988849056996,2545.14779457743
0.225106947418356,2545.15779457743
0.251579229937081,2545.16779457743
0.270946564955735,2545.17779457743
0.284788442462161,2545.18779457743
0.294116449595939,2545.19779457743
0.299745513896825,2545.20779457743
0.30350217229705,2545.21779457743
0.306220976976382,2545.22779457743
0.308501640403163,2545.23779457743
0.311478957455406,2545.24779457743
0.315426335458445,2545.25779457743
0.319920775000367,2545.26779457743
0.325351293380882,2545.27779457743
0.330923492959267,2545.28779457743
0.335562708667573,2545.29779457743
0.338514019552555,2545.30779457743
0.338294727337649,2545.31779457743
0.334075464935689,2545.32779457743
0.325866754854176,2545.33779457743
0.313786514088164,2545.34779457743
0.29897861096959,2545.35779457743
0.285208850937216,2545.36779457743
0.274271078265675,2545.37779457743
0.268360734387772,2545.38779457743
0.268261701416963,2545.39779457743
0.273457799869689,2545.40779457743
0.282994560872323,2545.41779457743
0.295093756472104,2545.42779457743
0.308434623327699,2545.43779457743
0.321429790200177,2545.44779457743
0.332725040726638,2545.45779457743
0.341940780472968,2545.46779457743
0.349308505394231,2545.47779457743
0.35470641997538,2545.48779457743
0.357632046894701,2545.49779457743
0.35831188037054,2545.50779457743
0.357229395236596,2545.51779457743
0.353801758352916,2545.52779457743
0.349235495037308,2545.53779457743
0.343641192307392,2545.54779457743
0.337215095128767,2545.55779457743
0.330123875754603,2545.56779457743
0.323166937021719,2545.57779457743
0.315495309071538,2545.58779457743
0.307210355654891,2545.59779457743
0.298438555446895,2545.60779457743
0.289137097177133,2545.61779457743
0.279045793429664,2545.62779457743
0.268868297938482,2545.63779457743
0.259196843834864,2545.64779457743
0.24933693069302,2545.65779457743
0.239331694137818,2545.66779457743
0.228909058969581,2545.67779457743
0.218145315101788,2545.68779457743
0.207380198123723,2545.69779457743
0.195424699891255,2545.70779457743
0.182854207370386,2545.71779457743
0.169414360014521,2545.72779457743
0.1545715528732,2545.73779457743
0.139581180033899,2545.74779457743
0.12377825302341,2545.75779457743
0.107935430655187,2545.76779457743
0.0919503857363984,2545.77779457743
0.0759202761720978,2545.78779457743
0.0595701035146412,2545.79779457743
0.0428011810379201,2545.80779457743
0.0255996066527776,2545.81779457743
0.0084476511049559,2545.82779457743
-0.00833827130124431,2545.83779457743
-0.0240614870398528,2545.84779457743
-0.0391495543147719,2545.85779457743
-0.0537673075059925,2545.86779457743
-0.0671980247892333,2545.87779457743
-0.0804535665186752,2545.88779457743
-0.0938133200301603,2545.89779457743
-0.10684845778614,2545.90779457743
-0.119346085359813,2545.91779457743
-0.131647618078226,2545.92779457743
-0.144736255515197,2545.93779457743
-0.157687634679802,2545.94779457743
-0.170557636827557,2545.95779457743
-0.183811810148448,2545.96779457743
-0.197038176474442,2545.97779457743
-0.210344823821682,2545.98779457743
-0.223173921485556,2545.99779457743
-0.235466770579176,2546.00779457743
-0.245852362597715,2546.01779457743
-0.25369599014747,2546.02779457743
-0.256123375769928,2546.03779457743
-0.25025167089079,2546.04779457743
-0.233817410437164,2546.05779457743
-0.206224604486788,2546.06779457743
-0.169569802830922,2546.07779457743
-0.127203215839399,2546.08779457743
-0.0821445689223742,2546.09779457743
-0.0379150215099892,2546.10779457743
0.00248037867167303,2546.11779457743
0.0378464904573123,2546.12779457743
0.0668515692846629,2546.13779457743
0.0891385280275002,2546.14779457743
0.104938452824911,2546.15779457743
0.11478993723887,2546.16779457743
0.119639574698674,2546.17779457743
0.120451373374246,2546.18779457743
0.117858793795553,2546.19779457743
0.112695132987336,2546.20779457743
0.105769894592679,2546.21779457743
0.0978461422937988,2546.22779457743
0.090169593021502,2546.23779457743
0.082767641950044,2546.24779457743
0.0769033951231788,2546.25779457743
0.0715823790966813,2546.26779457743
0.0669297630919357,2546.27779457743
0.0632738283926395,2546.28779457743
0.0592932973092538,2546.29779457743
0.0539539451276553,2546.30779457743
0.0461035125113787,2546.31779457743
0.0345036357008884,2546.32779457743
0.0195600507594469,2546.33779457743
0.00350610831053416,2546.34779457743
-0.0128531365156507,2546.35779457743
-0.0271776226139396,2546.36779457743
-0.0378257093737531,2546.37779457743
-0.0445530947020207,2546.38779457743
-0.0483412088056936,2546.39779457743
-0.0489874066048367,2546.40779457743
-0.0471600309888773,2546.41779457743
-0.0440443345343743,2546.42779457743
-0.0402431063110154,2546.43779457743
-0.0374020991598012,2546.44779457743
-0.0361713658066176,2546.45779457743
-0.0363111311865592,2546.46779457743
-0.0380501036325653,2546.47779457743
-0.0416540025653966,2546.48779457743
-0.0462564577677267,2546.49779457743
-0.0527462368235086,2546.50779457743
-0.0618057899495901,2546.51779457743
-0.0726491407658003,2546.52779457743
-0.0840577542123202,2546.53779457743
-0.0969163040787711,2546.54779457743
-0.109853089508099,2546.55779457743
-0.123505778785246,2546.56779457743
-0.137211048975984,2546.57779457743
-0.150589055449824,2546.58779457743
-0.163790322481643,2546.59779457743
-0.176364205957511,2546.60779457743
-0.189388976392765,2546.61779457743
-0.202077469324091,2546.62779457743
-0.214881003081466,2546.63779457743
-0.227242748336476,2546.64779457743
-0.239369756851292,2546.65779457743
-0.251529569773063,2546.66779457743
-0.26336114459935,2546.67779457743
-0.275706360829559,2546.68779457743
-0.287837854804591,2546.69779457743
-0.299593426303212,2546.70779457743
-0.310856641774341,2546.71779457743
-0.321574912355917,2546.72779457743
-0.332026322350331,2546.73779457743
-0.342694656504823,2546.74779457743
-0.352907680232143,2546.75779457743
-0.363387255687307,2546.76779457743
-0.373474663151159,2546.77779457743
-0.383580054385193,2546.78779457743
-0.393314116499668,2546.79779457743
-0.403051857568154,2546.80779457743
-0.413155563298499,2546.81779457743
-0.423362444631454,2546.82779457743
-0.433638693063738,2546.83779457743
-0.44429366985238,2546.84779457743
-0.454774040223496,2546.85779457743
-0.465372425479519,2546.86779457743
-0.475849645631071,2546.87779457743
-0.486153571404008,2546.88779457743
-0.496059449727381,2546.89779457743
-0.505985560669185,2546.90779457743
-0.516030520718609,2546.91779457743
-0.526161215616277,2546.92779457743
-0.536324233355586,2546.93779457743
-0.546058258813245,2546.94779457743
-0.555054798565223,2546.95779457743
-0.564107480058654,2546.96779457743
-0.572547705329175,2546.97779457743
-0.580666640822588,2546.98779457743
-0.588841808099415,2546.99779457743
-0.597417729437614,2547.00779457743
-0.606674361691927,2547.01779457743
-0.616034971427229,2547.02779457743
-0.625386336761517,2547.03779457743
-0.632672772602388,2547.04779457743
-0.636194782894772,2547.05779457743
-0.633744686864425,2547.06779457743
-0.622510183065964,2547.07779457743
-0.602517991679043,2547.08779457743
-0.575599919714342,2547.09779457743
-0.543981454105094,2547.10779457743
-0.511551640887708,2547.11779457743
-0.482076856149377,2547.12779457743
-0.457522195914371,2547.13779457743
-0.437751842804987,2547.14779457743
-0.423353158409813,2547.15779457743
-0.413663782579378,2547.16779457743
-0.407996404332732,2547.17779457743
-0.406083846915263,2547.18779457743
-0.406582619920479,2547.19779457743
-0.408901584026185,2547.20779457743
-0.412987543975709,2547.21779457743
-0.417534563475813,2547.22779457743
-0.422398214139515,2547.23779457743
-0.427030911472578,2547.24779457743
-0.431201535997036,2547.25779457743
-0.43442815765972,2547.26779457743
-0.436479182577148,2547.27779457743
-0.437902352004402,2547.28779457743
-0.438721232720485,2547.29779457743
-0.439468024196113,2547.30779457743
-0.440564029790573,2547.31779457743
-0.442283023323346,2547.32779457743
-0.446064750160211,2547.33779457743
-0.452680904618498,2547.34779457743
-0.461546569108426,2547.35779457743
-0.471940237930913,2547.36779457743
-0.482655570848848,2547.37779457743
-0.492375259095321,2547.38779457743
-0.499856364678189,2547.39779457743
-0.504747616691299,2547.40779457743
-0.507006052584773,2547.41779457743
-0.507094224202233,2547.42779457743
-0.504742750926674,2547.43779457743
-0.501223161888714,2547.44779457743
-0.497106527902999,2547.45779457743
-0.493408449225098,2547.46779457743
-0.490852585510537,2547.47779457743
-0.489565967483253,2547.48779457743
-0.489872066435322,2547.49779457743
-0.491762736668178,2547.50779457743
-0.495377189847428,2547.51779457743
-0.499685682387065,2547.52779457743
-0.505284396857363,2547.53779457743
-0.511773956634011,2547.54779457743
-0.519011954314234,2547.55779457743
-0.527392675810723,2547.56779457743
-0.535372640602807,2547.57779457743
-0.543214378361916,2547.58779457743
-0.550983987855792,2547.59779457743
-0.558019176539143,2547.60779457743
-0.565429382007446,2547.61779457743
-0.572733284785128,2547.62779457743
-0.58086740901912,2547.63779457743
-0.588476410354219,2547.64779457743
-0.595797088941469,2547.65779457743
-0.60331546393067,2547.66779457743
-0.61061637758968,2547.67779457743
-0.618117192775333,2547.68779457743
-0.625216222689284,2547.69779457743
-0.631647392674598,2547.70779457743
-0.637758849125371,2547.71779457743
-0.643604866864965,2547.72779457743
-0.649827899658911,2547.73779457743
-0.656181029295526,2547.74779457743
-0.662912179511653,2547.75779457743
-0.669681298057572,2547.76779457743
-0.676445769722712,2547.77779457743
-0.682917802734874,2547.78779457743
-0.68945156436304,2547.79779457743
-0.69599078138683,2547.80779457743
-0.702303148659559,2547.81779457743
-0.70914401745726,2547.82779457743
-0.71622515807828,2547.83779457743
-0.72335472483038,2547.84779457743
-0.731125504575181,2547.85779457743
-0.739748803755851,2547.86779457743
-0.74801735560652,2547.87779457743
-0.756033425187384,2547.88779457743
-0.764060128231641,2547.89779457743
-0.77187674002716,2547.90779457743
-0.779248894456379,2547.91779457743
-0.786450860677827,2547.92779457743
-0.793949128283941,2547.93779457743
-0.80193155925414,2547.94779457743
-0.809545385558482,2547.95779457743
-0.816203353582443,2547.96779457743
-0.822931742939221,2547.97779457743
-0.828613635283306,2547.98779457743
-0.83409795684215,2547.99779457743
-0.838566869262842,2548.00779457743
-0.839916327823514,2548.01779457743
-0.83694842889018,2548.02779457743
-0.827749752552076,2548.03779457743
-0.813286797335703,2548.04779457743
-0.794235746544017,2548.05779457743
-0.773280488407569,2548.06779457743
-0.753252635070944,2548.07779457743
-0.736130644411838,2548.08779457743
-0.72269321321129,2548.09779457743
-0.713602005598737,2548.10779457743
-0.709004510518816,2548.11779457743
-0.707998915300667,2548.12779457743
-0.710745276131499,2548.13779457743
-0.716120541866655,2548.14779457743
-0.722718757612747,2548.15779457743
-0.730127215080122,2548.16779457743
-0.737506066036529,2548.17779457743
-0.744692306831952,2548.18779457743
-0.752106951541378,2548.19779457743
-0.758998631721485,2548.20779457743
-0.765489438403665,2548.21779457743
-0.770986387905532,2548.22779457743
-0.77497701833265,2548.23779457743
-0.778516628083622,2548.24779457743
-0.782462103768106,2548.25779457743
-0.786604312265027,2548.26779457743
-0.792781971501505,2548.27779457743
-0.801210926165728,2548.28779457743
-0.81128230572085,2548.29779457743
-0.821926246017831,2548.30779457743
-0.831558759420693,2548.31779457743
-0.838712313936296,2548.32779457743
-0.842488941489105,2548.33779457743
-0.842474109057815,2548.34779457743
-0.839095228283655,2548.35779457743
-0.833651018984538,2548.36779457743
-0.827017401919937,2548.37779457743
-0.820967386978047,2548.38779457743
-0.816032078689282,2548.39779457743
-0.812721114415129,2548.40779457743
-0.81121743496381,2548.41779457743
-0.811584157901142,2548.42779457743
-0.813206069476623,2548.43779457743
-0.816507564278507,2548.44779457743
-0.820772223801052,2548.45779457743
-0.82518549790296,2548.46779457743
-0.830680353935784,2548.47779457743
-0.836209228272271,2548.48779457743
-0.84158841339762,2548.49779457743
-0.846653373947055,2548.50779457743
-0.851137267953911,2548.51779457743
-0.855962024997619,2548.52779457743
-0.860768435372104,2548.53779457743
-0.865041113863905,2548.54779457743
-0.869501008448962,2548.55779457743
-0.874333209517595,2548.56779457743
-0.879062218880259,2548.57779457743
-0.883913096067924,2548.58779457743
-0.888672015048283,2548.59779457743
-0.893173733458369,2548.60779457743
-0.897696560380131,2548.61779457743
-0.901481742854467,2548.62779457743
-0.905230736967132,2548.63779457743
-0.908827637924437,2548.64779457743
-0.912143459298581,2548.65779457743
-0.915426566468204,2548.66779457743
-0.918445534718941,2548.67779457743
-0.92143902875921,2548.68779457743
-0.924686199259615,2548.69779457743
-0.928164820391798,2548.70779457743
-0.931568207288958,2548.71779457743
-0.935276843994541,2548.72779457743
-0.938694223299894,2548.73779457743
-0.942303956016836,2548.74779457743
-0.946262767430632,2548.75779457743
-0.950693872390932,2548.76779457743
-0.955103402906464,2548.77779457743
-0.959232586031139,2548.78779457743
-0.962907053316709,2548.79779457743
-0.966757591005379,2548.80779457743
-0.970410060618378,2548.81779457743
-0.973726421502475,2548.82779457743
-0.976992810039127,2548.83779457743
-0.97952939813452,2548.84779457743
-0.981341328959349,2548.85779457743
-0.980812619924963,2548.86779457743
-0.976847779510291,2548.87779457743
-0.967913402671705,2548.88779457743
-0.953561138403221,2548.89779457743
-0.934890158429826,2548.90779457743
-0.913460459881498,2548.91779457743
-0.891301564712119,2548.92779457743
-0.87145010752975,2548.93779457743
-0.854564549090642,2548.94779457743
-0.842221727844277,2548.95779457743
-0.834823344225119,2548.96779457743
-0.83166991938005,2548.97779457743
-0.832083858597791,2548.98779457743
-0.834483361662057,2548.99779457743
-0.838082832913271,2549.00779457743
-0.841998207212953,2549.01779457743
-0.8458477562041,2549.02779457743
-0.849303570328491,2549.03779457743
-0.852284878642164,2549.04779457743
-0.854059804657806,2549.05779457743
-0.855127830766943,2549.06779457743
-0.855079405439328,2549.07779457743
-0.854352522583903,2549.08779457743
-0.853044830924339,2549.09779457743
-0.851400286041618,2549.10779457743
-0.849334636424669,2549.11779457743
-0.84798406492674,2549.12779457743
-0.848137997189615,2549.13779457743
-0.850198484165579,2549.14779457743
-0.85448931736327,2549.15779457743
-0.860890138521416,2549.16779457743
-0.868175034560517,2549.17779457743
-0.874765081971817,2549.18779457743
-0.87995832307086,2549.19779457743
-0.882860250231963,2549.20779457743
-0.883600277980672,2549.21779457743
-0.882035701954553,2549.22779457743
-0.878568050918915,2549.23779457743
-0.873688162594339,2549.24779457743
-0.8687712644312,2549.25779457743
-0.864304053608631,2549.26779457743
-0.86082631197109,2549.27779457743
-0.858690192343842,2549.28779457743
-0.85774102330549,2549.29779457743
-0.857560379222724,2549.30779457743
-0.858946172518206,2549.31779457743
-0.860971412391294,2549.32779457743
-0.863176896127145,2549.33779457743
-0.865540366360893,2549.34779457743
-0.867545205208932,2549.35779457743
-0.869551573207135,2549.36779457743
-0.87109234833386,2549.37779457743
-0.87269101198099,2549.38779457743
-0.874561639874832,2549.39779457743
-0.877276369714406,2549.40779457743
-0.880587937936452,2549.41779457743
-0.884107194118774,2549.42779457743
-0.887598338996402,2549.43779457743
-0.891017032413708,2549.44779457743
-0.894305988990929,2549.45779457743
-0.897312045540594,2549.46779457743
-0.900126412896072,2549.47779457743
-0.901995013329668,2549.48779457743
-0.904398687115105,2549.49779457743
-0.906460145495526,2549.50779457743
-0.908761553490127,2549.51779457743
-0.910688174729882,2549.52779457743
-0.912139212408178,2549.53779457743
-0.913691096031057,2549.54779457743
-0.914889773749611,2549.55779457743
-0.915112694178305,2549.56779457743
-0.915182565662111,2549.57779457743
-0.91524512653957,2549.58779457743
-0.915207933500632,2549.59779457743
-0.915425535225066,2549.60779457743
-0.915816974029964,2549.61779457743
-0.916698832027796,2549.62779457743
-0.917886707465222,2549.63779457743
-0.919644074349173,2549.64779457743
-0.921538185137853,2549.65779457743
-0.924203381380565,2549.66779457743
-0.927198166554841,2549.67779457743
-0.9300613544817,2549.68779457743
-0.932840569855358,2549.69779457743
-0.935774547810733,2549.70779457743
-0.938117728225785,2549.71779457743
-0.940356313571654,2549.72779457743
-0.94227249440044,2549.73779457743
-0.944160277583219,2549.74779457743
-0.946151706866081,2549.75779457743
-0.947450721257498,2549.76779457743
-0.948135132209479,2549.77779457743
-0.946975481407456,2549.78779457743
-0.942733784833303,2549.79779457743
-0.933969029167904,2549.80779457743
-0.920299894473889,2549.81779457743
-0.902584273796164,2549.82779457743
-0.882097623387416,2549.83779457743
-0.86099683965399,2549.84779457743
-0.841370803411338,2549.85779457743
-0.825235626518007,2549.86779457743
-0.812838416336871,2549.87779457743
-0.804250850245278,2549.88779457743
-0.799893058268957,2549.89779457743
-0.798767752868242,2549.90779457743
-0.800346664971608,2549.91779457743
-0.803591576207149,2549.92779457743
-0.807654062029897,2549.93779457743
-0.811627007100347,2549.94779457743
-0.815065181031507,2549.95779457743
-0.817283140498957,2549.96779457743
-0.817399483468976,2549.97779457743
-0.815703495676783,2549.98779457743
-0.812541606989556,2549.99779457743
-0.808358511425181,2550.00779457743
-0.803719137105988,2550.01779457743
-0.798851386604345,2550.02779457743
-0.794780341574777,2550.03779457743
-0.790713364240281,2550.04779457743
-0.787653541262437,2550.05779457743
-0.786560322558061,2550.06779457743
-0.787574871873336,2550.07779457743
-0.790812292417047,2550.08779457743
-0.795366594346987,2550.09779457743
-0.799873074557671,2550.10779457743
-0.802605086253613,2550.11779457743
-0.802972825392931,2550.12779457743
-0.800848465487782,2550.13779457743
-0.796668332469089,2550.14779457743
-0.791696078230611,2550.15779457743
-0.785866581913121,2550.16779457743
-0.781030872657834,2550.17779457743
-0.776504167840886,2550.18779457743
-0.7726268340199,2550.19779457743
-0.769543194375127,2550.20779457743
-0.766128236361162,2550.21779457743
-0.763987547636035,2550.22779457743
-0.762188569872762,2550.23779457743
-0.761260335428715,2550.24779457743
-0.761397819746533,2550.25779457743
-0.762254016394047,2550.26779457743
-0.763585324936751,2550.27779457743
-0.765139711616336,2550.28779457743
-0.767156460648769,2550.29779457743
-0.76909672584163,2550.30779457743
-0.771172019061861,2550.31779457743
-0.772777200682149,2550.32779457743
-0.774077688572858,2550.33779457743
-0.775620840475009,2550.34779457743
-0.77746364716172,2550.35779457743
-0.778841129601606,2550.36779457743
-0.780661540971672,2550.37779457743
-0.782523467136083,2550.38779457743
-0.784206053181756,2550.39779457743
-0.78555473876711,2550.40779457743
-0.786675530493682,2550.41779457743
-0.787745511792054,2550.42779457743
-0.788014644877491,2550.43779457743
-0.788176772899744,2550.44779457743
-0.788138702848534,2550.45779457743
-0.787643398566299,2550.46779457743
-0.787230141321356,2550.47779457743
-0.786990594879712,2550.48779457743
-0.787231503888013,2550.49779457743
-0.788002228096961,2550.50779457743
-0.788921927721208,2550.51779457743
-0.789943915499448,2550.52779457743
-0.790809077847281,2550.53779457743
-0.791788130989775,2550.54779457743
-0.792511384196688,2550.55779457743
-0.793994660144628,2550.56779457743
-0.795181185090997,2550.57779457743
-0.796888894345235,2550.58779457743
-0.798354482041083,2550.59779457743
-0.799597777226198,2550.60779457743
-0.800462882396867,2550.61779457743
-0.801020570027307,2550.62779457743
-0.801267068842051,2550.63779457743
-0.801379478510454,2550.64779457743
-0.801750712825672,2550.65779457743
-0.802317839069699,2550.66779457743
-0.803146699896763,2550.67779457743
-0.804510691793513,2550.68779457743
-0.805970890719886,2550.69779457743
-0.807134193138293,2550.70779457743
-0.807894526321607,2550.71779457743
-0.808868139937773,2550.72779457743
-0.810059680282079,2550.73779457743
-0.811885652625415,2550.74779457743
-0.814015977864175,2550.75779457743
-0.816562479573222,2550.76779457743
-0.820302584880683,2550.77779457743
-0.82473450825729,2550.78779457743
-0.830032576747672,2550.79779457743
-0.835133440012569,2550.80779457743
-0.839877239389799,2550.81779457743
-0.844141422520064,2550.82779457743
-0.846856500260321,2550.83779457743
-0.849067971147137,2550.84779457743
-0.84981715680842,2550.85779457743
-0.848954951536363,2550.86779457743
-0.844980931042926,2550.87779457743
-0.836678987675358,2550.88779457743
-0.822582528949008,2550.89779457743
-0.803216058108174,2550.90779457743
-0.781389160590956,2550.91779457743
-0.759085222206552,2550.92779457743
-0.73951235081291,2550.93779457743
-0.724133787642392,2550.94779457743
-0.713456336332226,2550.95779457743
-0.706910156997858,2550.96779457743
-0.704112666244686,2550.97779457743
-0.704440447376615,2550.98779457743
-0.706305679515219,2550.99779457743
-0.709681772983433,2551.00779457743
-0.713178839538216,2551.01779457743
-0.716893475142503,2551.02779457743
-0.719863223246197,2551.03779457743
-0.721333442349639,2551.04779457743
-0.721660492224391,2551.05779457743
-0.720555088770591,2551.06779457743
-0.718346672039363,2551.07779457743
-0.715263003332394,2551.08779457743
-0.712115090485301,2551.09779457743
-0.708788231235128,2551.10779457743
-0.705731082780064,2551.11779457743
-0.703163640317206,2551.12779457743
-0.701861247389948,2551.13779457743
-0.701979455208416,2551.14779457743
-0.703816681045547,2551.15779457743
-0.70722802824768,2551.16779457743
-0.711755831480681,2551.17779457743
-0.716740464201355,2551.18779457743
-0.720783119830656,2551.19779457743
-0.723391880441319,2551.20779457743
-0.723554643508147,2551.21779457743
-0.721891289312184,2551.22779457743
-0.718812399263073,2551.23779457743
-0.714881917898776,2551.24779457743
-0.710362251458238,2551.25779457743
-0.705507865850833,2551.26779457743
-0.701073928984107,2551.27779457743
-0.696721547073399,2551.28779457743
-0.694452203708168,2551.29779457743
-0.692887594656425,2551.30779457743
-0.692615711767344,2551.31779457743
-0.693540200359587,2551.32779457743
-0.694664723867056,2551.33779457743
-0.695751801127111,2551.34779457743
-0.696925165621214,2551.35779457743
-0.69861903235637,2551.36779457743
-0.700507526638125,2551.37779457743
-0.702685420062427,2551.38779457743
-0.705347940872092,2551.39779457743
-0.708121453532731,2551.40779457743
-0.710962744799801,2551.41779457743
-0.713718724238231,2551.42779457743
-0.71580177740103,2551.43779457743
-0.717191630667107,2551.44779457743
-0.719204858878187,2551.45779457743
-0.72101165901102,2551.46779457743
-0.722832238701718,2551.47779457743
-0.724820140443035,2551.48779457743
-0.726338980198551,2551.49779457743
-0.728138257566942,2551.50779457743
-0.729053293411025,2551.51779457743
-0.730750682064043,2551.52779457743
-0.732013851484024,2551.53779457743
-0.733090952408303,2551.54779457743
-0.734532850306454,2551.55779457743
-0.735116572915091,2551.56779457743
-0.735515326032392,2551.57779457743
-0.736258545497718,2551.58779457743
-0.73686973327798,2551.59779457743
-0.737734200286006,2551.60779457743
-0.738811639540149,2551.61779457743
-0.739942623039855,2551.62779457743
-0.740693686857701,2551.63779457743
-0.741566318032567,2551.64779457743
-0.742559799932465,2551.65779457743
-0.743594860098421,2551.66779457743
-0.744232258964647,2551.67779457743
-0.745725297871699,2551.68779457743
-0.747523966530868,2551.69779457743
-0.749435492676954,2551.70779457743
-0.751100709423417,2551.71779457743
-0.752767963025395,2551.72779457743
-0.754759102128524,2551.73779457743
-0.756228595608839,2551.74779457743
-0.758322796778003,2551.75779457743
-0.760677591074393,2551.76779457743
-0.763195277540443,2551.77779457743
-0.7656681922279,2551.78779457743
-0.767694491278234,2551.79779457743
-0.769483400314185,2551.80779457743
-0.771408691972431,2551.81779457743
-0.773083382362866,2551.82779457743
-0.774981649419734,2551.83779457743
-0.776212015510812,2551.84779457743
-0.775959980563584,2551.85779457743
-0.773496895272547,2551.86779457743
-0.767313085711341,2551.87779457743
-0.756628389109643,2551.88779457743
-0.742015405939397,2551.89779457743
-0.725622504140378,2551.90779457743
-0.708526211811736,2551.91779457743
-0.692266890693747,2551.92779457743
-0.679308749224295,2551.93779457743
-0.669696693709979,2551.94779457743
-0.663894429636336,2551.95779457743
-0.661325498614359,2551.96779457743
-0.661528641154589,2551.97779457743
-0.663092833921505,2551.98779457743
-0.666201799436048,2551.99779457743
-0.669746711828931,2552.00779457743
-0.672896847836578,2552.01779457743
-0.675481369259838,2552.02779457743
-0.677088284868899,2552.03779457743
-0.677757019346598,2552.04779457743
-0.677384740022686,2552.05779457743
-0.677158264608268,2552.06779457743
-0.6762709199267,2552.07779457743
-0.675165722941621,2552.08779457743
-0.674088650483434,2552.09779457743
-0.673436318755694,2552.10779457743
-0.673948229393288,2552.11779457743
-0.675018426367304,2552.12779457743
-0.677529094798388,2552.13779457743
-0.680982876478367,2552.14779457743
-0.68509830835584,2552.15779457743
-0.688474919663434,2552.16779457743
-0.690279971069822,2552.17779457743
-0.689349397085441,2552.18779457743
-0.686035672789212,2552.19779457743
-0.68081070003636,2552.20779457743
-0.674628538342484,2552.21779457743
-0.668451878631745,2552.22779457743
-0.662264171383342,2552.23779457743
-0.656720063005022,2552.24779457743
-0.652659853732253,2552.25779457743
-0.649728801824799,2552.26779457743
-0.648385861166387,2552.27779457743
-0.648014190903921,2552.28779457743
-0.648078155174751,2552.29779457743
-0.649022536136887,2552.30779457743
-0.650216837330133,2552.31779457743
-0.651103449246516,2552.32779457743
-0.65228104462754,2552.33779457743
-0.654110644486417,2552.34779457743
-0.655765358009958,2552.35779457743
-0.657713640243832,2552.36779457743
-0.659628600545367,2552.37779457743
-0.661033069791183,2552.38779457743
-0.661888215786698,2552.39779457743
-0.66257209941106,2552.40779457743
-0.662704497765385,2552.41779457743
-0.663219670389655,2552.42779457743
-0.663737371412221,2552.43779457743
-0.66438194825435,2552.44779457743
-0.665376843152264,2552.45779457743
-0.665648103185282,2552.46779457743
-0.666097765868964,2552.47779457743
-0.666231835170299,2552.48779457743
-0.666260739082155,2552.49779457743
-0.66605249456891,2552.50779457743
-0.665273939135996,2552.51779457743
-0.664603796724156,2552.52779457743
-0.664596599291999,2552.53779457743
-0.664665964184178,2552.54779457743
-0.665235123298491,2552.55779457743
-0.666646521149612,2552.56779457743
-0.668020388714979,2552.57779457743
-0.669797169305983,2552.58779457743
-0.670913249368571,2552.59779457743
-0.671712818795659,2552.60779457743
-0.671937620854698,2552.61779457743
-0.672195570890039,2552.62779457743
-0.672673272973958,2552.63779457743
-0.674189366449831,2552.64779457743
-0.675451156150005,2552.65779457743
-0.676870706890103,2552.66779457743
-0.678069257663225,2552.67779457743
-0.679257271669599,2552.68779457743
-0.680208526339096,2552.69779457743
-0.681058565432539,2552.70779457743
-0.682344709589598,2552.71779457743
-0.682991219340161,2552.72779457743
-0.683648311437187,2552.73779457743
-0.683979850087271,2552.74779457743
-0.684077656586144,2552.75779457743
-0.684125498728431,2552.76779457743
-0.683976200374541,2552.77779457743
-0.683764999933532,2552.78779457743
-0.682846117547115,2552.79779457743
-0.680227231157972,2552.80779457743
-0.673378043650055,2552.81779457743
-0.661809468629674,2552.82779457743
-0.645249603871619,2552.83779457743
-0.625420711902529,2552.84779457743
-0.604357203542356,2552.85779457743
-0.58421025553263,2552.86779457743
-0.566764659924433,2552.87779457743
-0.553220089347156,2552.88779457743
-0.543241934822056,2552.89779457743
-0.53650320475984,2552.90779457743
-0.533372242242415,2552.91779457743
-0.53213019193508,2552.92779457743
-0.53301349528302,2552.93779457743
-0.534038560313034,2552.94779457743
-0.535567460134568,2552.95779457743
-0.536422424170194,2552.96779457743
-0.536225579923632,2552.97779457743
-0.535160806810593,2552.98779457743
-0.532806168044942,2552.99779457743
-0.529247610246095,2553.00779457743
-0.524778886898105,2553.01779457743
-0.520098910545198,2553.02779457743
-0.513861375600017,2553.03779457743
-0.507255915808331,2553.04779457743
-0.500762529032697,2553.05779457743
-0.49545520456046,2553.06779457743
-0.491749291314245,2553.07779457743
-0.490756984850686,2553.08779457743
-0.492352535212686,2553.09779457743
-0.495682176381218,2553.10779457743
-0.499522211392035,2553.11779457743
-0.503143761353792,2553.12779457743
-0.50445356225742,2553.13779457743
-0.503072053000945,2553.14779457743
-0.499626948579865,2553.15779457743
-0.494509111324868,2553.16779457743
-0.488664362622821,2553.17779457743
-0.482531745719057,2553.18779457743
-0.476688031530162,2553.19779457743
-0.471051555686122,2553.20779457743
-0.465897788777358,2553.21779457743
-0.461399048213901,2553.22779457743
-0.45723099648838,2553.23779457743
-0.453592942864112,2553.24779457743
-0.451316262183485,2553.25779457743
-0.449315439259765,2553.26779457743
-0.448244119508588,2553.27779457743
-0.447671099278104,2553.28779457743
-0.447857346055387,2553.29779457743
-0.448307334776958,2553.30779457743
-0.448236151704451,2553.31779457743
-0.447807673808957,2553.32779457743
-0.447594840068578,2553.33779457743
-0.446886943768723,2553.34779457743
-0.446450604494564,2553.35779457743
-0.446213555428539,2553.36779457743
-0.446602515247228,2553.37779457743
-0.446851481969437,2553.38779457743
-0.447152568617282,2553.39779457743
-0.447266084604722,2553.40779457743
-0.447078368349052,2553.41779457743
-0.446099878980116,2553.42779457743
-0.444928047790769,2553.43779457743
-0.44308608644079,2553.44779457743
-0.442106460796392,2553.45779457743
-0.441470389820133,2553.46779457743
-0.440851757385664,2553.47779457743
-0.440843733630749,2553.48779457743
-0.440760258007674,2553.49779457743
-0.440458139768337,2553.50779457743
-0.440287563867506,2553.51779457743
-0.439480638327506,2553.52779457743
-0.439054313605452,2553.53779457743
-0.438752810097616,2553.54779457743
-0.438195578072133,2553.55779457743
-0.437777789570459,2553.56779457743
-0.437662976323754,2553.57779457743
-0.43708091984238,2553.58779457743
-0.436667774289762,2553.59779457743
-0.436567473610788,2553.60779457743
-0.436237363241014,2553.61779457743
-0.435717681815127,2553.62779457743
-0.435622374249238,2553.63779457743
-0.435155530205791,2553.64779457743
-0.434750763794248,2553.65779457743
-0.434763205251626,2553.66779457743
-0.435318104661215,2553.67779457743
-0.435899018213345,2553.68779457743
-0.436157598970441,2553.69779457743
-0.436562953414819,2553.70779457743
-0.43710175360093,2553.71779457743
-0.437375200987806,2553.72779457743
-0.437515847512159,2553.73779457743
-0.43809209272989,2553.74779457743
-0.439131462694715,2553.75779457743
-0.440665519130085,2553.76779457743
-0.442510413732086,2553.77779457743
-0.44377348949303,2553.78779457743
-0.444323274827846,2553.79779457743
-0.443875416965688,2553.80779457743
-0.442191751110138,2553.81779457743
-0.437367409217421,2553.82779457743
-0.428685354158394,2553.83779457743
-0.415504932781886,2553.84779457743
-0.397187304683898,2553.85779457743
-0.374566966207342,2553.86779457743
-0.349278584171061,2553.87779457743
-0.323748565106301,2553.88779457743
-0.300012587232217,2553.89779457743
-0.280418859056237,2553.90779457743
-0.264714387723931,2553.91779457743
-0.253197358905604,2553.92779457743
-0.245332273906413,2553.93779457743
-0.239997944175846,2553.94779457743
-0.236716753129522,2553.95779457743
-0.234355704566834,2553.96779457743
-0.232271579344226,2553.97779457743
-0.230403328065297,2553.98779457743
-0.227864911003499,2553.99779457743
-0.223966260956839,2554.00779457743
-0.218715154865959,2554.01779457743
-0.212113621786516,2554.02779457743
-0.204543166660522,2554.03779457743
-0.196054824594442,2554.04779457743
-0.186404519561634,2554.05779457743
-0.176808780847841,2554.06779457743
-0.167758836095727,2554.07779457743
-0.159773434757353,2554.08779457743
-0.153164053141255,2554.09779457743
-0.149223500666359,2554.10779457743
-0.147893110293283,2554.11779457743
-0.148123405870111,2554.12779457743
-0.150140194980283,2554.13779457743
-0.152718833019537,2554.14779457743
-0.153609923632936,2554.15779457743
-0.151687170640953,2554.16779457743
-0.146511466886058,2554.17779457743
-0.138467732712158,2554.18779457743
-0.128537101805772,2554.19779457743
-0.118339326681482,2554.20779457743
-0.107965160112974,2554.21779457743
-0.0984107518628136,2554.22779457743
-0.0905785442008355,2554.23779457743
-0.0841930472810416,2554.24779457743
-0.0794708987208805,2554.25779457743
-0.0763203680691189,2554.26779457743
-0.0739487216052293,2554.27779457743
-0.072264830393435,2554.28779457743
-0.0705346868484081,2554.29779457743
-0.0692314800439086,2554.30779457743
-0.0675342746934325,2554.31779457743
-0.0658216938242752,2554.32779457743
-0.0642241171604367,2554.33779457743
-0.0628608298617569,2554.34779457743
-0.0617194695505185,2554.35779457743
-0.0605654505875099,2554.36779457743
-0.0601200812883098,2554.37779457743
-0.0598097436394958,2554.38779457743
-0.0602425830122177,2554.39779457743
-0.0608541214366739,2554.40779457743
-0.0616329979269483,2554.41779457743
-0.0625270567696536,2554.42779457743
-0.0625851268580262,2554.43779457743
-0.0622461575868556,2554.44779457743
-0.0616004471008496,2554.45779457743
-0.0600626930216419,2554.46779457743
-0.0583537632473917,2554.47779457743
-0.0567667040793126,2554.48779457743
-0.0552022121326967,2554.49779457743
-0.0537535763130216,2554.50779457743
-0.0527017332202522,2554.51779457743
-0.0509842614294978,2554.52779457743
-0.0495581439289736,2554.53779457743
-0.0486576410752898,2554.54779457743
-0.0481416433697865,2554.55779457743
-0.0485957614155357,2554.56779457743
-0.0485557510507427,2554.57779457743
-0.0486289653795538,2554.58779457743
-0.0480122068833206,2554.59779457743
-0.0478948622618691,2554.60779457743
-0.0484022353217238,2554.61779457743
-0.0495993505689869,2554.62779457743
-0.0508406050192554,2554.63779457743
-0.0520953443655208,2554.64779457743
-0.0530783095840929,2554.65779457743
-0.0538511717609853,2554.66779457743
-0.0544122761645975,2554.67779457743
-0.0547751085812302,2554.68779457743
-0.0550833786019947,2554.69779457743
-0.0561963230561593,2554.70779457743
-0.057101631569654,2554.71779457743
-0.0580407563241976,2554.72779457743
-0.0587283226311184,2554.73779457743
-0.0598786604052136,2554.74779457743
-0.0603675050554955,2554.75779457743
-0.060997211469787,2554.76779457743
-0.0615152693274294,2554.77779457743
-0.0620079525494685,2554.78779457743
-0.0628191848149048,2554.79779457743
-0.0644486595663029,2554.80779457743
-0.0663987841032974,2554.81779457743
-0.0685787523072736,2554.82779457743
-0.0705654266170816,2554.83779457743
-0.0726204615617549,2554.84779457743
-0.0749287525082115,2554.85779457743
-0.0774200217701528,2554.86779457743
-0.0802940463816501,2554.87779457743
-0.0831689265854712,2554.88779457743
-0.0856725029047478,2554.89779457743
-0.0881165664258977,2554.90779457743
-0.0903923802413743,2554.91779457743
-0.0920946055887933,2554.92779457743
-0.0926340075737193,2554.93779457743
-0.090003278795491,2554.94779457743
-0.0826965091442901,2554.95779457743
-0.0692162180278595,2554.96779457743
-0.0498121479378541,2554.97779457743
-0.0253824836273925,2554.98779457743
0.00193554812543539,2554.99779457743
0.0285657686723959,2555.00779457743
0.0541946743184712,2555.01779457743
0.0760155435291638,2555.02779457743
0.0929013960567266,2555.03779457743
0.105164334590197,2555.04779457743
0.112791024587036,2555.05779457743
0.116907040898441,2555.06779457743
0.118462097543462,2555.07779457743
0.118368359112665,2555.08779457743
0.11688966513764,2555.09779457743
0.115992152603971,2555.10779457743
0.115294420409511,2555.11779457743
0.116192150326342,2555.12779457743
0.118644401465888,2555.13779457743
0.12235916288066,2555.14779457743
0.127256087715173,2555.15779457743
0.13326894940792,2555.16779457743
0.139931209250238,2555.17779457743
0.146362474931619,2555.18779457743
0.152541317614743,2555.19779457743
0.157411380312434,2555.20779457743
0.161278244251499,2555.21779457743
0.163288190505061,2555.22779457743
0.163410720025101,2555.23779457743
0.161228161646792,2555.24779457743
0.157751823721902,2555.25779457743
0.153982100759205,2555.26779457743
0.151485832116529,2555.27779457743
0.150665977377887,2555.28779457743
0.152268913160386,2555.29779457743
0.15694467698706,2555.30779457743
0.163632460593729,2555.31779457743
0.170871408017414,2555.32779457743
0.178354538634321,2555.33779457743
0.185043924733659,2555.34779457743
0.190823985949223,2555.35779457743
0.19532182741322,2555.36779457743
0.198568601246251,2555.37779457743
0.200644020211987,2555.38779457743
0.201936082066014,2555.39779457743
0.202011149740164,2555.40779457743
0.201287008552801,2555.41779457743
0.200289518197413,2555.42779457743
0.198775407870164,2555.43779457743
0.197526109077016,2555.44779457743
0.195820110602653,2555.45779457743
0.193956147587863,2555.46779457743
0.191313575584101,2555.47779457743
0.188584683426914,2555.48779457743
0.186160598992967,2555.49779457743
0.183206353009527,2555.50779457743
0.180911609958966,2555.51779457743
0.178770840084478,2555.52779457743
0.176650497951422,2555.53779457743
0.175100145558273,2555.54779457743
0.172920591177983,2555.55779457743
0.170598632058932,2555.56779457743
0.168441280054681,2555.57779457743
0.165861329413726,2555.58779457743
0.163683257391241,2555.59779457743
0.161762459555572,2555.60779457743
0.159444237812724,2555.61779457743
0.157717806811173,2555.62779457743
0.155552273193413,2555.63779457743
0.153310921585048,2555.64779457743
0.150909471286503,2555.65779457743
0.148276033697416,2555.66779457743
0.145212582326535,2555.67779457743
0.142443385440551,2555.68779457743
0.139862802114543,2555.69779457743
0.137712065872005,2555.70779457743
0.136155886794502,2555.71779457743
0.134711202121164,2555.72779457743
0.132650925107908,2555.73779457743
0.130249130299575,2555.74779457743
0.127505137889401,2555.75779457743
0.124823168966115,2555.76779457743
0.121888381355588,2555.77779457743
0.118793739016054,2555.78779457743
0.115156926511029,2555.79779457743
0.111243404438755,2555.80779457743
0.107268450607555,2555.81779457743
0.103293282985819,2555.82779457743
0.0990269272808197,2555.83779457743
0.094416356216607,2555.84779457743
0.090250834882313,2555.85779457743
0.0858274074945451,2555.86779457743
0.0824087973466861,2555.87779457743
0.0799774158092158,2555.88779457743
0.0784395733150413,2555.89779457743
0.0766453374432471,2555.90779457743
0.07504022068656,2555.91779457743
0.0728278920674457,2555.92779457743
0.0706853516619625,2555.93779457743
0.0684719477211823,2555.94779457743
0.0662383690436181,2555.95779457743
0.0639408558207377,2555.96779457743
0.0609843422631554,2555.97779457743
0.0577497233158678,2555.98779457743
0.0537362211788152,2555.99779457743
0.0500931576807805,2556.00779457743
0.0456083002040139,2556.01779457743
0.0412012274479363,2556.02779457743
0.0364051163838184,2556.03779457743
0.0324900086913692,2556.04779457743
0.0302764699768882,2556.05779457743
0.0302879470311536,2556.06779457743
0.0352439761813522,2556.07779457743
0.0455791882090337,2556.08779457743
0.0617384957164122,2556.09779457743
0.0818255686321045,2556.10779457743
0.103871116997439,2556.11779457743
0.124890836724168,2556.12779457743
0.143727426610796,2556.13779457743
0.158584149620533,2556.14779457743
0.169299900607718,2556.15779457743
0.176659873902433,2556.16779457743
0.180710168951573,2556.17779457743
0.1817604331943,2556.18779457743
0.180298944471364,2556.19779457743
0.177492365578598,2556.20779457743
0.17341938613564,2556.21779457743
0.169620596505679,2556.22779457743
0.165955696017779,2556.23779457743
0.162710245611752,2556.24779457743
0.16163113515483,2556.25779457743
0.161308174759114,2556.26779457743
0.161784676851351,2556.27779457743
0.162232369683019,2556.28779457743
0.162803110426746,2556.29779457743
0.162565879133828,2556.30779457743
0.161902444193368,2556.31779457743
0.159861187856769,2556.32779457743
0.155717639451804,2556.33779457743
0.150943513445375,2556.34779457743
0.145393556748597,2556.35779457743
0.140799277898237,2556.36779457743
0.138005371414425,2556.37779457743
0.138384902529888,2556.38779457743
0.142002696632735,2556.39779457743
0.147894477671554,2556.40779457743
0.155617218835337,2556.41779457743
0.16319667930282,2556.42779457743
0.16986198775952,2556.43779457743
0.175098908707834,2556.44779457743
0.178457142583579,2556.45779457743
0.180067522408892,2556.46779457743
0.180805205262319,2556.47779457743
0.179932852525783,2556.48779457743
0.178942930436736,2556.49779457743
0.177364701796565,2556.50779457743
0.174862938456142,2556.51779457743
0.172326453436862,2556.52779457743
0.169151548801042,2556.53779457743
0.16588768287343,2556.54779457743
0.162652676286411,2556.55779457743
0.15934925531973,2556.56779457743
0.156024726893117,2556.57779457743
0.153031514320387,2556.58779457743
0.150621786832594,2556.59779457743
0.148392881182142,2556.60779457743
0.146696493534691,2556.61779457743
0.144518322992155,2556.62779457743
0.1419065515467,2556.63779457743
0.138999628999714,2556.64779457743
0.136191389369134,2556.65779457743
0.133326669964941,2556.66779457743
0.130952379462279,2556.67779457743
0.128318777219711,2556.68779457743
0.125955714426456,2556.69779457743
0.123756809762474,2556.70779457743
0.121437528742944,2556.71779457743
0.119310679020336,2556.72779457743
0.117144466420517,2556.73779457743
0.114452875032605,2556.74779457743
0.111308949974679,2556.75779457743
0.108770097313676,2556.76779457743
0.106266009843005,2556.77779457743
0.103799999740154,2556.78779457743
0.101081616307219,2556.79779457743
0.0980300834502427,2556.80779457743
0.0949133193079262,2556.81779457743
0.0918766881555645,2556.82779457743
0.089034898492739,2556.83779457743
0.0869095358984659,2556.84779457743
0.085012908567355,2556.85779457743
0.0824288772311392,2556.86779457743
0.0803357988373616,2556.87779457743
0.0781921298224248,2556.88779457743
0.0762467097358343,2556.89779457743
0.0743080820164793,2556.90779457743
0.071795249679677,2556.91779457743
0.0689766871213288,2556.92779457743
0.0656840405430688,2556.93779457743
0.0623505959773667,2556.94779457743
0.058761419892203,2556.95779457743
0.0555726233009289,2556.96779457743
0.0526967146927062,2556.97779457743
0.0499747553721813,2556.98779457743
0.0473022033271666,2556.99779457743
0.0449372740199594,2557.00779457743
0.0420827259694093,2557.01779457743
0.0386909350973888,2557.02779457743
0.0350564492856614,2557.03779457743
0.0314676480610472,2557.04779457743
0.0276298396126596,2557.05779457743
0.0235054608115073,2557.06779457743
0.0200992057635954,2557.07779457743
0.0168532407068314,2557.08779457743
0.0141997305420424,2557.09779457743
0.0121829547454478,2557.10779457743
0.0108986078519239,2557.11779457743
0.0118035929970249,2557.12779457743
0.0170954571548736,2557.13779457743
0.027830566883002,2557.14779457743
0.0453019401124306,2557.15779457743
0.0682447860112671,2557.16779457743
0.0944817608149778,2557.17779457743
0.121530728274602,2557.18779457743
0.147045391262277,2557.19779457743
0.168995298606249,2557.20779457743
0.18668042494229,2557.21779457743
0.200100927487898,2557.22779457743
0.209473540540133,2557.23779457743
0.215522008245202,2557.24779457743
0.219114970814152,2557.25779457743
0.221042139704091,2557.26779457743
0.222500953571632,2557.27779457743
0.223677694030123,2557.28779457743
0.224953953605684,2557.29779457743
0.227092645345715,2557.30779457743
0.229808413419664,2557.31779457743
0.233415210025443,2557.32779457743
0.237861342608851,2557.33779457743
0.242569542503879,2557.34779457743
0.248740962110841,2557.35779457743
0.25574710746904,2557.36779457743
0.26414796511406,2557.37779457743
0.272723297888751,2557.38779457743
0.280501121721848,2557.39779457743
0.286010851542535,2557.40779457743
0.287980528483464,2557.41779457743
0.286593475554743,2557.42779457743
0.28273946608254,2557.43779457743
0.277144990183996,2557.44779457743
0.271827443247572,2557.45779457743
0.268227666894936,2557.46779457743
0.267850957732117,2557.47779457743
0.27030924233894,2557.48779457743
0.275871787140072,2557.49779457743
0.283489256336886,2557.50779457743
0.291835470896354,2557.51779457743
0.300775363949017,2557.52779457743
0.308724444778823,2557.53779457743
0.316179056660189,2557.54779457743
0.322477971877023,2557.55779457743
0.328042504128203,2557.56779457743
0.332897756362906,2557.57779457743
0.33636283479296,2557.58779457743
0.338146825376178,2557.59779457743
0.338738375108529,2557.60779457743
0.338533461977778,2557.61779457743
0.337990616834662,2557.62779457743
0.337031209018605,2557.63779457743
0.335339912828097,2557.64779457743
0.333587717112831,2557.65779457743
0.331928882488912,2557.66779457743
0.329750665179174,2557.67779457743
0.327796124510088,2557.68779457743
0.326172986595675,2557.69779457743
0.324193478462941,2557.70779457743
0.322248639536543,2557.71779457743
0.319339742933145,2557.72779457743
0.316502137827656,2557.73779457743
0.313336802770923,2557.74779457743
0.310353891941583,2557.75779457743
0.30807756405913,2557.76779457743
0.306447053346549,2557.77779457743
0.30542135579007,2557.78779457743
0.304455105726986,2557.79779457743
0.303658649381522,2557.80779457743
0.302034076545654,2557.81779457743
0.299983188821168,2557.82779457743
0.297616063906182,2557.83779457743
0.295220280019057,2557.84779457743
0.292700456953447,2557.85779457743
0.290745943172373,2557.86779457743
0.288671836453952,2557.87779457743
0.286833536437016,2557.88779457743
0.285233168350299,2557.89779457743
0.283960985097032,2557.90779457743
0.282398607567052,2557.91779457743
0.280493837554965,2557.92779457743
0.278701076686852,2557.93779457743
0.276594722531922,2557.94779457743
0.274423601288792,2557.95779457743
0.271458699622474,2557.96779457743
0.26861567546869,2557.97779457743
0.265123273501944,2557.98779457743
0.261244068164672,2557.99779457743
0.257041204548203,2558.00779457743
0.251950774184187,2558.01779457743
0.247450718360413,2558.02779457743
0.243327645182328,2558.03779457743
0.239555923402983,2558.04779457743
0.23591930719143,2558.05779457743
0.231869600460949,2558.06779457743
0.228252665787138,2558.07779457743
0.224672662628915,2558.08779457743
0.220709654630311,2558.09779457743
