PPG,time
0.150326455988246,2869.8709351859
0.295371945560596,2869.8809351859
0.25942827883317,2869.8909351859
0.280515842335433,2869.9009351859
0.271211404798577,2869.9109351859
0.281508239937419,2869.9209351859
0.279172973450482,2869.9309351859
0.283161357994701,2869.9409351859
0.281218954605822,2869.9509351859
0.280570155028314,2869.9609351859
0.276824954490448,2869.9709351859
0.272001422696332,2869.9809351859
0.26521289054366,2869.9909351859
0.257345118113346,2870.0009351859
0.248355031181406,2870.0109351859
0.238256297785654,2870.0209351859
0.227490387664331,2870.0309351859
0.215899505372525,2870.0409351859
0.203428957548808,2870.0509351859
0.190022080189455,2870.0609351859
0.176001245569555,2870.0709351859
0.161153832257772,2870.0809351859
0.146689084348437,2870.0909351859
0.13275639644196,2870.1009351859
0.119718642999915,2870.1109351859
0.107340302788725,2870.1209351859
0.0949134417370407,2870.1309351859
0.0822588911248814,2870.1409351859
0.069398175322561,2870.1509351859
0.0564631982886906,2870.1609351859
0.0435893337351099,2870.1709351859
0.0316350582781652,2870.1809351859
0.0198965546052041,2870.1909351859
0.00975939318073837,2870.2009351859
-0.000154991792903808,2870.2109351859
-0.00957142528201999,2870.2209351859
-0.0186769193714033,2870.2309351859
-0.0279061038916023,2870.2409351859
-0.0370278379511241,2870.2509351859
-0.0462629347993773,2870.2609351859
-0.0548178653105309,2870.2709351859
-0.0630035815623115,2870.2809351859
-0.0703270254209322,2870.2909351859
-0.077970280684163,2870.3009351859
-0.0853664469738028,2870.3109351859
-0.0925710146547691,2870.3209351859
-0.0998892203259207,2870.3309351859
-0.108194485227873,2870.3409351859
-0.116789714577261,2870.3509351859
-0.12625037775372,2870.3609351859
-0.135484893590896,2870.3709351859
-0.144555244034509,2870.3809351859
-0.152998951179639,2870.3909351859
-0.161038217965265,2870.4009351859
-0.168327824098317,2870.4109351859
-0.175167525872491,2870.4209351859
-0.182371997269606,2870.4309351859
-0.189871046838697,2870.4409351859
-0.197588927060155,2870.4509351859
-0.204022969111835,2870.4609351859
-0.206504621396714,2870.4709351859
-0.201653034673147,2870.4809351859
-0.184015429729596,2870.4909351859
-0.148950407435365,2870.5009351859
-0.0940382558625962,2870.5109351859
-0.0196025955286121,2870.5209351859
0.070136155712749,2870.5309351859
0.168956156072818,2870.5409351859
0.269413174195236,2870.5509351859
0.363131201503662,2870.5609351859
0.444003140361939,2870.5709351859
0.508548875319891,2870.5809351859
0.554745323104673,2870.5909351859
0.583734941183606,2870.6009351859
0.598352081018577,2870.6109351859
0.600775017250975,2870.6209351859
0.595170037209415,2870.6309351859
0.583820110766032,2870.6409351859
0.569569648539584,2870.6509351859
0.554263158884326,2870.6609351859
0.538832081242008,2870.6709351859
0.524925537739969,2870.6809351859
0.512364579030074,2870.6909351859
0.502140878784839,2870.7009351859
0.493070040704769,2870.7109351859
0.484611777847373,2870.7209351859
0.476290037477652,2870.7309351859
0.466791259799902,2870.7409351859
0.454384487434325,2870.7509351859
0.43922285591043,2870.7609351859
0.421408150205651,2870.7709351859
0.401982370396712,2870.7809351859
0.38207411592147,2870.7909351859
0.362794353349964,2870.8009351859
0.345957469881119,2870.8109351859
0.332505074690824,2870.8209351859
0.323233204696739,2870.8309351859
0.317590727662805,2870.8409351859
0.315272911662481,2870.8509351859
0.315643232447907,2870.8609351859
0.316680739962617,2870.8709351859
0.319420832304073,2870.8809351859
0.32228830533736,2870.8909351859
0.325270334083056,2870.9009351859
0.327986619019116,2870.9109351859
0.329193538506861,2870.9209351859
0.329202569387381,2870.9309351859
0.327074062036491,2870.9409351859
0.322563915962481,2870.9509351859
0.316174608938851,2870.9609351859
0.307506250365263,2870.9709351859
0.297565953606158,2870.9809351859
0.286164501446433,2870.9909351859
0.273468776484438,2871.0009351859
0.259716967332175,2871.0109351859
0.245436045843029,2871.0209351859
0.230538702884362,2871.0309351859
0.215579535280284,2871.0409351859
0.200846349470054,2871.0509351859
0.185931251075975,2871.0609351859
0.171371764670442,2871.0709351859
0.156829777154245,2871.0809351859
0.142485925633179,2871.0909351859
0.128410991693187,2871.1009351859
0.114255797663811,2871.1109351859
0.100264682568083,2871.1209351859
0.0856590629235052,2871.1309351859
0.0712778762060947,2871.1409351859
0.0571223481588979,2871.1509351859
0.0429564614138447,2871.1609351859
0.0294787321636165,2871.1709351859
0.0163303597695522,2871.1809351859
0.00377135472963753,2871.1909351859
-0.00767723929618414,2871.2009351859
-0.0186046960483983,2871.2109351859
-0.0290487319512423,2871.2209351859
-0.0392250203568542,2871.2309351859
-0.0502732137848128,2871.2409351859
-0.0615557279361926,2871.2509351859
-0.073686642677798,2871.2609351859
-0.0855182751409253,2871.2709351859
-0.0969356283334817,2871.2809351859
-0.107713435074577,2871.2909351859
-0.118193693619151,2871.3009351859
-0.128050257174723,2871.3109351859
-0.137918468476783,2871.3209351859
-0.147114066417751,2871.3309351859
-0.156178576030396,2871.3409351859
-0.164629683607263,2871.3509351859
-0.172952281610919,2871.3609351859
-0.181395972137437,2871.3709351859
-0.19016534688358,2871.3809351859
-0.198670743584547,2871.3909351859
-0.207738072232495,2871.4009351859
-0.217551365476061,2871.4109351859
-0.227307471614551,2871.4209351859
-0.23551088740545,2871.4309351859
-0.239853238590631,2871.4409351859
-0.235591750699212,2871.4509351859
-0.21899195931165,2871.4609351859
-0.18557000903626,2871.4709351859
-0.133299124072625,2871.4809351859
-0.0622641791520992,2871.4909351859
0.0235968234993626,2871.5009351859
0.118078537399074,2871.5109351859
0.213625481153763,2871.5209351859
0.302568986117769,2871.5309351859
0.379178128187291,2871.5409351859
0.43890539751662,2871.5509351859
0.481148288906112,2871.5609351859
0.506106588623798,2871.5709351859
0.517272854434456,2871.5809351859
0.517099431020088,2871.5909351859
0.508464892567767,2871.6009351859
0.494505104219587,2871.6109351859
0.476361150029693,2871.6209351859
0.456660697414434,2871.6309351859
0.436090187113111,2871.6409351859
0.416531340858236,2871.6509351859
0.398092802227126,2871.6609351859
0.381623242324216,2871.6709351859
0.366444482129044,2871.6809351859
0.352835892728512,2871.6909351859
0.339687179779435,2871.7009351859
0.325340203673534,2871.7109351859
0.30835171546671,2871.7209351859
0.28925048862823,2871.7309351859
0.268768734484832,2871.7409351859
0.247458126462909,2871.7509351859
0.227016626476528,2871.7609351859
0.208212976286601,2871.7709351859
0.19229007154448,2871.7809351859
0.180024184039867,2871.7909351859
0.171039895664926,2871.8009351859
0.166425964946479,2871.8109351859
0.165398830794387,2871.8209351859
0.166381501912293,2871.8309351859
0.169547793314844,2871.8409351859
0.173429688859757,2871.8509351859
0.177560567957795,2871.8609351859
0.180617185575213,2871.8709351859
0.182816118811284,2871.8809351859
0.183508378864679,2871.8909351859
0.183156263931861,2871.9009351859
0.181559847538684,2871.9109351859
0.178352576947715,2871.9209351859
0.173223035879302,2871.9309351859
0.16638270904337,2871.9409351859
0.157341862916784,2871.9509351859
0.146574898369902,2871.9609351859
0.13429720823542,2871.9709351859
0.120739938861733,2871.9809351859
0.107762194814712,2871.9909351859
0.0944577028817765,2872.0009351859
0.0814107399327954,2872.0109351859
0.0688159119965057,2872.0209351859
0.0556379086695152,2872.0309351859
0.0424453951141602,2872.0409351859
0.028865501365585,2872.0509351859
0.0153450976095905,2872.0609351859
0.00136472435648805,2872.0709351859
-0.0123309366882721,2872.0809351859
-0.0259328165803697,2872.0909351859
-0.0388532992610147,2872.1009351859
-0.0503926266259059,2872.1109351859
-0.0619550315794763,2872.1209351859
-0.0727376993165049,2872.1309351859
-0.0839838646305829,2872.1409351859
-0.0950266237230125,2872.1509351859
-0.105896888780621,2872.1609351859
-0.116101874014281,2872.1709351859
-0.125539443211284,2872.1809351859
-0.134253468835636,2872.1909351859
-0.143249102499991,2872.2009351859
-0.151868951332127,2872.2109351859
-0.160820759343584,2872.2209351859
-0.169443805734677,2872.2309351859
-0.17819522934481,2872.2409351859
-0.186835592651478,2872.2509351859
-0.195172530904429,2872.2609351859
-0.203100081729723,2872.2709351859
-0.210518015326936,2872.2809351859
-0.217719636681311,2872.2909351859
-0.224700457218037,2872.3009351859
-0.232490532271456,2872.3109351859
-0.240806120776761,2872.3209351859
-0.250356284207189,2872.3309351859
-0.260387501446291,2872.3409351859
-0.270035140273163,2872.3509351859
-0.278074089246685,2872.3609351859
-0.283267531359951,2872.3709351859
-0.280662445323127,2872.3809351859
-0.266953323940487,2872.3909351859
-0.237018481685461,2872.4009351859
-0.188370582836792,2872.4109351859
-0.120920682651708,2872.4209351859
-0.0375924694740698,2872.4309351859
0.055100911355086,2872.4409351859
0.149896473109911,2872.4509351859
0.239834961123454,2872.4609351859
0.318435917027194,2872.4709351859
0.38166140916625,2872.4809351859
0.4283124224282,2872.4909351859
0.458054626068067,2872.5009351859
0.472987582972933,2872.5109351859
0.475505058867745,2872.5209351859
0.468042702608238,2872.5309351859
0.453513494942237,2872.5409351859
0.433415772053501,2872.5509351859
0.411047190670661,2872.5609351859
0.386835986618514,2872.5709351859
0.36291019127956,2872.5809351859
0.340630795403736,2872.5909351859
0.320880427239332,2872.6009351859
0.303638659922624,2872.6109351859
0.287597220006396,2872.6209351859
0.271573806704152,2872.6309351859
0.254524398992417,2872.6409351859
0.234957561831975,2872.6509351859
0.213311506713676,2872.6609351859
0.190145557152515,2872.6709351859
0.166925837872232,2872.6809351859
0.145050102267529,2872.6909351859
0.125955441277056,2872.7009351859
0.110802421933857,2872.7109351859
0.100424101213882,2872.7209351859
0.0944856849309647,2872.7309351859
0.0931421360383524,2872.7409351859
0.0957908497139888,2872.7509351859
0.101480069298064,2872.7609351859
0.108987059527918,2872.7709351859
0.117317265109327,2872.7809351859
0.125765535254786,2872.7909351859
0.132379849985153,2872.8009351859
0.13697887468007,2872.8109351859
0.139221382246325,2872.8209351859
0.139189424998009,2872.8309351859
0.137038493300059,2872.8409351859
0.133081678784447,2872.8509351859
0.127249520448648,2872.8609351859
0.119698184663148,2872.8709351859
0.110981807095277,2872.8809351859
0.101104921053477,2872.8909351859
0.0897501099028321,2872.9009351859
0.0776818242979691,2872.9109351859
0.064394749309957,2872.9209351859
0.050342201430866,2872.9309351859
0.0360254545190449,2872.9409351859
0.0210840555343252,2872.9509351859
0.00519626696812784,2872.9609351859
-0.0101176258341438,2872.9709351859
-0.0253724954761161,2872.9809351859
-0.039791841181024,2872.9909351859
-0.0534605596452832,2873.0009351859
-0.0665406532203791,2873.0109351859
-0.0787632301242878,2873.0209351859
-0.090354696607214,2873.0309351859
-0.100970189384704,2873.0409351859
-0.111341337824189,2873.0509351859
-0.121056972040744,2873.0609351859
-0.130183155543572,2873.0709351859
-0.139101384413117,2873.0809351859
-0.147562662353566,2873.0909351859
-0.155975815871506,2873.1009351859
-0.164713138761525,2873.1109351859
-0.173894419436969,2873.1209351859
-0.183446815150056,2873.1309351859
-0.193475401436307,2873.1409351859
-0.203561468295682,2873.1509351859
-0.213537190029989,2873.1609351859
-0.222839112618269,2873.1709351859
-0.231785082419917,2873.1809351859
-0.240258065128406,2873.1909351859
-0.247389892818776,2873.2009351859
-0.254731851322871,2873.2109351859
-0.262132235284295,2873.2209351859
-0.269405985736454,2873.2309351859
-0.277363595536157,2873.2409351859
-0.284571448785205,2873.2509351859
-0.289871737593387,2873.2609351859
-0.289480338764499,2873.2709351859
-0.279559818793947,2873.2809351859
-0.254631665209836,2873.2909351859
-0.211212612725289,2873.3009351859
-0.149046623154523,2873.3109351859
-0.0682588320265342,2873.3209351859
0.0251749123481902,2873.3309351859
0.12443063694214,2873.3409351859
0.222422309717729,2873.3509351859
0.311638694103778,2873.3609351859
0.386109038761012,2873.3709351859
0.442845327342933,2873.3809351859
0.4818494178406,2873.3909351859
0.504537398242604,2873.4009351859
0.513094770476757,2873.4109351859
0.509534293205368,2873.4209351859
0.497452006468538,2873.4309351859
0.479388945582681,2873.4409351859
0.457962408941991,2873.4509351859
0.435392719878985,2873.4609351859
0.413789997418239,2873.4709351859
0.394498911301183,2873.4809351859
0.377044851641446,2873.4909351859
0.362403732022261,2873.5009351859
0.349251909453053,2873.5109351859
0.336789499056652,2873.5209351859
0.323176350048676,2873.5309351859
0.307698232965024,2873.5409351859
0.290135810680993,2873.5509351859
0.270010701578844,2873.5609351859
0.248923437738877,2873.5709351859
0.227260299403199,2873.5809351859
0.207034082311562,2873.5909351859
0.189312038322901,2873.6009351859
0.17494164257675,2873.6109351859
0.165278345594828,2873.6209351859
0.159714513240767,2873.6309351859
0.157584213664943,2873.6409351859
0.158104124513684,2873.6509351859
0.160956148896069,2873.6609351859
0.16550294246622,2873.6709351859
0.170909301870628,2873.6809351859
0.17743517756695,2873.6909351859
0.183938780807411,2873.7009351859
0.189405296321876,2873.7109351859
0.192283027209366,2873.7209351859
0.193144373419952,2873.7309351859
0.191491845507894,2873.7409351859
0.187312626832157,2873.7509351859
0.180955822140409,2873.7609351859
0.172030975624116,2873.7709351859
0.160955343920443,2873.7809351859
0.14780013315095,2873.7909351859
0.133925514291029,2873.8009351859
0.118978162746107,2873.8109351859
0.103780398674459,2873.8209351859
0.0884419509608613,2873.8309351859
0.0735415272376427,2873.8409351859
0.0588722491936637,2873.8509351859
0.0449315240128781,2873.8609351859
0.0311635144851891,2873.8709351859
0.01809466861562,2873.8809351859
0.00504967777556995,2873.8909351859
-0.0078600143377532,2873.9009351859
-0.0210624702999194,2873.9109351859
-0.0344869510560304,2873.9209351859
-0.0477451014028456,2873.9309351859
-0.0605281827130793,2873.9409351859
-0.0720679370428544,2873.9509351859
-0.0829928808246869,2873.9609351859
-0.0931714155869466,2873.9709351859
-0.103437706334039,2873.9809351859
-0.113128794850013,2873.9909351859
-0.122646318625409,2874.0009351859
-0.131978929235971,2874.0109351859
-0.140854127115373,2874.0209351859
-0.149199948909515,2874.0309351859
-0.15739071930033,2874.0409351859
-0.16428438667968,2874.0509351859
-0.170936027871725,2874.0609351859
-0.177583093117266,2874.0709351859
-0.183925567633866,2874.0809351859
-0.190877756167427,2874.0909351859
-0.198492004998732,2874.1009351859
-0.206460265932052,2874.1109351859
-0.214945078111548,2874.1209351859
-0.223414507954883,2874.1309351859
-0.231838040904963,2874.1409351859
-0.23981881594605,2874.1509351859
-0.247425979249946,2874.1609351859
-0.25480650436449,2874.1709351859
-0.261715516206758,2874.1809351859
-0.269193775936007,2874.1909351859
-0.27632900467554,2874.2009351859
-0.28094712584879,2874.2109351859
-0.279689448139866,2874.2209351859
-0.267151411372235,2874.2309351859
-0.238312869311411,2874.2409351859
-0.189168552786975,2874.2509351859
-0.118100449548739,2874.2609351859
-0.0279441489474808,2874.2709351859
0.0759653354967245,2874.2809351859
0.185602592362587,2874.2909351859
0.291782814636376,2874.3009351859
0.387771384962448,2874.3109351859
0.466531479480836,2874.3209351859
0.52538548555228,2874.3309351859
0.564397072544782,2874.3409351859
0.585385571800106,2874.3509351859
0.591334366728749,2874.3609351859
0.585617195054095,2874.3709351859
0.572290124167655,2874.3809351859
0.553929646289625,2874.3909351859
0.533738826472758,2874.4009351859
0.513544136135703,2874.4109351859
0.494312733815105,2874.4209351859
0.476911509371645,2874.4309351859
0.461373202289835,2874.4409351859
0.447898161381847,2874.4509351859
0.435748141588402,2874.4609351859
0.424192611225774,2874.4709351859
0.411694020793967,2874.4809351859
0.398263270026527,2874.4909351859
0.382653314237187,2874.5009351859
0.365313278173434,2874.5109351859
0.346615892287346,2874.5209351859
0.327122898502648,2874.5309351859
0.30808019848324,2874.5409351859
0.290612923482012,2874.5509351859
0.275355853812012,2874.5609351859
0.26394523166518,2874.5709351859
0.256034164536415,2874.5809351859
0.251618323284982,2874.5909351859
0.25071534403606,2874.6009351859
0.252495844093348,2874.6109351859
0.256112782069599,2874.6209351859
0.260369375361548,2874.6309351859
0.264786505443525,2874.6409351859
0.268587408208499,2874.6509351859
0.271333569092711,2874.6609351859
0.272793094018895,2874.6709351859
0.272509386932098,2874.6809351859
0.270566395448059,2874.6909351859
0.266673396716705,2874.7009351859
0.260610105665251,2874.7109351859
0.253074178519365,2874.7209351859
0.24354345731473,2874.7309351859
0.232008225667435,2874.7409351859
0.219164101373814,2874.7509351859
0.205060906648753,2874.7609351859
0.190514257269319,2874.7709351859
0.175609835123305,2874.7809351859
0.161655243797151,2874.7909351859
0.14790463451306,2874.8009351859
0.134361043728846,2874.8109351859
0.120538055988315,2874.8209351859
0.106395641721468,2874.8309351859
0.0918334615549121,2874.8409351859
0.076972897680141,2874.8509351859
0.0619080547008877,2874.8609351859
0.0467633704469788,2874.8709351859
0.0320906574352531,2874.8809351859
0.0182334224941155,2874.8909351859
0.00531385531831552,2874.9009351859
-0.00704248640716492,2874.9109351859
-0.0188218448325545,2874.9209351859
-0.0302169652337,2874.9309351859
-0.0413310016006804,2874.9409351859
-0.0516377907329372,2874.9509351859
-0.0621512098223359,2874.9609351859
-0.0723765026632702,2874.9709351859
-0.0828208344907102,2874.9809351859
-0.0932573770213229,2874.9909351859
-0.103542672359033,2875.0009351859
-0.113660662198803,2875.0109351859
-0.124013228369901,2875.0209351859
-0.134437764031683,2875.0309351859
-0.144041048767889,2875.0409351859
-0.153806954287507,2875.0509351859
-0.16359035185093,2875.0609351859
-0.173017216933971,2875.0709351859
-0.18238551151115,2875.0809351859
-0.190822680312737,2875.0909351859
-0.19856640860353,2875.1009351859
-0.206329142211605,2875.1109351859
-0.213222106321181,2875.1209351859
-0.220805773305161,2875.1309351859
-0.229783409359701,2875.1409351859
-0.239711009480366,2875.1509351859
-0.250959177932432,2875.1609351859
-0.260823024261366,2875.1709351859
-0.267226680887376,2875.1809351859
-0.266690313602402,2875.1909351859
-0.253948652825055,2875.2009351859
-0.224597257232278,2875.2109351859
-0.175496206194424,2875.2209351859
-0.106237318668238,2875.2309351859
-0.0190711816560069,2875.2409351859
0.0803666958947848,2875.2509351859
0.185151415407125,2875.2609351859
0.287099840619023,2875.2709351859
0.379422734249203,2875.2809351859
0.455018952330343,2875.2909351859
0.511070205011299,2875.3009351859
0.547195364748926,2875.3109351859
0.56575014171118,2875.3209351859
0.570351327674486,2875.3309351859
0.56350762459944,2875.3409351859
0.54936941708911,2875.3509351859
0.529684916258043,2875.3609351859
0.507271115599068,2875.3709351859
0.483840587671997,2875.3809351859
0.460347558330546,2875.3909351859
0.438386280772882,2875.4009351859
0.417958314246536,2875.4109351859
0.399219752508384,2875.4209351859
0.381240861257552,2875.4309351859
0.364193942814995,2875.4409351859
0.346973594518641,2875.4509351859
0.328605141468238,2875.4609351859
0.308670573684745,2875.4709351859
0.287221473558478,2875.4809351859
0.264947168466339,2875.4909351859
0.242476349446986,2875.5009351859
0.221140480794255,2875.5109351859
0.203306512181243,2875.5209351859
0.189435684960779,2875.5309351859
0.179933885572943,2875.5409351859
0.174639218433304,2875.5509351859
0.17361422721293,2875.5609351859
0.175375424163366,2875.5709351859
0.179422715105587,2875.5809351859
0.184632615855491,2875.5909351859
0.190151707596891,2875.6009351859
0.195390790633991,2875.6109351859
0.199978768038366,2875.6209351859
0.203149790719682,2875.6309351859
0.204997912336317,2875.6409351859
0.205399586282826,2875.6509351859
0.203692231903136,2875.6609351859
0.20035642798646,2875.6709351859
0.194464754358955,2875.6809351859
0.18656832429241,2875.6909351859
0.176892776796654,2875.7009351859
0.165333423205888,2875.7109351859
0.152409922042311,2875.7209351859
0.138239780188558,2875.7309351859
0.123242396882789,2875.7409351859
0.107824449083544,2875.7509351859
0.0925200655630536,2875.7609351859
0.0770456391947475,2875.7709351859
0.0614724720359858,2875.7809351859
0.0457345843739659,2875.7909351859
0.0298933217269525,2875.8009351859
0.0143318929904353,2875.8109351859
-0.000548154706482544,2875.8209351859
-0.0150937485847308,2875.8309351859
-0.0289559477580148,2875.8409351859
-0.0419057111243618,2875.8509351859
-0.054528645731372,2875.8609351859
-0.0666601061985318,2875.8709351859
-0.0783107077378641,2875.8809351859
-0.0895617663552484,2875.8909351859
-0.100159012143339,2875.9009351859
-0.110261448729232,2875.9109351859
-0.119740122123732,2875.9209351859
-0.128746376162125,2875.9309351859
-0.137832510910951,2875.9409351859
-0.1472655157946,2875.9509351859
-0.156869190799824,2875.9609351859
-0.166219561245256,2875.9709351859
-0.175700171303676,2875.9809351859
-0.184659021655736,2875.9909351859
-0.19395936150544,2876.0009351859
-0.202364449476575,2876.0109351859
-0.210254617205529,2876.0209351859
-0.217519638501675,2876.0309351859
-0.223560740236841,2876.0409351859
-0.229995195433148,2876.0509351859
-0.236469544034362,2876.0609351859
-0.243258846694714,2876.0709351859
-0.251040046438373,2876.0809351859
-0.25927271222507,2876.0909351859
-0.26810431883206,2876.1009351859
-0.27551384610879,2876.1109351859
-0.279254084498847,2876.1209351859
-0.275024937542453,2876.1309351859
-0.257786071519541,2876.1409351859
-0.223630780414754,2876.1509351859
-0.170319597441176,2876.1609351859
-0.0976632883074082,2876.1709351859
-0.00886082418251488,2876.1809351859
0.0905890055519863,2876.1909351859
0.19374806478184,2876.2009351859
0.291952432340671,2876.2109351859
0.378474271217468,2876.2209351859
0.448409847629517,2876.2309351859
0.498705705960715,2876.2409351859
0.529021353244463,2876.2509351859
0.541785399752353,2876.2609351859
0.540186238683011,2876.2709351859
0.527379554844693,2876.2809351859
0.507245181680699,2876.2909351859
0.482903103416829,2876.3009351859
0.456769495628122,2876.3109351859
0.430377267854073,2876.3209351859
0.405235832854033,2876.3309351859
0.381794033230511,2876.3409351859
0.359466631614293,2876.3509351859
0.337903167148878,2876.3609351859
0.31673681583765,2876.3709351859
0.295437760220933,2876.3809351859
0.273623454826644,2876.3909351859
0.250890826223421,2876.4009351859
0.22776640298677,2876.4109351859
0.204149829847743,2876.4209351859
0.181936941708984,2876.4309351859
0.162060868470619,2876.4409351859
0.145242487727265,2876.4509351859
0.133267995171304,2876.4609351859
0.125927165519014,2876.4709351859
0.122888730784181,2876.4809351859
0.124378421176533,2876.4909351859
0.128924810123198,2876.5009351859
0.136010452173745,2876.5109351859
0.145357512691641,2876.5209351859
0.156061350073592,2876.5309351859
0.166798636337569,2876.5409351859
0.176332713992785,2876.5509351859
0.184051412949926,2876.5609351859
0.188852358326878,2876.5709351859
0.190877209494934,2876.5809351859
0.189543174840471,2876.5909351859
0.185830674978641,2876.6009351859
0.178818403262344,2876.6109351859
0.169549080952137,2876.6209351859
0.158520054703098,2876.6309351859
0.146414834175665,2876.6409351859
0.133152312966487,2876.6509351859
0.118665812355702,2876.6609351859
0.103487853038338,2876.6709351859
0.0877670907876325,2876.6809351859
0.0717357802095121,2876.6909351859
0.0554870839220692,2876.7009351859
0.0390360222861444,2876.7109351859
0.0236674506375251,2876.7209351859
0.00806803200467191,2876.7309351859
-0.00711988494619444,2876.7409351859
-0.021963663930856,2876.7509351859
-0.0369511729948824,2876.7609351859
-0.0512149387576279,2876.7709351859
-0.064873610722137,2876.7809351859
-0.0782254481794292,2876.7909351859
-0.0908681571593106,2876.8009351859
-0.102727441045645,2876.8109351859
-0.113602528082066,2876.8209351859
-0.122765981135639,2876.8309351859
-0.130744307492156,2876.8409351859
-0.138283181768419,2876.8509351859
-0.145438613713604,2876.8609351859
-0.15288748145178,2876.8709351859
-0.160005731090236,2876.8809351859
-0.166876042651162,2876.8909351859
-0.174007515863422,2876.9009351859
-0.181719905730661,2876.9109351859
-0.189343159122769,2876.9209351859
-0.1977586814137,2876.9309351859
-0.206044835310004,2876.9409351859
-0.214375389765849,2876.9509351859
-0.222508295224503,2876.9609351859
-0.23021804628869,2876.9709351859
-0.23827551031139,2876.9809351859
-0.246840499822891,2876.9909351859
-0.256305013114213,2877.0009351859
-0.265485529272818,2877.0109351859
-0.273697978478282,2877.0209351859
-0.278297579703495,2877.0309351859
-0.275251371305581,2877.0409351859
-0.260410207443756,2877.0509351859
-0.228200048885383,2877.0609351859
-0.176011587844572,2877.0709351859
-0.103137497273607,2877.0809351859
-0.0124468938998565,2877.0909351859
0.0902833626288842,2877.1009351859
0.198077881188813,2877.1109351859
0.302392453744277,2877.1209351859
0.39538637934825,2877.1309351859
0.471306426172161,2877.1409351859
0.527373745155913,2877.1509351859
0.562693449257778,2877.1609351859
0.57966026390339,2877.1709351859
0.582035634743946,2877.1809351859
0.573535800733733,2877.1909351859
0.556961094747469,2877.2009351859
0.535729178689448,2877.2109351859
0.511850120335882,2877.2209351859
0.487458326909456,2877.2309351859
0.463799151303546,2877.2409351859
0.441675733516259,2877.2509351859
0.421250720564223,2877.2609351859
0.402172700431984,2877.2709351859
0.383556575182502,2877.2809351859
0.364273828482371,2877.2909351859
0.343240353906064,2877.3009351859
0.319209977912376,2877.3109351859
0.291312946941426,2877.3209351859
0.260188547255533,2877.3309351859
0.225094129816949,2877.3409351859
0.187494564919159,2877.3509351859
0.14819582292726,2877.3609351859
0.109847329044696,2877.3709351859
0.0745122245661501,2877.3809351859
0.0427617439437431,2877.3909351859
0.0165677355526483,2877.4009351859
-0.00367845250164868,2877.4109351859
-0.0186735247456791,2877.4209351859
-0.0290377526754208,2877.4309351859
-0.0356471388003993,2877.4409351859
-0.0402033817170845,2877.4509351859
-0.0438320006524221,2877.4609351859
-0.0473401018501894,2877.4709351859
-0.0515840572316986,2877.4809351859
-0.0574574029119876,2877.4909351859
-0.0643640001772224,2877.5009351859
-0.0725311995765381,2877.5109351859
-0.0823098826650209,2877.5209351859
-0.0933298953113202,2877.5309351859
-0.106290309317121,2877.5409351859
-0.12066288888275,2877.5509351859
-0.13674111858865,2877.5609351859
-0.154219848874467,2877.5709351859
-0.172552736208869,2877.5809351859
-0.191337452578901,2877.5909351859
-0.210261441118862,2877.6009351859
-0.229707852497556,2877.6109351859
-0.249926714683651,2877.6209351859
-0.269892769652234,2877.6309351859
-0.29001619348449,2877.6409351859
-0.309813989639585,2877.6509351859
-0.328792522478986,2877.6609351859
-0.346784283556023,2877.6709351859
-0.363875662599033,2877.6809351859
-0.380042724354976,2877.6909351859
-0.395071687860332,2877.7009351859
-0.409494668297363,2877.7109351859
-0.423634660005448,2877.7209351859
-0.437238712190691,2877.7309351859
-0.450459132124965,2877.7409351859
-0.463275826724672,2877.7509351859
-0.475415864560552,2877.7609351859
-0.486598282851196,2877.7709351859
-0.497869927111244,2877.7809351859
-0.508621889623653,2877.7909351859
-0.518971629929928,2877.8009351859
-0.529266197769856,2877.8109351859
-0.539073449210066,2877.8209351859
-0.548092009277901,2877.8309351859
-0.556584462634769,2877.8409351859
-0.564912196301786,2877.8509351859
-0.573415454051445,2877.8609351859
-0.581830633290742,2877.8709351859
-0.59021758539477,2877.8809351859
-0.597961522372076,2877.8909351859
-0.605788692544785,2877.9009351859
-0.61367076883739,2877.9109351859
-0.622438548810289,2877.9209351859
-0.631391012599994,2877.9309351859
-0.641092693896982,2877.9409351859
-0.651473539588973,2877.9509351859
-0.662640559325314,2877.9609351859
-0.674547108464121,2877.9709351859
-0.684682800986994,2877.9809351859
-0.690245584260808,2877.9909351859
-0.686928641280255,2878.0009351859
-0.668957377106538,2878.0109351859
-0.631244375800026,2878.0209351859
-0.57108806254785,2878.0309351859
-0.489188841325401,2878.0409351859
-0.389545195957159,2878.0509351859
-0.27891159705531,2878.0609351859
-0.1659780145616,2878.0709351859
-0.0582861254776765,2878.0809351859
0.0356950791478862,2878.0909351859
0.111435974463275,2878.1009351859
0.165975629985921,2878.1109351859
0.199776476604004,2878.1209351859
0.216198592094935,2878.1309351859
0.218249572678123,2878.1409351859
0.209679340730363,2878.1509351859
0.193083753761041,2878.1609351859
0.171271144534051,2878.1709351859
0.146246611268859,2878.1809351859
0.121078409339292,2878.1909351859
0.0965134179914986,2878.2009351859
0.0742549317861024,2878.2109351859
0.0543332462071617,2878.2209351859
0.0367069201439194,2878.2309351859
0.0213324108622829,2878.2409351859
0.00666437190146633,2878.2509351859
-0.00798079441412016,2878.2609351859
-0.0247000339061362,2878.2709351859
-0.0446993804259459,2878.2809351859
-0.0674813454915362,2878.2909351859
-0.0931903687483263,2878.3009351859
-0.119233983755028,2878.3109351859
-0.14386084117579,2878.3209351859
-0.165153416375627,2878.3309351859
-0.18190385337157,2878.3409351859
-0.193601334405278,2878.3509351859
-0.200269998628512,2878.3609351859
-0.202123945870837,2878.3709351859
-0.200048069592124,2878.3809351859
-0.195928961575741,2878.3909351859
-0.190337619050761,2878.4009351859
-0.184975582886148,2878.4109351859
-0.180884481255831,2878.4209351859
-0.178408330165222,2878.4309351859
-0.178214976364652,2878.4409351859
-0.180209952566721,2878.4509351859
-0.184960236514118,2878.4609351859
-0.192301660524028,2878.4709351859
-0.201918397341284,2878.4809351859
-0.21350497219279,2878.4909351859
-0.227137451017911,2878.5009351859
-0.242083930921518,2878.5109351859
-0.258078868647565,2878.5209351859
-0.275085269769927,2878.5309351859
-0.292467039234497,2878.5409351859
-0.311190541755823,2878.5509351859
-0.330078653485976,2878.5609351859
-0.349279127940504,2878.5709351859
-0.368695149759757,2878.5809351859
-0.387629509593757,2878.5909351859
-0.406595751173485,2878.6009351859
-0.424554092069837,2878.6109351859
-0.441920700665518,2878.6209351859
-0.458859522512439,2878.6309351859
-0.474569064966829,2878.6409351859
-0.490128134794367,2878.6509351859
-0.505091655755422,2878.6609351859
-0.519941866972582,2878.6709351859
-0.534712445421095,2878.6809351859
-0.549460810470393,2878.6909351859
-0.564205656134495,2878.7009351859
-0.57806033742923,2878.7109351859
-0.591715256893872,2878.7209351859
-0.60415587682969,2878.7309351859
-0.616140143704434,2878.7409351859
-0.626747890866721,2878.7509351859
-0.636987009100518,2878.7609351859
-0.646852378919422,2878.7709351859
-0.656887774494905,2878.7809351859
-0.667018949695683,2878.7909351859
-0.677631943094846,2878.8009351859
-0.688234692486548,2878.8109351859
-0.698812368815145,2878.8209351859
-0.710161506051295,2878.8309351859
-0.721299251032528,2878.8409351859
-0.732129458114213,2878.8509351859
-0.742756642279335,2878.8609351859
-0.753549148920275,2878.8709351859
-0.764177062010048,2878.8809351859
-0.775284698774958,2878.8909351859
-0.786381354755854,2878.9009351859
-0.796604375143294,2878.9109351859
-0.805330174448854,2878.9209351859
-0.809330631918669,2878.9309351859
-0.804584242866429,2878.9409351859
-0.785574378827368,2878.9509351859
-0.747790429988898,2878.9609351859
-0.68847211669381,2878.9709351859
-0.608716959230426,2878.9809351859
-0.513292292236844,2878.9909351859
-0.40867543920403,2879.0009351859
-0.302334775695401,2879.0109351859
-0.202402643765974,2879.0209351859
-0.113757981641998,2879.0309351859
-0.0401340284094093,2879.0409351859
0.0154851621189945,2879.0509351859
0.0525882905468198,2879.0609351859
0.0713357436988616,2879.0709351859
0.0744194505888976,2879.0809351859
0.0661343568170691,2879.0909351859
0.0492908519068092,2879.1009351859
0.0286477002472063,2879.1109351859
0.00671678314243587,2879.1209351859
-0.0152282229913664,2879.1309351859
-0.0362050288458548,2879.1409351859
-0.0558579569723551,2879.1509351859
-0.0746205579846188,2879.1609351859
-0.0930082042879353,2879.1709351859
-0.11165273116346,2879.1809351859
-0.131625453232661,2879.1909351859
-0.152173792175066,2879.2009351859
-0.174912148533778,2879.2109351859
-0.19864402495064,2879.2209351859
-0.222632208477837,2879.2309351859
-0.246232290047884,2879.2409351859
-0.267244728000559,2879.2509351859
-0.284919042974679,2879.2609351859
-0.29800885572868,2879.2709351859
-0.305290940373051,2879.2809351859
-0.307611252133565,2879.2909351859
-0.304901361419038,2879.3009351859
-0.298291035643598,2879.3109351859
-0.288585779751336,2879.3209351859
-0.276770460139468,2879.3309351859
-0.264804700456733,2879.3409351859
-0.253638476885395,2879.3509351859
-0.244453397127088,2879.3609351859
-0.237137677928079,2879.3709351859
-0.232833018682132,2879.3809351859
-0.231204371338968,2879.3909351859
-0.23217792235804,2879.4009351859
-0.236202082403788,2879.4109351859
-0.242986690498722,2879.4209351859
-0.252307552642141,2879.4309351859
-0.263631935208572,2879.4409351859
-0.277056491285935,2879.4509351859
-0.291882570842282,2879.4609351859
-0.307714635587315,2879.4709351859
-0.324551199048815,2879.4809351859
-0.341668916471968,2879.4909351859
-0.359021521039058,2879.5009351859
-0.376891496879976,2879.5109351859
-0.394544763773359,2879.5209351859
-0.411897668221258,2879.5309351859
-0.428238775204036,2879.5409351859
-0.44396196508849,2879.5509351859
-0.458824072174302,2879.5609351859
-0.473477765525809,2879.5709351859
-0.487175408105763,2879.5809351859
-0.500351728481536,2879.5909351859
-0.513331990196883,2879.6009351859
-0.525409561215329,2879.6109351859
-0.536354103104307,2879.6209351859
-0.546507048325975,2879.6309351859
-0.554563961498089,2879.6409351859
-0.562090309077219,2879.6509351859
-0.569032293651472,2879.6609351859
-0.575720348979332,2879.6709351859
-0.582673200210362,2879.6809351859
-0.59016973914929,2879.6909351859
-0.598372207331786,2879.7009351859
-0.606787655181941,2879.7109351859
-0.615452975491965,2879.7209351859
-0.623928556408697,2879.7309351859
-0.63174778378603,2879.7409351859
-0.639444728996934,2879.7509351859
-0.647435349590299,2879.7609351859
-0.655702991633695,2879.7709351859
-0.664200892910401,2879.7809351859
-0.672120590810354,2879.7909351859
-0.677905441964152,2879.8009351859
-0.678279104218376,2879.8109351859
-0.668216105390583,2879.8209351859
-0.642328410790355,2879.8309351859
-0.596596060372059,2879.8409351859
-0.529319901250332,2879.8509351859
-0.442735114142814,2879.8609351859
-0.342467900219229,2879.8709351859
-0.2364817704661,2879.8809351859
-0.132382581576912,2879.8909351859
-0.0368331741231796,2879.9009351859
0.0452685994739352,2879.9109351859
0.111544214678846,2879.9209351859
0.161113113363117,2879.9309351859
0.193137896495907,2879.9409351859
0.209471373554118,2879.9509351859
0.212596570073779,2879.9609351859
0.206625795787543,2879.9709351859
0.19511363548557,2879.9809351859
0.180918913927872,2879.9909351859
0.165636074403194,2880.0009351859
0.150177874044317,2880.0109351859
0.134501786394364,2880.0209351859
0.118787919106641,2880.0309351859
0.104506076664092,2880.0409351859
0.0898961370821993,2880.0509351859
0.0756440435253235,2880.0609351859
0.0606639769555887,2880.0709351859
0.0436579151610203,2880.0809351859
0.024962615063222,2880.0909351859
0.00427115046256283,2880.1009351859
-0.0172894078565991,2880.1109351859
-0.0389279584858869,2880.1209351859
-0.0588751592559354,2880.1309351859
-0.0761329434429372,2880.1409351859
-0.090141151592184,2880.1509351859
-0.0998361663736919,2880.1609351859
-0.104589453351797,2880.1709351859
-0.104998950456179,2880.1809351859
-0.101073572537663,2880.1909351859
-0.0941577434405243,2880.2009351859
-0.0854465580850525,2880.2109351859
-0.0759015135067597,2880.2209351859
-0.0674952897124708,2880.2309351859
-0.0603403112026242,2880.2409351859
-0.0553323976031202,2880.2509351859
-0.0527310307139579,2880.2609351859
-0.0528958346906645,2880.2709351859
-0.055600062690479,2880.2809351859
-0.0610319198086138,2880.2909351859
-0.0691056820577908,2880.3009351859
-0.0796537011491724,2880.3109351859
-0.0924952560786266,2880.3209351859
-0.106961511564448,2880.3309351859
-0.122589995424465,2880.3409351859
-0.139064450086524,2880.3509351859
-0.155512179245922,2880.3609351859
-0.172168337397462,2880.3709351859
-0.188160713376453,2880.3809351859
-0.204052553316023,2880.3909351859
-0.21947138438379,2880.4009351859
-0.234948763105903,2880.4109351859
-0.250044943712898,2880.4209351859
-0.265312522282642,2880.4309351859
-0.280268576846843,2880.4409351859
-0.295142458279829,2880.4509351859
-0.309214995867685,2880.4609351859
-0.322316486661763,2880.4709351859
-0.334345144922568,2880.4809351859
-0.345564386821164,2880.4909351859
-0.355573112357453,2880.5009351859
-0.364752847862969,2880.5109351859
-0.373885143425073,2880.5209351859
-0.382670445779325,2880.5309351859
-0.391334112767838,2880.5409351859
-0.399878428504051,2880.5509351859
-0.408371582816632,2880.5609351859
-0.416801853704397,2880.5709351859
-0.425436951050587,2880.5809351859
-0.434338114043906,2880.5909351859
-0.442969133428809,2880.6009351859
-0.451983193726872,2880.6109351859
-0.460776168917074,2880.6209351859
-0.469376260183522,2880.6309351859
-0.477323871923022,2880.6409351859
-0.485555171018788,2880.6509351859
-0.493988479065674,2880.6609351859
-0.502056088392105,2880.6709351859
-0.510248238219747,2880.6809351859
-0.517711191605176,2880.6909351859
-0.52407476878102,2880.7009351859
-0.526389625067254,2880.7109351859
-0.520548273112298,2880.7209351859
-0.500408472723954,2880.7309351859
-0.460979929489888,2880.7409351859
-0.399044892265189,2880.7509351859
-0.315690835109143,2880.7609351859
-0.215309353838471,2880.7709351859
-0.105210141414968,2880.7809351859
0.00602240548559489,2880.7909351859
0.110371240941274,2880.8009351859
0.202536480898087,2880.8109351859
0.27828520359129,2880.8209351859
0.335650708531748,2880.8309351859
0.373884071757031,2880.8409351859
0.394635367139047,2880.8509351859
0.400881676420002,2880.8609351859
0.397891646471488,2880.8709351859
0.389484230254056,2880.8809351859
0.378430039051029,2880.8909351859
0.366907754736436,2880.9009351859
0.354642888086662,2880.9109351859
0.342247492212937,2880.9209351859
0.329521135196942,2880.9309351859
0.316871509827134,2880.9409351859
0.304395395085581,2880.9509351859
0.29216436202103,2880.9609351859
0.28021266842758,2880.9709351859
0.267064780644685,2880.9809351859
0.25191373962296,2880.9909351859
0.233612532447583,2881.0009351859
0.213244842901116,2881.0109351859
0.190736193129466,2881.0209351859
0.168091131652452,2881.0309351859
0.14742794749241,2881.0409351859
0.12944932971178,2881.0509351859
0.11548424940323,2881.0609351859
0.106362281559688,2881.0709351859
0.100926828338093,2881.0809351859
0.0995735763196641,2881.0909351859
0.10134890038571,2881.1009351859
0.10560946339497,2881.1109351859
0.110860508995388,2881.1209351859
0.116729909504831,2881.1309351859
0.121957478621297,2881.1409351859
0.125488444885338,2881.1509351859
0.127038762210526,2881.1609351859
0.125873238313565,2881.1709351859
0.12188734656849,2881.1809351859
0.115192928099351,2881.1909351859
0.106514554249684,2881.2009351859
0.0958905073903737,2881.2109351859
0.083579168725803,2881.2209351859
0.0694528111813672,2881.2309351859
0.0539221382150055,2881.2409351859
0.0376292071027349,2881.2509351859
0.0212177760669403,2881.2609351859
0.00394006178447904,2881.2709351859
-0.0131752977483925,2881.2809351859
-0.030343439419078,2881.2909351859
-0.0478324731202047,2881.3009351859
-0.0648949761519976,2881.3109351859
-0.0819721567709502,2881.3209351859
-0.0989139079967955,2881.3309351859
-0.115458052159383,2881.3409351859
-0.131241559987057,2881.3509351859
-0.14577950351028,2881.3609351859
-0.159688988884421,2881.3709351859
-0.173354559951646,2881.3809351859
-0.186527363093141,2881.3909351859
-0.199265255418994,2881.4009351859
-0.211828108283901,2881.4109351859
-0.223787724781515,2881.4209351859
-0.235750780228492,2881.4309351859
-0.247452629361162,2881.4409351859
-0.258703681444416,2881.4509351859
-0.269551474412012,2881.4609351859
-0.279547144077962,2881.4709351859
-0.289421969749305,2881.4809351859
-0.298729446707517,2881.4909351859
-0.308389405252134,2881.5009351859
-0.317059844319545,2881.5109351859
-0.325374320295659,2881.5209351859
-0.333867914676135,2881.5309351859
-0.342181550316571,2881.5409351859
-0.351617985533674,2881.5509351859
-0.361595904314283,2881.5609351859
-0.371567044353272,2881.5709351859
-0.381226723190807,2881.5809351859
-0.390522052430282,2881.5909351859
-0.398588897313684,2881.6009351859
-0.406504111957846,2881.6109351859
-0.414768094729648,2881.6209351859
-0.422945078043211,2881.6309351859
-0.431832707617274,2881.6409351859
-0.440535336346659,2881.6509351859
-0.448924481931683,2881.6609351859
-0.455774983245502,2881.6709351859
-0.45833499775776,2881.6809351859
-0.451813128821153,2881.6909351859
-0.430966083424615,2881.7009351859
-0.389604978710558,2881.7109351859
-0.325482474197152,2881.7209351859
-0.239500497463492,2881.7309351859
-0.136762668035384,2881.7409351859
-0.0252254277803684,2881.7509351859
0.085607634126582,2881.7609351859
0.187495999355014,2881.7709351859
0.27471023836378,2881.7809351859
0.343790942746339,2881.7909351859
0.394541243672011,2881.8009351859
0.427760918603715,2881.8109351859
0.445395421955661,2881.8209351859
0.449651903205317,2881.8309351859
0.442906744081167,2881.8409351859
0.428743099274653,2881.8509351859
0.411346371927373,2881.8609351859
0.39270705630599,2881.8709351859
0.375230986787876,2881.8809351859
0.360588078981396,2881.8909351859
0.349021400608174,2881.9009351859
0.339799465223148,2881.9109351859
0.332290096322552,2881.9209351859
0.325076478623216,2881.9309351859
0.317214854005865,2881.9409351859
0.306859688737904,2881.9509351859
0.293975043273745,2881.9609351859
0.277822037816125,2881.9709351859
0.258852599223619,2881.9809351859
0.238361414733448,2881.9909351859
0.217976203478998,2882.0009351859
0.199858724598917,2882.0109351859
0.185040879874396,2882.0209351859
0.174478596713822,2882.0309351859
0.167748068571691,2882.0409351859
0.165044866557823,2882.0509351859
0.165549152516538,2882.0609351859
0.168926447823099,2882.0709351859
0.173647839416937,2882.0809351859
0.178807178755859,2882.0909351859
0.183522367995339,2882.1009351859
0.186449547141189,2882.1109351859
0.18735350960838,2882.1209351859
0.18628284365256,2882.1309351859
0.182905588476718,2882.1409351859
0.177601724973417,2882.1509351859
0.170013875636804,2882.1609351859
0.160675770486267,2882.1709351859
0.148873302823121,2882.1809351859
0.135490618803168,2882.1909351859
0.12052194854019,2882.2009351859
0.104542176349241,2882.2109351859
0.0875300570091284,2882.2209351859
0.0697488611893952,2882.2309351859
0.0511162247778128,2882.2409351859
0.0324164824914197,2882.2509351859
0.0136208176626545,2882.2609351859
-0.00467093926955707,2882.2709351859
-0.0227297184003918,2882.2809351859
-0.0410531208033232,2882.2909351859
-0.0591204138060825,2882.3009351859
-0.0767671287946866,2882.3109351859
-0.0943974750168326,2882.3209351859
-0.110353330802957,2882.3309351859
-0.125372553857286,2882.3409351859
-0.139595526958957,2882.3509351859
-0.152743344278286,2882.3609351859
-0.165730666162718,2882.3709351859
-0.178121627200942,2882.3809351859
-0.190722892400183,2882.3909351859
-0.202626056903065,2882.4009351859
-0.214213169597762,2882.4109351859
-0.224990532946688,2882.4209351859
-0.23555350821007,2882.4309351859
-0.245561097292199,2882.4409351859
-0.255501317492615,2882.4509351859
-0.265900748122998,2882.4609351859
-0.276211136785004,2882.4709351859
-0.286180584465229,2882.4809351859
-0.294412731794694,2882.4909351859
-0.301562833845855,2882.5009351859
-0.307362783119938,2882.5109351859
-0.311715433879096,2882.5209351859
-0.315226043306131,2882.5309351859
-0.318430058069393,2882.5409351859
-0.321857522044929,2882.5509351859
-0.324787603263499,2882.5609351859
-0.328140559394662,2882.5709351859
-0.331393049473167,2882.5809351859
-0.335321417819238,2882.5909351859
-0.340045092111792,2882.6009351859
-0.344728745334317,2882.6109351859
-0.34912632845537,2882.6209351859
-0.350546542555987,2882.6309351859
-0.345346486193943,2882.6409351859
-0.32813150168122,2882.6509351859
-0.294704172540989,2882.6609351859
-0.240043228147709,2882.6709351859
-0.165117699414525,2882.6809351859
-0.0730206762622995,2882.6909351859
0.0298305248732999,2882.7009351859
0.134571837060689,2882.7109351859
0.23379639860609,2882.7209351859
0.32012441655181,2882.7309351859
0.389633240974443,2882.7409351859
0.440918992109819,2882.7509351859
0.474994841230038,2882.7609351859
0.493154633088817,2882.7709351859
0.498604237224389,2882.7809351859
0.492774274469854,2882.7909351859
0.478604495168118,2882.8009351859
0.458742936447122,2882.8109351859
0.435726658182959,2882.8209351859
0.411504456521159,2882.8309351859
0.388437514940605,2882.8409351859
0.367618921666882,2882.8509351859
0.34958666272067,2882.8609351859
0.334729331212209,2882.8709351859
0.32182623977809,2882.8809351859
0.30934414245104,2882.8909351859
0.296207721343034,2882.9009351859
0.280764516220663,2882.9109351859
0.262568831506736,2882.9209351859
0.241835240350656,2882.9309351859
0.21949662647706,2882.9409351859
0.198036825274271,2882.9509351859
0.179094204739136,2882.9609351859
0.163939274826574,2882.9709351859
0.154043717768871,2882.9809351859
0.148796537446203,2882.9909351859
0.148595404371819,2883.0009351859
0.151891932656149,2883.0109351859
0.158416725167258,2883.0209351859
0.166555396809474,2883.0309351859
0.175188265871311,2883.0409351859
0.183662828576012,2883.0509351859
0.190597943775971,2883.0609351859
0.19584368296157,2883.0709351859
0.197975859998689,2883.0809351859
0.19772681991266,2883.0909351859
0.194537433939247,2883.1009351859
0.189165090170301,2883.1109351859
0.182399523401754,2883.1209351859
0.173167022836193,2883.1309351859
0.162647900900853,2883.1409351859
0.150048756571928,2883.1509351859
0.136254625111853,2883.1609351859
0.121044269524173,2883.1709351859
0.104828928662431,2883.1809351859
0.0878973848284083,2883.1909351859
0.0706008779361994,2883.2009351859
0.0535696417286577,2883.2109351859
0.0364666700650331,2883.2209351859
0.0194699432184902,2883.2309351859
0.00296463962882269,2883.2409351859
-0.0124718680380633,2883.2509351859
-0.027934204189659,2883.2609351859
-0.0431039816141596,2883.2709351859
-0.0581206813625998,2883.2809351859
-0.0720928925545842,2883.2909351859
-0.0853852424281989,2883.3009351859
-0.0979153326380416,2883.3109351859
-0.109811899223754,2883.3209351859
-0.120538101682599,2883.3309351859
-0.130658332565222,2883.3409351859
-0.140671915710979,2883.3509351859
-0.150562857982559,2883.3609351859
-0.160791882480947,2883.3709351859
-0.170483338349085,2883.3809351859
-0.180513030109605,2883.3909351859
-0.190442213124701,2883.4009351859
-0.199787088275619,2883.4109351859
-0.209387374171218,2883.4209351859
-0.218950339469353,2883.4309351859
-0.228163538540949,2883.4409351859
-0.236916181168861,2883.4509351859
-0.245403075969551,2883.4609351859
-0.253802255848954,2883.4709351859
-0.262290115661297,2883.4809351859
-0.270786162271915,2883.4909351859
-0.280081747217848,2883.5009351859
-0.288752364232385,2883.5109351859
-0.296340311555386,2883.5209351859
-0.30076746154671,2883.5309351859
-0.298004725482153,2883.5409351859
-0.2831028815274,2883.5509351859
-0.250277189650457,2883.5609351859
-0.196459912021974,2883.5709351859
-0.121532793767101,2883.5809351859
-0.0295923290656656,2883.5909351859
0.0731624513252541,2883.6009351859
0.177703282619749,2883.6109351859
0.274763536034692,2883.6209351859
0.357998328847544,2883.6309351859
0.423076353754623,2883.6409351859
0.469086422058007,2883.6509351859
0.497256271045799,2883.6609351859
0.510292186197596,2883.6709351859
0.511672627269134,2883.6809351859
0.504060242716,2883.6909351859
0.490474488725678,2883.7009351859
0.472726682280282,2883.7109351859
0.452375927525324,2883.7209351859
0.430221388141949,2883.7309351859
0.407721319997835,2883.7409351859
0.38593203497551,2883.7509351859
0.36501862608815,2883.7609351859
0.345416559694313,2883.7709351859
0.326883703248402,2883.7809351859
0.308768751156484,2883.7909351859
0.290460482558509,2883.8009351859
0.271381754156383,2883.8109351859
0.251371002070263,2883.8209351859
0.230535277203035,2883.8309351859
0.210304710928881,2883.8409351859
0.192601434536424,2883.8509351859
0.178079029519747,2883.8609351859
0.168359569910797,2883.8709351859
0.163520254228824,2883.8809351859
0.163589298220444,2883.8909351859
0.168453921730484,2883.9009351859
0.176583079766373,2883.9109351859
0.186822001626849,2883.9209351859
0.198249464351094,2883.9309351859
0.209231349039985,2883.9409351859
0.218747021167912,2883.9509351859
0.225814429333322,2883.9609351859
0.230225937250539,2883.9709351859
0.231767713376062,2883.9809351859
0.231268843032157,2883.9909351859
0.228139342593524,2884.0009351859
0.222794807990789,2884.0109351859
0.214996880082208,2884.0209351859
0.205184490180579,2884.0309351859
0.193081907616479,2884.0409351859
0.17982441170981,2884.0509351859
0.165469731916862,2884.0609351859
0.150734098649439,2884.0709351859
0.13600871252941,2884.0809351859
0.121015960776315,2884.0909351859
0.106041257788389,2884.1009351859
0.0910210060239174,2884.1109351859
0.07641054109154,2884.1209351859
0.0618268511414691,2884.1309351859
0.0471665222766479,2884.1409351859
0.0325259103907071,2884.1509351859
0.0182843328154084,2884.1609351859
0.00448235032285544,2884.1709351859
-0.00850223604121468,2884.1809351859
-0.0212430053083061,2884.1909351859
-0.0328328881025432,2884.2009351859
-0.0437508177198492,2884.2109351859
-0.0543214554219104,2884.2209351859
-0.0646061338946555,2884.2309351859
-0.0744688703669007,2884.2409351859
-0.0844038663038,2884.2509351859
-0.0938084731576249,2884.2609351859
-0.103216844948252,2884.2709351859
-0.111856759545887,2884.2809351859
-0.1204470635671,2884.2909351859
-0.128674407894523,2884.3009351859
-0.136949879573472,2884.3109351859
-0.145196931930111,2884.3209351859
-0.153369342317117,2884.3309351859
-0.161983753402588,2884.3409351859
-0.170785772734434,2884.3509351859
-0.180131682546427,2884.3609351859
-0.189531743972866,2884.3709351859
-0.199131055846113,2884.3809351859
-0.207891676950731,2884.3909351859
-0.216407177223569,2884.4009351859
-0.223886199627493,2884.4109351859
-0.229492228319335,2884.4209351859
-0.228948085676799,2884.4309351859
-0.218112937394092,2884.4409351859
-0.190268643113453,2884.4509351859
-0.14185565276917,2884.4609351859
-0.0705223324740926,2884.4709351859
0.02086205668179,2884.4809351859
0.126159737954084,2884.4909351859
0.237073940295222,2884.5009351859
0.343814713448915,2884.5109351859
0.437444473031704,2884.5209351859
0.512603920206584,2884.5309351859
0.567912990736898,2884.5409351859
0.603516799232343,2884.5509351859
0.622585389761127,2884.5609351859
0.628935298616001,2884.5709351859
0.625785458907795,2884.5809351859
0.61640295573385,2884.5909351859
0.602679947264522,2884.6009351859
0.585774097282287,2884.6109351859
0.567364849304978,2884.6209351859
0.548204465343675,2884.6309351859
0.529504446113477,2884.6409351859
0.512245358086993,2884.6509351859
0.497229707636425,2884.6609351859
0.484410270374937,2884.6709351859
0.473319617294948,2884.6809351859
0.462961385170569,2884.6909351859
0.451877065673239,2884.7009351859
0.439054898508837,2884.7109351859
0.423801277025674,2884.7209351859
0.407065048333689,2884.7309351859
0.389509062083052,2884.7409351859
0.372818744268123,2884.7509351859
0.358646727009495,2884.7609351859
0.347914158220797,2884.7709351859
0.341380825049907,2884.7809351859
0.339071587848798,2884.7909351859
0.340569733285875,2884.8009351859
0.345135805612482,2884.8109351859
0.351469715814972,2884.8209351859
0.359657538634892,2884.8309351859
0.367202760869457,2884.8409351859
0.373871746518173,2884.8509351859
0.378467473334689,2884.8609351859
0.380739952568179,2884.8709351859
0.37999990874109,2884.8809351859
0.376800253153988,2884.8909351859
0.371601535725645,2884.9009351859
0.364123181045013,2884.9109351859
0.354623840135857,2884.9209351859
0.343323361899187,2884.9309351859
0.330000856537278,2884.9409351859
0.315571336142282,2884.9509351859
0.300130464857475,2884.9609351859
0.283874051315441,2884.9709351859
0.266856274794516,2884.9809351859
0.249012724734213,2884.9909351859
0.23050694593061,2885.0009351859
0.211549420764376,2885.0109351859
0.19265936512488,2885.0209351859
0.17451875206598,2885.0309351859
0.156423970025207,2885.0409351859
0.138743543665964,2885.0509351859
0.120829722064104,2885.0609351859
0.103326945328204,2885.0709351859
0.0863367607691149,2885.0809351859
0.0694065523650911,2885.0909351859
0.0534299886248916,2885.1009351859
0.0387265068767847,2885.1109351859
0.0255913882372278,2885.1209351859
0.01346832168277,2885.1309351859
0.00175698987877143,2885.1409351859
-0.00933553696575041,2885.1509351859
-0.0210482152750671,2885.1609351859
-0.0329586521519399,2885.1709351859
-0.045136947471734,2885.1809351859
-0.0572581746234645,2885.1909351859
-0.0683451331053765,2885.2009351859
-0.0790691415439269,2885.2109351859
-0.0889385005841066,2885.2209351859
-0.0970031659183764,2885.2309351859
-0.105437727762184,2885.2409351859
-0.113165108829934,2885.2509351859
-0.121530691003246,2885.2609351859
-0.13014203357141,2885.2709351859
-0.13928783361788,2885.2809351859
-0.148711531648731,2885.2909351859
-0.157474898008344,2885.3009351859
-0.166899954984172,2885.3109351859
-0.175168892183552,2885.3209351859
-0.183422466909998,2885.3309351859
-0.190423595914356,2885.3409351859
-0.194965008049375,2885.3509351859
-0.195197022276458,2885.3609351859
-0.187112832018187,2885.3709351859
-0.165182036511739,2885.3809351859
-0.12485366670823,2885.3909351859
-0.0626603486920901,2885.4009351859
0.0209768801256977,2885.4109351859
0.121762372062875,2885.4209351859
0.23294828177378,2885.4309351859
0.345392496625062,2885.4409351859
0.450206668236161,2885.4509351859
0.539682512398598,2885.4609351859
0.610617603100516,2885.4709351859
0.661405248816295,2885.4809351859
0.692921448050086,2885.4909351859
0.707750671493089,2885.5009351859
0.709503805704043,2885.5109351859
0.701164683553658,2885.5209351859
0.68641890871586,2885.5309351859
0.666759070443911,2885.5409351859
0.644397118805194,2885.5509351859
0.620655142539688,2885.5609351859
0.598081748190715,2885.5709351859
0.577682613577306,2885.5809351859
0.560723769406198,2885.5909351859
0.547391468499998,2885.6009351859
0.536657194221641,2885.6109351859
0.527105900965426,2885.6209351859
0.516859773375223,2885.6309351859
0.505070656729393,2885.6409351859
0.490449345742843,2885.6509351859
0.474213431934537,2885.6609351859
0.457071866889376,2885.6709351859
0.439639372503148,2885.6809351859
0.424957978959797,2885.6909351859
0.412898778927326,2885.7009351859
0.405132013962233,2885.7109351859
0.401408505292027,2885.7209351859
0.400932808988456,2885.7309351859
0.403753546969118,2885.7409351859
0.409277766643834,2885.7509351859
0.416852464776928,2885.7609351859
0.424898558507769,2885.7709351859
0.431822818754834,2885.7809351859
0.437485292444777,2885.7909351859
0.440898131576469,2885.8009351859
0.441381839829578,2885.8109351859
0.439115258879352,2885.8209351859
0.434406831435352,2885.8309351859
0.42698720323773,2885.8409351859
0.417343784357163,2885.8509351859
0.405333121103342,2885.8609351859
0.391312496061899,2885.8709351859
0.3762096766335,2885.8809351859
0.359406807238073,2885.8909351859
0.342214659700545,2885.9009351859
0.323757246850003,2885.9109351859
0.304675526161953,2885.9209351859
0.285664816554478,2885.9309351859
0.266106089322533,2885.9409351859
0.246141854224788,2885.9509351859
0.225898967834571,2885.9609351859
0.206188005707782,2885.9709351859
0.187064436675138,2885.9809351859
0.168617028166778,2885.9909351859
0.151121815763016,2886.0009351859
0.133989783971514,2886.0109351859
0.117761340305773,2886.0209351859
0.102292618527785,2886.0309351859
0.0870351507098401,2886.0409351859
0.072754153279264,2886.0509351859
0.0590302938417683,2886.0609351859
0.046136823167481,2886.0709351859
0.0338719737524777,2886.0809351859
0.0225143210441771,2886.0909351859
0.0118568124651099,2886.1009351859
0.00152920905292561,2886.1109351859
-0.00853161955965552,2886.1209351859
-0.0192068249381756,2886.1309351859
-0.0290737205126842,2886.1409351859
-0.03904703373773,2886.1509351859
-0.0487273958898976,2886.1609351859
-0.0580282587606298,2886.1709351859
-0.0668818369439346,2886.1809351859
-0.0753684410294072,2886.1909351859
-0.0839252459804059,2886.2009351859
-0.0917935010010745,2886.2109351859
-0.100080157183522,2886.2209351859
-0.108487273376998,2886.2309351859
-0.117530587784826,2886.2409351859
-0.127220815433693,2886.2509351859
-0.135855452079892,2886.2609351859
-0.140923617367634,2886.2709351859
-0.136742091073995,2886.2809351859
-0.117761098994487,2886.2909351859
-0.0777168500665822,2886.3009351859
-0.0147210430507962,2886.3109351859
0.0697313046963666,2886.3209351859
0.170780036310176,2886.3309351859
0.280032518260863,2886.3409351859
0.388163419448949,2886.3509351859
0.486621128705975,2886.3609351859
0.567976756157616,2886.3709351859
0.629402020213474,2886.3809351859
0.670631838179115,2886.3909351859
0.69353064186644,2886.4009351859
0.701015986214883,2886.4109351859
0.696152515480249,2886.4209351859
0.680673564616863,2886.4309351859
0.658234943535119,2886.4409351859
0.630507974752473,2886.4509351859
0.599545553644381,2886.4609351859
0.56712796614141,2886.4709351859
0.535400452860006,2886.4809351859
0.506226325566479,2886.4909351859
0.480534671923291,2886.5009351859
0.458128250213851,2886.5109351859
0.438067837301642,2886.5209351859
0.419525225814455,2886.5309351859
0.401013300239936,2886.5409351859
0.381092049549606,2886.5509351859
0.359937369873184,2886.5609351859
0.338093618906629,2886.5709351859
0.316433216310662,2886.5809351859
0.296595298990836,2886.5909351859
0.280153017883524,2886.6009351859
0.26803042260359,2886.6109351859
0.260986431358505,2886.6209351859
0.259085818588807,2886.6309351859
0.261517263587218,2886.6409351859
0.268366624804679,2886.6509351859
0.278425898324401,2886.6609351859
0.289808890472762,2886.6709351859
0.300876018203715,2886.6809351859
0.310479272762622,2886.6909351859
0.317622565678836,2886.7009351859
0.321849271755766,2886.7109351859
0.323051008837469,2886.7209351859
0.320660425979594,2886.7309351859
0.314920637266522,2886.7409351859
0.306350665552412,2886.7509351859
0.295141480272928,2886.7609351859
0.282241157029176,2886.7709351859
0.267659072643037,2886.7809351859
0.251730371326617,2886.7909351859
0.234515835687969,2886.8009351859
0.216061337576975,2886.8109351859
0.197546143594635,2886.8209351859
0.179269027141632,2886.8309351859
0.161214014374181,2886.8409351859
0.143695989700496,2886.8509351859
0.126766355018824,2886.8609351859
0.11034452475568,2886.8709351859
0.094200150486064,2886.8809351859
0.0785810727910364,2886.8909351859
0.0639513966672022,2886.9009351859
0.0498713368390862,2886.9109351859
0.0369783673456973,2886.9209351859
0.0248400506508016,2886.9309351859
0.0135412281588357,2886.9409351859
0.00355102667885399,2886.9509351859
-0.00543726456997663,2886.9609351859
-0.0135482384979159,2886.9709351859
-0.0212879811038112,2886.9809351859
-0.0286767855656392,2886.9909351859
-0.035813599824174,2887.0009351859
-0.0429772160417502,2887.0109351859
-0.0500506750171029,2887.0209351859
-0.0571133961830347,2887.0309351859
-0.0634707032437125,2887.0409351859
-0.0696114428484384,2887.0509351859
-0.0753110459899895,2887.0609351859
-0.081583492882367,2887.0709351859
-0.0888360947725951,2887.0809351859
-0.0968293951940227,2887.0909351859
-0.10383832209608,2887.1009351859
-0.106930461172114,2887.1109351859
-0.100382606675219,2887.1209351859
-0.0777757144055987,2887.1309351859
-0.0347942796611046,2887.1409351859
0.0321028678936421,2887.1509351859
0.121552734778537,2887.1609351859
0.227614311422087,2887.1709351859
0.342371798160041,2887.1809351859
0.456079702089274,2887.1909351859
0.559690083639534,2887.2009351859
0.646513990587581,2887.2109351859
0.713320729387476,2887.2209351859
0.759983519721552,2887.2309351859
0.788079678168285,2887.2409351859
0.799524859601117,2887.2509351859
0.797568404859107,2887.2609351859
0.784915942491336,2887.2709351859
0.764905545883,2887.2809351859
0.741030154721095,2887.2909351859
0.716013918055935,2887.3009351859
0.693304725746383,2887.3109351859
0.674281699089115,2887.3209351859
0.659429231201087,2887.3309351859
0.647575526598776,2887.3409351859
0.637217416585913,2887.3509351859
0.627065910040465,2887.3609351859
0.615237859941945,2887.3709351859
0.60144866076536,2887.3809351859
0.584609166673749,2887.3909351859
0.565534285492031,2887.4009351859
0.545206741766987,2887.4109351859
0.524770650512736,2887.4209351859
0.505530102117726,2887.4309351859
0.488588877757169,2887.4409351859
0.475731477100909,2887.4509351859
0.467037658920712,2887.4609351859
0.463209537012904,2887.4709351859
0.464440852034512,2887.4809351859
0.469387983723023,2887.4909351859
0.477653441894194,2887.5009351859
0.487588745167856,2887.5109351859
0.498915496497337,2887.5209351859
0.50944088812673,2887.5309351859
0.518378851589966,2887.5409351859
0.524042075896514,2887.5509351859
0.526666009382927,2887.5609351859
0.525520687307031,2887.5709351859
0.520660444816449,2887.5809351859
0.513072993330715,2887.5909351859
0.502114343677126,2887.6009351859
0.489267234853975,2887.6109351859
0.474388572059135,2887.6209351859
0.457889355854897,2887.6309351859
0.44112036153178,2887.6409351859
0.423494350427093,2887.6509351859
0.405769988050277,2887.6609351859
0.388660005070647,2887.6709351859
0.372323701886359,2887.6809351859
0.357413950502039,2887.6909351859
0.342531774921339,2887.7009351859
0.328491292595497,2887.7109351859
0.314759600693757,2887.7209351859
0.301032010854492,2887.7309351859
0.287488613209852,2887.7409351859
0.274429448150186,2887.7509351859
0.261828413565458,2887.7609351859
0.249966956182577,2887.7709351859
0.23874012829469,2887.7809351859
0.228294691926134,2887.7909351859
0.217903986181962,2887.8009351859
0.208306823610087,2887.8109351859
0.198898625435529,2887.8209351859
0.190524490120689,2887.8309351859
0.181804261812456,2887.8409351859
0.173335616274866,2887.8509351859
0.164730802511049,2887.8609351859
0.155997218824967,2887.8709351859
0.146877241225685,2887.8809351859
0.138086246371172,2887.8909351859
0.128710810235501,2887.9009351859
0.118627056099387,2887.9109351859
0.108641028901772,2887.9209351859
0.0995993741366845,2887.9309351859
0.0940564863089307,2887.9409351859
0.0975237544519911,2887.9509351859
0.115143114453691,2887.9609351859
0.152989871966458,2887.9709351859
0.214652421440664,2887.9809351859
0.298894135227079,2887.9909351859
0.401148252218567,2888.0009351859
0.51291681472781,2888.0109351859
0.624722363221678,2888.0209351859
0.727549465408787,2888.0309351859
0.81358724455284,2888.0409351859
0.87921402546386,2888.0509351859
0.922917698266145,2888.0609351859
0.946294320402925,2888.0709351859
0.952971206018136,2888.0809351859
0.947841947875416,2888.0909351859
0.934544538777195,2888.1009351859
0.916603592343068,2888.1109351859
0.896078752682365,2888.1209351859
0.875313337108375,2888.1309351859
0.854324589706902,2888.1409351859
0.833622131811376,2888.1509351859
0.814001261763414,2888.1609351859
0.795274426143727,2888.1709351859
0.777170394157174,2888.1809351859
0.758959003611995,2888.1909351859
0.739094413200203,2888.2009351859
0.716580612721037,2888.2109351859
0.691531808441816,2888.2209351859
0.664471175966966,2888.2309351859
0.636184445041238,2888.2409351859
0.608382554183852,2888.2509351859
0.583153868627768,2888.2609351859
0.56138370042297,2888.2709351859
0.543572890873221,2888.2809351859
0.530268395640453,2888.2909351859
0.520604531178492,2888.3009351859
0.514458358859768,2888.3109351859
0.511658675873486,2888.3209351859
0.510341702633151,2888.3309351859
0.510559920475172,2888.3409351859
0.510782766964864,2888.3509351859
0.51094200664786,2888.3609351859
0.509636548807867,2888.3709351859
0.507347784359191,2888.3809351859
0.502937509887219,2888.3909351859
0.496583951620589,2888.4009351859
0.487484453035372,2888.4109351859
0.476116385026683,2888.4209351859
0.462236426844148,2888.4309351859
0.446027415285006,2888.4409351859
0.427566880952527,2888.4509351859
0.4070920030616,2888.4609351859
0.384879906817312,2888.4709351859
0.36176910911285,2888.4809351859
0.337855653765118,2888.4909351859
0.313857085413526,2888.5009351859
0.290770936497185,2888.5109351859
0.267680908097264,2888.5209351859
0.2455529321545,2888.5309351859
0.224122518178789,2888.5409351859
0.2034583379307,2888.5509351859
0.183365426948592,2888.5609351859
0.164159236100221,2888.5709351859
0.146166804615295,2888.5809351859
0.128739678183545,2888.5909351859
0.112356696945066,2888.6009351859
0.0961137117433019,2888.6109351859
0.0801854252338074,2888.6209351859
0.0647403889641432,2888.6309351859
0.0488411637775262,2888.6409351859
0.0333374949316639,2888.6509351859
0.0172782520656204,2888.6609351859
0.00130669075089344,2888.6709351859
-0.0147648354052281,2888.6809351859
-0.0311482726191392,2888.6909351859
-0.0480494451586351,2888.7009351859
-0.0646899517146682,2888.7109351859
-0.0812556763639032,2888.7209351859
-0.096932966981565,2888.7309351859
-0.112088464029531,2888.7409351859
-0.126787186669452,2888.7509351859
-0.141024996245582,2888.7609351859
-0.154734162833765,2888.7709351859
-0.167492472672951,2888.7809351859
-0.180313964251606,2888.7909351859
-0.192818434788937,2888.8009351859
-0.205437444407883,2888.8109351859
-0.216685146794328,2888.8209351859
-0.225334874818137,2888.8309351859
-0.22780280942961,2888.8409351859
-0.219178350862419,2888.8509351859
-0.194334718034791,2888.8609351859
-0.150506461174315,2888.8709351859
-0.0870884917680822,2888.8809351859
-0.00773277205470104,2888.8909351859
0.0810781384469424,2888.9009351859
0.171220692103918,2888.9109351859
0.25478452955444,2888.9209351859
0.325358071727551,2888.9309351859
0.379575572126956,2888.9409351859
0.416155396813633,2888.9509351859
0.435918145728692,2888.9609351859
0.440854171290148,2888.9709351859
0.434572952562546,2888.9809351859
0.421107670460048,2888.9909351859
0.403553622572072,2889.0009351859
0.384802730862831,2889.0109351859
0.366868715484422,2889.0209351859
0.351203191330844,2889.0309351859
0.337248465811837,2889.0409351859
0.32465302884481,2889.0509351859
0.312832287236715,2889.0609351859
0.300654187036561,2889.0709351859
0.287606080816358,2889.0809351859
0.27283135244105,2889.0909351859
0.255816459544991,2889.1009351859
0.236700597812871,2889.1109351859
0.215103356380036,2889.1209351859
0.192699031428561,2889.1309351859
0.170130909164405,2889.1409351859
0.148463894539345,2889.1509351859
0.128380208371108,2889.1609351859
0.11112046590726,2889.1709351859
0.0968380626521828,2889.1809351859
0.0856282322852868,2889.1909351859
0.0779388158596198,2889.2009351859
0.0728714416195061,2889.2109351859
0.0702318075981401,2889.2209351859
0.069024808385933,2889.2309351859
0.0678706830155778,2889.2409351859
0.066144551726357,2889.2509351859
0.0635623683222334,2889.2609351859
0.0592426926678852,2889.2709351859
0.0535805773158405,2889.2809351859
0.0463454633280535,2889.2909351859
0.0377410811093373,2889.3009351859
0.0277232475750436,2889.3109351859
0.0157122557492834,2889.3209351859
0.00257872986859649,2889.3309351859
-0.012098830905954,2889.3409351859
-0.0269004847260847,2889.3509351859
-0.0423454803247905,2889.3609351859
-0.0576442252322738,2889.3709351859
-0.0732579057891206,2889.3809351859
-0.0889142833927558,2889.3909351859
-0.103929453769728,2889.4009351859
-0.118927718714363,2889.4109351859
-0.133456214207855,2889.4209351859
-0.147843848582483,2889.4309351859
-0.161325035787036,2889.4409351859
-0.174428196042669,2889.4509351859
-0.187579079618757,2889.4609351859
-0.199929375020685,2889.4709351859
-0.212975673914171,2889.4809351859
-0.226108397237056,2889.4909351859
-0.239240897823989,2889.5009351859
-0.252396190730324,2889.5109351859
-0.265972129332177,2889.5209351859
-0.279869967336023,2889.5309351859
-0.293299526179941,2889.5409351859
-0.306867993148464,2889.5509351859
-0.319545933209863,2889.5609351859
-0.33221517411303,2889.5709351859
-0.345266333099929,2889.5809351859
-0.358669232742635,2889.5909351859
-0.371743145394144,2889.6009351859
-0.385582625729,2889.6109351859
-0.399435584016984,2889.6209351859
-0.413571729902113,2889.6309351859
-0.427719278600859,2889.6409351859
-0.441451543921987,2889.6509351859
-0.454841418281347,2889.6609351859
-0.467502177642904,2889.6709351859
-0.479518847172033,2889.6809351859
-0.491465334450547,2889.6909351859
-0.503437379422781,2889.7009351859
-0.514854278564336,2889.7109351859
-0.525638523219938,2889.7209351859
-0.534472996462589,2889.7309351859
-0.539218642470036,2889.7409351859
-0.536196240239009,2889.7509351859
-0.522019358666538,2889.7609351859
-0.494331011901051,2889.7709351859
-0.451758002498949,2889.7809351859
-0.397077577881463,2889.7909351859
-0.333855250892144,2889.8009351859
-0.268582163665472,2889.8109351859
-0.207181794208442,2889.8209351859
-0.154216991220424,2889.8309351859
-0.112975672932564,2889.8409351859
-0.0833743922498692,2889.8509351859
-0.0644614363701884,2889.8609351859
-0.0548185788516508,2889.8709351859
-0.0521903124800602,2889.8809351859
-0.0550042814688661,2889.8909351859
-0.0620573415186229,2889.9009351859
-0.0730238179260498,2889.9109351859
-0.0875401068453719,2889.9209351859
-0.103692666937608,2889.9309351859
-0.121250994974586,2889.9409351859
-0.139064959651939,2889.9509351859
-0.156260732449898,2889.9609351859
-0.17287489189193,2889.9709351859
-0.188011772670317,2889.9809351859
-0.202715691991096,2889.9909351859
-0.217105062914798,2890.0009351859
-0.232421151795162,2890.0109351859
-0.248362145304466,2890.0209351859
-0.26414946899339,2890.0309351859
-0.280567190793699,2890.0409351859
-0.295916216724499,2890.0509351859
-0.30988628175769,2890.0609351859
-0.321748901657169,2890.0709351859
-0.331879067365641,2890.0809351859
-0.340128418833872,2890.0909351859
-0.346241212378307,2890.1009351859
-0.351361504727103,2890.1109351859
-0.355009568004325,2890.1209351859
-0.357421377012752,2890.1309351859
-0.35928409056858,2890.1409351859
-0.361252465333466,2890.1509351859
-0.363836955580091,2890.1609351859
-0.36730423690584,2890.1709351859
-0.37265011462527,2890.1809351859
-0.378981492007213,2890.1909351859
-0.385957356403101,2890.2009351859
-0.39428764139625,2890.2109351859
-0.402472138170201,2890.2209351859
-0.411238237687318,2890.2309351859
-0.421035657817201,2890.2409351859
-0.430680053949887,2890.2509351859
-0.440736854478648,2890.2609351859
-0.450594003059235,2890.2709351859
-0.459952183191081,2890.2809351859
-0.468966313736039,2890.2909351859
-0.478647417747517,2890.3009351859
-0.488511800172722,2890.3109351859
-0.49864624620933,2890.3209351859
-0.50942898361121,2890.3309351859
-0.520381970544649,2890.3409351859
-0.530629263544918,2890.3509351859
-0.540089447794777,2890.3609351859
-0.549195063365575,2890.3709351859
-0.557522927885162,2890.3809351859
-0.565422501970566,2890.3909351859
-0.573309403999963,2890.4009351859
-0.581296322616565,2890.4109351859
-0.59006495274713,2890.4209351859
-0.598974578776206,2890.4309351859
-0.607167637169176,2890.4409351859
-0.61563526031589,2890.4509351859
-0.623538291709483,2890.4609351859
-0.631249680436596,2890.4709351859
-0.639248395801707,2890.4809351859
-0.648087894837395,2890.4909351859
-0.656733089538787,2890.5009351859
-0.664946912592873,2890.5109351859
-0.672860416884075,2890.5209351859
-0.680018356246275,2890.5309351859
-0.686907778014445,2890.5409351859
-0.693252656892197,2890.5509351859
-0.699639590240856,2890.5609351859
-0.706085464412147,2890.5709351859
-0.712248196674701,2890.5809351859
-0.718099446907435,2890.5909351859
-0.72429629715988,2890.6009351859
-0.730002983887351,2890.6109351859
-0.735623766851757,2890.6209351859
-0.740699156733058,2890.6309351859
-0.743827044389852,2890.6409351859
-0.742377462674913,2890.6509351859
-0.734504312898019,2890.6609351859
-0.71760919652632,2890.6709351859
-0.689532703539025,2890.6809351859
-0.651832954173595,2890.6909351859
-0.606569259445984,2890.7009351859
-0.556626044536794,2890.7109351859
-0.507899123515404,2890.7209351859
-0.464794650048209,2890.7309351859
-0.430257576579309,2890.7409351859
-0.406150419666838,2890.7509351859
-0.391831558299646,2890.7609351859
-0.385449124264386,2890.7709351859
-0.38552794148134,2890.7809351859
-0.388906842957633,2890.7909351859
-0.394156817403726,2890.8009351859
-0.399469503355398,2890.8109351859
-0.403840507981762,2890.8209351859
-0.407198280101208,2890.8309351859
-0.408647659742411,2890.8409351859
-0.408055793988987,2890.8509351859
-0.405413640380458,2890.8609351859
-0.40143534059016,2890.8709351859
-0.395970674644287,2890.8809351859
-0.389653815214288,2890.8909351859
-0.384097267478162,2890.9009351859
-0.380366231079735,2890.9109351859
-0.378918999299831,2890.9209351859
-0.379735758759007,2890.9309351859
-0.38200587829606,2890.9409351859
-0.38611032840928,2890.9509351859
-0.390572598504479,2890.9609351859
-0.394707568887414,2890.9709351859
-0.397975167018528,2890.9809351859
-0.400197337433976,2890.9909351859
-0.400890919788308,2891.0009351859
-0.399960803195567,2891.0109351859
-0.397829224004788,2891.0209351859
-0.394710725332079,2891.0309351859
-0.391750958041351,2891.0409351859
-0.389159388020628,2891.0509351859
-0.387493708874186,2891.0609351859
-0.386695015119858,2891.0709351859
-0.386824315827317,2891.0809351859
-0.3875033960039,2891.0909351859
-0.389017043485868,2891.1009351859
-0.391256103087271,2891.1109351859
-0.394236015202462,2891.1209351859
-0.397409902699864,2891.1309351859
-0.401228698412337,2891.1409351859
-0.40527691388011,2891.1509351859
-0.410092807696306,2891.1609351859
-0.415495984024821,2891.1709351859
-0.420935964667773,2891.1809351859
-0.426792428402102,2891.1909351859
-0.432696302308788,2891.2009351859
-0.438112565314478,2891.2109351859
-0.442802805009913,2891.2209351859
-0.446810180055187,2891.2309351859
-0.450217871686741,2891.2409351859
-0.452715666208608,2891.2509351859
-0.454935838329174,2891.2609351859
-0.457632496751057,2891.2709351859
-0.460595653934354,2891.2809351859
-0.463905310056896,2891.2909351859
-0.467241234072585,2891.3009351859
-0.469429592064429,2891.3109351859
-0.471849329460717,2891.3209351859
-0.473704461150536,2891.3309351859
-0.476598436485711,2891.3409351859
-0.480291677143819,2891.3509351859
-0.485067699182752,2891.3609351859
-0.491794054814265,2891.3709351859
-0.500242289882067,2891.3809351859
-0.510485817514209,2891.3909351859
-0.522623073715953,2891.4009351859
-0.536087090862051,2891.4109351859
-0.550428189104905,2891.4209351859
-0.564694183337579,2891.4309351859
-0.578756508180883,2891.4409351859
-0.592436253194532,2891.4509351859
-0.60541655010732,2891.4609351859
-0.618547640053629,2891.4709351859
-0.63156140870008,2891.4809351859
-0.64424198565868,2891.4909351859
-0.6567941616954,2891.5009351859
-0.668826481430513,2891.5109351859
-0.680223679577991,2891.5209351859
-0.690380048355274,2891.5309351859
-0.697238055120356,2891.5409351859
-0.698751787985146,2891.5509351859
-0.693758902179738,2891.5609351859
-0.680960877236556,2891.5709351859
-0.660214673997932,2891.5809351859
-0.633599070428567,2891.5909351859
-0.602834239543251,2891.6009351859
-0.571116364719038,2891.6109351859
-0.541581256294817,2891.6209351859
-0.517287968883097,2891.6309351859
-0.499938166703169,2891.6409351859
-0.489140195625729,2891.6509351859
-0.484870653668148,2891.6609351859
-0.485494307589444,2891.6709351859
-0.489488350415992,2891.6809351859
-0.495237778497323,2891.6909351859
-0.501966938773394,2891.7009351859
-0.508626995988216,2891.7109351859
-0.514929744402978,2891.7209351859
-0.52101220932999,2891.7309351859
-0.526600154656906,2891.7409351859
-0.531917045872587,2891.7509351859
-0.536268063519051,2891.7609351859
-0.54063286849693,2891.7709351859
-0.544742728575828,2891.7809351859
-0.549708101492833,2891.7909351859
-0.555047134750419,2891.8009351859
-0.560771750395323,2891.8109351859
-0.567190829205986,2891.8209351859
-0.573166971612853,2891.8309351859
-0.578753635472514,2891.8409351859
-0.584100421597941,2891.8509351859
-0.588243513327135,2891.8609351859
-0.590568912369153,2891.8709351859
-0.591155837131938,2891.8809351859
-0.590246617341746,2891.8909351859
-0.588152980795187,2891.9009351859
-0.585180026024774,2891.9109351859
-0.581758713508876,2891.9209351859
-0.577876409969527,2891.9309351859
-0.574010316779056,2891.9409351859
-0.569863750192685,2891.9509351859
-0.565484140793069,2891.9609351859
-0.56034936588209,2891.9709351859
-0.554561943337872,2891.9809351859
-0.54810476427952,2891.9909351859
-0.542639576248279,2892.0009351859
-0.537980924652037,2892.0109351859
-0.534688222712199,2892.0209351859
-0.532996496929362,2892.0309351859
-0.532905445961608,2892.0409351859
-0.534286637840492,2892.0509351859
-0.53614610980455,2892.0609351859
-0.538882410267398,2892.0709351859
-0.541386333097943,2892.0809351859
-0.544321203936907,2892.0909351859
-0.54766037398022,2892.1009351859
-0.551182911266728,2892.1109351859
-0.555265338818775,2892.1209351859
-0.55875039467633,2892.1309351859
-0.561913008594282,2892.1409351859
-0.56488823012571,2892.1509351859
-0.567211198449194,2892.1609351859
-0.569007567315515,2892.1709351859
-0.570127494729219,2892.1809351859
-0.570978888311946,2892.1909351859
-0.571525884806118,2892.2009351859
-0.571995525529596,2892.2109351859
-0.572777444128501,2892.2209351859
-0.574147041177195,2892.2309351859
-0.576382702786916,2892.2409351859
-0.579162043697649,2892.2509351859
-0.58281947795951,2892.2609351859
-0.587945083805346,2892.2709351859
-0.593466896102956,2892.2809351859
-0.599698934041666,2892.2909351859
-0.607015241112752,2892.3009351859
-0.614185557167214,2892.3109351859
-0.62197235820556,2892.3209351859
-0.63004374094649,2892.3309351859
-0.638363334859789,2892.3409351859
-0.645124209598479,2892.3509351859
-0.64980319521616,2892.3609351859
-0.650828940950318,2892.3709351859
-0.64556002123147,2892.3809351859
-0.632832147894314,2892.3909351859
-0.61272906003354,2892.4009351859
-0.585862430654338,2892.4109351859
-0.554500332399953,2892.4209351859
-0.521099843768972,2892.4309351859
-0.489535123058185,2892.4409351859
-0.462923425634156,2892.4509351859
-0.442670414315745,2892.4609351859
-0.429393175118736,2892.4709351859
-0.421723039397475,2892.4809351859
-0.418488775341784,2892.4909351859
-0.417483928504055,2892.5009351859
-0.416653710388029,2892.5109351859
-0.415095050943233,2892.5209351859
-0.412426558692639,2892.5309351859
-0.408460257036833,2892.5409351859
-0.403069438874295,2892.5509351859
-0.397121559648637,2892.5609351859
-0.391015762877444,2892.5709351859
-0.385032521110365,2892.5809351859
-0.379637933355223,2892.5909351859
-0.374109887413846,2892.6009351859
-0.369868531942801,2892.6109351859
-0.366103799398834,2892.6209351859
-0.363493022476589,2892.6309351859
-0.361861462362465,2892.6409351859
-0.360842838425214,2892.6509351859
-0.359396613886103,2892.6609351859
-0.356543973748345,2892.6709351859
-0.351885855016548,2892.6809351859
-0.344665569297934,2892.6909351859
-0.335464942273984,2892.7009351859
-0.324045562390231,2892.7109351859
-0.31137271622155,2892.7209351859
-0.298483702126261,2892.7309351859
-0.286351490591093,2892.7409351859
-0.276090793175141,2892.7509351859
-0.268487269613836,2892.7609351859
-0.263894285644001,2892.7709351859
-0.261385918598083,2892.7809351859
-0.260344622783165,2892.7909351859
-0.259880579139579,2892.8009351859
-0.259577919216828,2892.8109351859
-0.25814749072417,2892.8209351859
-0.25620228474839,2892.8309351859
-0.252983372162966,2892.8409351859
-0.248435872099201,2892.8509351859
-0.242866415073276,2892.8609351859
-0.236147334598302,2892.8709351859
-0.228516207885022,2892.8809351859
-0.220251152028303,2892.8909351859
-0.211928435662592,2892.9009351859
-0.203862888317845,2892.9109351859
-0.196947668406363,2892.9209351859
-0.191223521274633,2892.9309351859
-0.186961957960157,2892.9409351859
-0.183174241790545,2892.9509351859
-0.179650436839074,2892.9609351859
-0.176349924619611,2892.9709351859
-0.172743691162752,2892.9809351859
-0.169124856296328,2892.9909351859
-0.16532630511287,2893.0009351859
-0.161116105955863,2893.0109351859
-0.157334522492403,2893.0209351859
-0.154462123253746,2893.0309351859
-0.152551780389414,2893.0409351859
-0.152116619900678,2893.0509351859
-0.153062204782522,2893.0609351859
-0.155622377056357,2893.0709351859
-0.158844547077598,2893.0809351859
-0.163617726525253,2893.0909351859
-0.169921156145643,2893.1009351859
-0.17763760188367,2893.1109351859
-0.18738128182538,2893.1209351859
-0.198366716000586,2893.1309351859
-0.209461830753514,2893.1409351859
-0.218724774609634,2893.1509351859
-0.224696055209645,2893.1609351859
-0.224966471940594,2893.1709351859
-0.218506101581594,2893.1809351859
-0.205396455075676,2893.1909351859
-0.186281569825065,2893.2009351859
-0.163318893714474,2893.2109351859
-0.139356872432862,2893.2209351859
-0.117595636085792,2893.2309351859
-0.101069634975346,2893.2409351859
-0.0900107391734103,2893.2509351859
-0.0853847821112958,2893.2609351859
-0.0854196691865678,2893.2709351859
-0.0888948715842507,2893.2809351859
-0.0929105946289453,2893.2909351859
-0.0961286018106766,2893.3009351859
-0.0974858972030671,2893.3109351859
-0.0968797438760913,2893.3209351859
-0.0945694801086328,2893.3309351859
-0.0912717284913757,2893.3409351859
-0.0870159779311282,2893.3509351859
-0.082797582740109,2893.3609351859
-0.0784940283838808,2893.3709351859
-0.0738532749611969,2893.3809351859
-0.0695742602202391,2893.3909351859
-0.0656529162287545,2893.4009351859
-0.0632409685119262,2893.4109351859
-0.0626308137774911,2893.4209351859
-0.0639489422773143,2893.4309351859
-0.0675630050914189,2893.4409351859
-0.0720240997197501,2893.4509351859
-0.0768207499037898,2893.4609351859
-0.0815804578492292,2893.4709351859
-0.0857699251826726,2893.4809351859
-0.0890844930643474,2893.4909351859
-0.0920908819821338,2893.5009351859
-0.0947287463868577,2893.5109351859
-0.0972272993382856,2893.5209351859
-0.0990775961277235,2893.5309351859
-0.100418640218559,2893.5409351859
-0.101648988011952,2893.5509351859
-0.10259292657756,2893.5609351859
-0.104744449140056,2893.5709351859
-0.107495917835727,2893.5809351859
-0.111033981792635,2893.5909351859
-0.114462437350546,2893.6009351859
-0.117894394231284,2893.6109351859
-0.122185811414757,2893.6209351859
-0.126829576553178,2893.6309351859
-0.131535533194909,2893.6409351859
-0.136773726016564,2893.6509351859
-0.141899737910498,2893.6609351859
-0.147092668108083,2893.6709351859
-0.152848017724999,2893.6809351859
-0.158885256192561,2893.6909351859
-0.165269894895956,2893.7009351859
-0.171572799640462,2893.7109351859
-0.17783044451209,2893.7209351859
-0.183143834732387,2893.7309351859
-0.18720128449686,2893.7409351859
-0.189785780419786,2893.7509351859
-0.191682257045262,2893.7609351859
-0.192521145470485,2893.7709351859
-0.193654257042669,2893.7809351859
-0.194880705242404,2893.7909351859
-0.197306403215732,2893.8009351859
-0.20066551087042,2893.8109351859
-0.204236525114416,2893.8209351859
-0.20772759873419,2893.8309351859
-0.210329048576756,2893.8409351859
-0.21204425995848,2893.8509351859
-0.213152124392406,2893.8609351859
-0.214124674612611,2893.8709351859
-0.215297571819251,2893.8809351859
-0.217490851668662,2893.8909351859
-0.220655782425404,2893.9009351859
-0.223827591452459,2893.9109351859
-0.226104662199959,2893.9209351859
-0.224851500470984,2893.9309351859
-0.217765289789009,2893.9409351859
-0.203807840303579,2893.9509351859
-0.182579534276746,2893.9609351859
-0.155549507163218,2893.9709351859
-0.124988356030645,2893.9809351859
-0.0948331210644557,2893.9909351859
-0.0681156718770114,2894.0009351859
-0.0474858869533005,2894.0109351859
-0.034732800704369,2894.0209351859
-0.0295268870262361,2894.0309351859
-0.0302970047927434,2894.0409351859
-0.0350296172536844,2894.0509351859
-0.0415968466958257,2894.0609351859
-0.0481465473649197,2894.0709351859
-0.0533639800782541,2894.0809351859
-0.0570569154906808,2894.0909351859
-0.0585605649717942,2894.1009351859
-0.059514821655932,2894.1109351859
-0.0589976175976285,2894.1209351859
-0.0581960447909386,2894.1309351859
-0.0582105865593498,2894.1409351859
-0.0586369622663369,2894.1509351859
-0.0598250299763772,2894.1609351859
-0.0615015854485286,2894.1709351859
-0.0635678727239901,2894.1809351859
-0.0662466820521502,2894.1909351859
-0.0693142073636225,2894.2009351859
-0.072343495413147,2894.2109351859
-0.0755998300394291,2894.2209351859
-0.0786591453666038,2894.2309351859
-0.0818020545081346,2894.2409351859
-0.0841462694649563,2894.2509351859
-0.0851049705923368,2894.2609351859
-0.0852791216007413,2894.2709351859
-0.0844331450441008,2894.2809351859
-0.0828398071812599,2894.2909351859
-0.0816634209516845,2894.3009351859
-0.080680957891714,2894.3109351859
-0.0799065352384427,2894.3209351859
-0.0798468819119651,2894.3309351859
-0.0803154588531856,2894.3409351859
-0.0811654603554723,2894.3509351859
-0.0825794381794538,2894.3609351859
-0.0845387776697694,2894.3709351859
-0.0862956415925349,2894.3809351859
-0.0886358308735584,2894.3909351859
-0.09125070495132,2894.4009351859
-0.093837400511617,2894.4109351859
-0.096738535445285,2894.4209351859
-0.100083309273099,2894.4309351859
-0.103745414640112,2894.4409351859
-0.108069309304746,2894.4509351859
-0.112315002166493,2894.4609351859
-0.116826394636722,2894.4709351859
-0.121826340083111,2894.4809351859
-0.12654592581453,2894.4909351859
-0.130868252015247,2894.5009351859
-0.134210989442641,2894.5109351859
-0.137218786587604,2894.5209351859
-0.140679533233629,2894.5309351859
-0.144527181334787,2894.5409351859
-0.148682850293465,2894.5509351859
-0.153970408152814,2894.5609351859
-0.159851600378467,2894.5709351859
-0.166573035742582,2894.5809351859
-0.172851910053467,2894.5909351859
-0.178548680567842,2894.6009351859
-0.183634029248459,2894.6109351859
-0.187432066428033,2894.6209351859
-0.190674373191234,2894.6309351859
-0.193856889248442,2894.6409351859
-0.197029743736078,2894.6509351859
-0.200283093151449,2894.6609351859
-0.202891725000302,2894.6709351859
-0.203953337374047,2894.6809351859
-0.202719152981552,2894.6909351859
-0.19721664466699,2894.7009351859
-0.186737220887906,2894.7109351859
-0.169733260520071,2894.7209351859
-0.14638700742449,2894.7309351859
-0.118717089766418,2894.7409351859
-0.0900444641595316,2894.7509351859
-0.0639477559301857,2894.7609351859
-0.0429917600302972,2894.7709351859
-0.0291723254114798,2894.7809351859
-0.0227461270093648,2894.7909351859
-0.0215373700965744,2894.8009351859
-0.0245500556964195,2894.8109351859
-0.0295648929454659,2894.8209351859
-0.0356699236710436,2894.8309351859
-0.040799710591606,2894.8409351859
-0.0442900997597495,2894.8509351859
-0.0465004698085583,2894.8609351859
-0.0472457690172008,2894.8709351859
-0.0476072467484791,2894.8809351859
-0.0482569345617979,2894.8909351859
-0.0495449114336878,2894.9009351859
-0.051319077235382,2894.9109351859
-0.053739482571545,2894.9209351859
-0.0570098205665166,2894.9309351859
-0.0612780486841322,2894.9409351859
-0.0659284688362516,2894.9509351859
-0.0712183660345291,2894.9609351859
-0.0766636630982077,2894.9709351859
-0.0820696939927313,2894.9809351859
-0.0868402092568477,2894.9909351859
-0.0907068306349195,2895.0009351859
-0.0935796399234776,2895.0109351859
-0.095281770974978,2895.0209351859
-0.0962725282166333,2895.0309351859
-0.0967853768344537,2895.0409351859
-0.0969876725963289,2895.0509351859
-0.0971224436245027,2895.0609351859
-0.0974466046473024,2895.0709351859
-0.0973815418272122,2895.0809351859
-0.0974224580515645,2895.0909351859
-0.0978086861451104,2895.1009351859
-0.0983017686106308,2895.1109351859
-0.0984190754751977,2895.1209351859
-0.0988762088064843,2895.1309351859
-0.0988277171757021,2895.1409351859
-0.0989026655137147,2895.1509351859
-0.0990189618797529,2895.1609351859
-0.0991879738524487,2895.1709351859
-0.099943271258841,2895.1809351859
-0.100703464540756,2895.1909351859
-0.102295467013405,2895.2009351859
-0.104988349781513,2895.2109351859
-0.108449732984535,2895.2209351859
-0.112440290519305,2895.2309351859
-0.116026948656119,2895.2409351859
-0.119530421594355,2895.2509351859
-0.122242524854548,2895.2609351859
-0.124613117326845,2895.2709351859
-0.126934567270165,2895.2809351859
-0.128834439118581,2895.2909351859
-0.131191802420027,2895.3009351859
-0.134261159385117,2895.3109351859
-0.137572912921847,2895.3209351859
-0.141467941786008,2895.3309351859
-0.145118808959443,2895.3409351859
-0.149127036913716,2895.3509351859
-0.153189406641852,2895.3609351859
-0.156662577736682,2895.3709351859
-0.159722895665108,2895.3809351859
-0.162230407151832,2895.3909351859
-0.164913637459218,2895.4009351859
-0.167085861035872,2895.4109351859
-0.169918020537282,2895.4209351859
-0.173120200694104,2895.4309351859
-0.176281035150252,2895.4409351859
-0.177924303385067,2895.4509351859
-0.175752773298654,2895.4609351859
-0.168830656277698,2895.4709351859
-0.156129647979821,2895.4809351859
-0.137857969531214,2895.4909351859
-0.116443651421503,2895.5009351859
-0.0947212247924721,2895.5109351859
-0.0746518785337128,2895.5209351859
-0.0603264574411817,2895.5309351859
-0.0518315739041155,2895.5409351859
-0.0496181819060264,2895.5509351859
-0.0526853954784755,2895.5609351859
-0.0589233079666943,2895.5709351859
-0.0663657541715143,2895.5809351859
-0.0733201001255534,2895.5909351859
-0.0786506564508956,2895.6009351859
-0.0824243168624273,2895.6109351859
-0.0848341985933201,2895.6209351859
-0.0859867575481268,2895.6309351859
-0.0870777003785453,2895.6409351859
-0.0874326664016551,2895.6509351859
-0.0877212761977055,2895.6609351859
-0.0872316325169855,2895.6709351859
-0.0872343774974649,2895.6809351859
-0.087680893970911,2895.6909351859
-0.0889992998603827,2895.7009351859
-0.0913396877049437,2895.7109351859
-0.0955056961798665,2895.7209351859
-0.100072146516701,2895.7309351859
-0.104655669774313,2895.7409351859
-0.109105543543062,2895.7509351859
-0.112101485351898,2895.7609351859
-0.113781155926752,2895.7709351859
-0.114614229787306,2895.7809351859
-0.115164378190402,2895.7909351859
-0.11515911051949,2895.8009351859
-0.115677656364949,2895.8109351859
-0.116476043800099,2895.8209351859
-0.118370949354282,2895.8309351859
-0.121184767209114,2895.8409351859
-0.124091855561505,2895.8509351859
-0.126639835158584,2895.8609351859
-0.128601648555849,2895.8709351859
-0.129159657771122,2895.8809351859
-0.129332195503439,2895.8909351859
-0.129910571420188,2895.9009351859
-0.130607204933028,2895.9109351859
-0.131818067354974,2895.9209351859
-0.133847076742214,2895.9309351859
-0.136889073375198,2895.9409351859
-0.140535148197863,2895.9509351859
-0.1446363049278,2895.9609351859
-0.148394651602866,2895.9709351859
-0.151799174290309,2895.9809351859
-0.154311253994826,2895.9909351859
-0.155798544499051,2896.0009351859
-0.156521691675872,2896.0109351859
-0.156646085333438,2896.0209351859
-0.156789108933969,2896.0309351859
-0.157073383632404,2896.0409351859
-0.157768292976147,2896.0509351859
-0.159383138214762,2896.0609351859
-0.161330313999679,2896.0709351859
-0.163828800030956,2896.0809351859
-0.166710694427827,2896.0909351859
-0.169768074015225,2896.1009351859
-0.172380554751907,2896.1109351859
-0.174301351639809,2896.1209351859
-0.175608562711068,2896.1309351859
-0.177217792953522,2896.1409351859
-0.179769653068459,2896.1509351859
-0.182566458972288,2896.1609351859
-0.185944886783936,2896.1709351859
-0.188298326188239,2896.1809351859
-0.189060823769628,2896.1909351859
-0.186778125279469,2896.2009351859
-0.179264948468977,2896.2109351859
-0.166908967791337,2896.2209351859
-0.15001758889619,2896.2309351859
-0.130234080053144,2896.2409351859
-0.110591567802434,2896.2509351859
-0.0934592575913192,2896.2609351859
-0.0818949040666353,2896.2709351859
-0.077097325707551,2896.2809351859
-0.0795337783150139,2896.2909351859
-0.0874999094068617,2896.3009351859
-0.0989363365149871,2896.3109351859
-0.112857605904686,2896.3209351859
-0.127181323880114,2896.3309351859
-0.141099305976716,2896.3409351859
-0.154296882525605,2896.3509351859
-0.166433865914423,2896.3609351859
-0.177010850298474,2896.3709351859
-0.186237532679404,2896.3809351859
-0.194115250583575,2896.3909351859
-0.200284974748633,2896.4009351859
-0.205641824698996,2896.4109351859
-0.211049115122247,2896.4209351859
-0.216766729664335,2896.4309351859
-0.222533019374938,2896.4409351859
-0.22862310030371,2896.4509351859
-0.235170841283949,2896.4609351859
-0.24036348991844,2896.4709351859
-0.24418286524391,2896.4809351859
-0.24619028059518,2896.4909351859
-0.246299364747961,2896.5009351859
-0.243161070058248,2896.5109351859
-0.238738303228648,2896.5209351859
-0.233696515100013,2896.5309351859
-0.229888815344296,2896.5409351859
-0.227985579788622,2896.5509351859
-0.228581735206552,2896.5609351859
-0.232099807126078,2896.5709351859
-0.238610080517568,2896.5809351859
-0.247029775107234,2896.5909351859
-0.256217117686664,2896.6009351859
-0.265508388488522,2896.6109351859
-0.27519093785837,2896.6209351859
-0.285820863723375,2896.6309351859
-0.297968677888204,2896.6409351859
-0.311342064106752,2896.6509351859
-0.323972941424772,2896.6609351859
-0.33399792668451,2896.6709351859
-0.341852977343598,2896.6809351859
-0.347211796257482,2896.6909351859
-0.351438609392442,2896.7009351859
-0.354584149981864,2896.7109351859
-0.356136200121373,2896.7209351859
-0.354335839201555,2896.7309351859
-0.348645385475322,2896.7409351859
-0.339394835640844,2896.7509351859
-0.326890541302767,2896.7609351859
-0.311251631086478,2896.7709351859
-0.291828062873867,2896.7809351859
-0.267361746030534,2896.7909351859
-0.239083924764916,2896.8009351859
-0.207659497451953,2896.8109351859
-0.173965120352296,2896.8209351859
-0.139682130845997,2896.8309351859
-0.105380777844119,2896.8409351859
-0.071252292136301,2896.8509351859
-0.0386713554826842,2896.8609351859
-0.0060818141663034,2896.8709351859
0.0271091799091669,2896.8809351859
0.06201115625003,2896.8909351859
0.0983336867681614,2896.9009351859
0.136731181976542,2896.9109351859
0.176801174097474,2896.9209351859
0.219388171850783,2896.9309351859
0.265292794162414,2896.9409351859
0.314727147525722,2896.9509351859
0.368800353871503,2896.9609351859
0.427959213020638,2896.9709351859
0.490899677958263,2896.9809351859
0.552841386441662,2896.9909351859
0.608826427024351,2897.0009351859
0.656211622235616,2897.0109351859
0.698237795066408,2897.0209351859
0.741658875000815,2897.0309351859
0.79216897528882,2897.0409351859
0.851011243056662,2897.0509351859
0.916806907169449,2897.0609351859
0.987130290003976,2897.0709351859
1.05844114094301,2897.0809351859
1.1288703223826,2897.0909351859
1.19842644190942,2897.1009351859
1.26762618974196,2897.1109351859
1.33715178720826,2897.1209351859
1.40732365974828,2897.1309351859
1.47894947017574,2897.1409351859
1.55046679738697,2897.1509351859
1.6225344779268,2897.1609351859
1.69524389090922,2897.1709351859
1.77154961520004,2897.1809351859
1.85432898988693,2897.1909351859
1.94650424449537,2897.2009351859
2.04680167912977,2897.2109351859
2.15280898192205,2897.2209351859
2.25974490813938,2897.2309351859
2.36369828387003,2897.2409351859
2.46184829247817,2897.2509351859
2.55270155807917,2897.2609351859
2.63707895503712,2897.2709351859
2.71827383467452,2897.2809351859
2.79891845722793,2897.2909351859
2.87944808105681,2897.3009351859
2.96191941369775,2897.3109351859
3.04601616036084,2897.3209351859
3.1298388025207,2897.3309351859
3.20642443625765,2897.3409351859
3.26425129800827,2897.3509351859
3.29093433037713,2897.3609351859
3.2786812317979,2897.3709351859
3.22978647419762,2897.3809351859
3.15500241936007,2897.3909351859
3.06799318129677,2897.4009351859
2.98095676660181,2897.4109351859
2.90268134415938,2897.4209351859
2.83695162280403,2897.4309351859
2.78483070947507,2897.4409351859
2.74411766955127,2897.4509351859
2.71287584271055,2897.4609351859
2.6893221785985,2897.4709351859
2.6710468196547,2897.4809351859
2.65758261969376,2897.4909351859
2.64748595858395,2897.5009351859
2.64040911682328,2897.5109351859
2.63481605362205,2897.5209351859
2.62906897992946,2897.5309351859
2.62101954281794,2897.5409351859
2.61003864162418,2897.5509351859
2.59549674223794,2897.5609351859
2.57839658295612,2897.5709351859
2.5606748983303,2897.5809351859
2.54216716369708,2897.5909351859
2.52264681170052,2897.6009351859
2.4997887777517,2897.6109351859
2.47278275841393,2897.6209351859
2.44414714837046,2897.6309351859
2.41945200778323,2897.6409351859
2.40361907427076,2897.6509351859
2.39875316645448,2897.6609351859
2.40515727114746,2897.6709351859
2.42203099160797,2897.6809351859
2.44880779692284,2897.6909351859
2.48385378214596,2897.7009351859
2.52380395611654,2897.7109351859
2.56341555988949,2897.7209351859
2.59756464152467,2897.7309351859
2.62232951601052,2897.7409351859
2.63410217219024,2897.7509351859
2.63359065118999,2897.7609351859
2.62270321438487,2897.7709351859
2.60400561455727,2897.7809351859
2.58129528562297,2897.7909351859
2.55708252619323,2897.8009351859
2.53217274163493,2897.8109351859
2.50565206050473,2897.8209351859
2.47722149829347,2897.8309351859
2.44715929917444,2897.8409351859
2.41613292419364,2897.8509351859
2.38554789593318,2897.8609351859
2.35538450543595,2897.8709351859
2.32550935705477,2897.8809351859
2.29618541438737,2897.8909351859
2.26744639964603,2897.9009351859
2.23975608425876,2897.9109351859
2.21537150858686,2897.9209351859
2.19704889071395,2897.9309351859
2.18547364366017,2897.9409351859
2.18282461466601,2897.9509351859
2.18841206436003,2897.9609351859
2.19944380838928,2897.9709351859
2.21344344436192,2897.9809351859
2.22686745402107,2897.9909351859
2.23727390356192,2898.0009351859
2.24154521905597,2898.0109351859
2.23851792032613,2898.0209351859
2.22916605526121,2898.0309351859
2.21656602610359,2898.0409351859
2.20334950671571,2898.0509351859
2.19232007050527,2898.0609351859
2.18466550371693,2898.0709351859
2.17987943010151,2898.0809351859
2.1765792828131,2898.0909351859
2.17295034472037,2898.1009351859
2.16810189280504,2898.1109351859
2.16108527982276,2898.1209351859
2.15174141794628,2898.1309351859
2.1402476938252,2898.1409351859
2.12678917138439,2898.1509351859
2.11298165691732,2898.1609351859
2.09884012308198,2898.1709351859
2.08435502949088,2898.1809351859
2.07060429657504,2898.1909351859
2.05900554329608,2898.2009351859
2.05169526619027,2898.2109351859
2.0490786595196,2898.2209351859
2.05148383562219,2898.2309351859
2.05674808410676,2898.2409351859
2.06015245733979,2898.2509351859
2.05782077214403,2898.2609351859
2.04832465437432,2898.2709351859
2.03159164888367,2898.2809351859
2.00919970107553,2898.2909351859
1.9828149143154,2898.3009351859
1.95410963312988,2898.3109351859
1.92237691412731,2898.3209351859
1.88603704504467,2898.3309351859
1.84428259118237,2898.3409351859
1.79593088890802,2898.3509351859
1.74099081417538,2898.3609351859
1.68146484210174,2898.3709351859
1.61801059869982,2898.3809351859
1.55021236095957,2898.3909351859
1.47621158551671,2898.4009351859
1.39404932306823,2898.4109351859
1.30074108647507,2898.4209351859
1.19528694667066,2898.4309351859
1.08073263655906,2898.4409351859
0.960625908567021,2898.4509351859
0.839470541770996,2898.4609351859
0.72208785808133,2898.4709351859
0.611922824708391,2898.4809351859
0.514015067367545,2898.4909351859
0.432307706479508,2898.5009351859
0.370134189882142,2898.5109351859
0.329569749118786,2898.5209351859
0.310137434247527,2898.5309351859
0.311241223143781,2898.5409351859
0.330264544514857,2898.5509351859
0.365430989658971,2898.5609351859
0.415855856411843,2898.5709351859
0.481587371835234,2898.5809351859
0.56322781139007,2898.5909351859
0.661244332044212,2898.6009351859
0.771055918391957,2898.6109351859
0.884168809736074,2898.6209351859
0.990800984628706,2898.6309351859
1.08187303444005,2898.6409351859
1.15318577800792,2898.6509351859
1.2047356328393,2898.6609351859
1.23890148417055,2898.6709351859
1.26133039264218,2898.6809351859
1.27635094909835,2898.6909351859
1.28841435621071,2898.7009351859
1.30007296660325,2898.7109351859
1.31230759681237,2898.7209351859
1.32661614523626,2898.7309351859
1.34213665821658,2898.7409351859
1.35818485074362,2898.7509351859
1.37479309061562,2898.7609351859
1.39111518704562,2898.7709351859
1.40564487977319,2898.7809351859
1.41838143621023,2898.7909351859
1.42900905583295,2898.8009351859
1.43755193581787,2898.8109351859
1.44556636659211,2898.8209351859
1.45330002998957,2898.8309351859
1.46150139445538,2898.8409351859
1.47123319554286,2898.8509351859
1.48296167752075,2898.8609351859
1.49580745494615,2898.8709351859
1.50807318587232,2898.8809351859
1.51910453264936,2898.8909351859
1.52903453089309,2898.9009351859
1.53751497508995,2898.9109351859
1.545018670671,2898.9209351859
1.55193002818849,2898.9309351859
1.55913235700096,2898.9409351859
1.56670812169691,2898.9509351859
1.57491052954505,2898.9609351859
1.5843691815917,2898.9709351859
1.59482373178501,2898.9809351859
1.60638287835428,2898.9909351859
1.61831758538964,2899.0009351859
1.63029623042197,2899.0109351859
1.64193229983532,2899.0209351859
1.65209830569672,2899.0309351859
1.66008894850126,2899.0409351859
1.66670422588536,2899.0509351859
1.67188747684546,2899.0609351859
1.67597834797651,2899.0709351859
1.68005670665015,2899.0809351859
1.68412207663961,2899.0909351859
1.68785682023709,2899.1009351859
1.69224146407798,2899.1109351859
1.69735694305397,2899.1209351859
1.70413071383087,2899.1309351859
1.71249297888767,2899.1409351859
1.72425029232376,2899.1509351859
1.73934277798767,2899.1609351859
1.75889966139305,2899.1709351859
1.78291224068508,2899.1809351859
1.80955130028476,2899.1909351859
1.83647190830918,2899.2009351859
1.86140570510738,2899.2109351859
1.8819203207404,2899.2209351859
1.89706789357754,2899.2309351859
1.90666300304802,2899.2409351859
1.91200774647904,2899.2509351859
1.91414745658698,2899.2609351859
1.9139598318597,2899.2709351859
1.91253973252342,2899.2809351859
1.9104212769488,2899.2909351859
1.90849611208568,2899.3009351859
1.90645975904815,2899.3109351859
1.90445175660571,2899.3209351859
1.90201342983957,2899.3309351859
1.89866237789026,2899.3409351859
1.89438873846536,2899.3509351859
1.88989492145894,2899.3609351859
1.88526613333865,2899.3709351859
1.88044620681593,2899.3809351859
1.87543518284406,2899.3909351859
1.87032162482514,2899.4009351859
1.86570598017861,2899.4109351859
1.86251516452567,2899.4209351859
1.86033319767546,2899.4309351859
1.858768563035,2899.4409351859
1.85757210376412,2899.4509351859
1.85688885990041,2899.4609351859
1.85609646373598,2899.4709351859
1.85561395383047,2899.4809351859
1.8555847374667,2899.4909351859
1.85634450774658,2899.5009351859
1.85692980322288,2899.5109351859
1.85635594015935,2899.5209351859
1.85565994981994,2899.5309351859
1.85457892795726,2899.5409351859
1.85266348937588,2899.5509351859
1.85100589997414,2899.5609351859
1.84859338075902,2899.5709351859
1.84539014639864,2899.5809351859
1.84191779153661,2899.5909351859
1.83765856212939,2899.6009351859
1.83298423876198,2899.6109351859
1.82815650814928,2899.6209351859
1.82288266544653,2899.6309351859
1.81693566236217,2899.6409351859
1.81079153383045,2899.6509351859
1.80473454769678,2899.6609351859
1.79911420497893,2899.6709351859
1.79336789134647,2899.6809351859
1.78880817930938,2899.6909351859
1.78486535801474,2899.7009351859
1.78145501800097,2899.7109351859
1.77834801893338,2899.7209351859
1.77455108045299,2899.7309351859
1.77084117662759,2899.7409351859
1.76672863142972,2899.7509351859
1.76233555115343,2899.7609351859
1.75783485207255,2899.7709351859
1.75338206886628,2899.7809351859
1.74926826921977,2899.7909351859
1.74499539594772,2899.8009351859
1.7410957392375,2899.8109351859
1.73702852273171,2899.8209351859
1.73321775664172,2899.8309351859
1.72989248364092,2899.8409351859
1.72635120345112,2899.8509351859
1.72286256353021,2899.8609351859
1.71932071435143,2899.8709351859
1.71503231600233,2899.8809351859
1.70988244784139,2899.8909351859
1.70453037473956,2899.9009351859
1.69876507008248,2899.9109351859
1.69339998985192,2899.9209351859
1.68924685514928,2899.9309351859
1.68709720182775,2899.9409351859
1.68748722032713,2899.9509351859
1.69044951473746,2899.9609351859
1.69602687568381,2899.9709351859
1.70341646997931,2899.9809351859
1.71208244210272,2899.9909351859
1.72059894841974,2900.0009351859
1.72749692806372,2900.0109351859
1.7326683690865,2900.0209351859
1.73517134991155,2900.0309351859
1.7350652466453,2900.0409351859
1.73348873274228,2900.0509351859
1.7302146008555,2900.0609351859
1.72651024550985,2900.0709351859
1.72212635229967,2900.0809351859
1.71770830514058,2900.0909351859
1.71342819842394,2900.1009351859
1.70916583097412,2900.1109351859
1.70506208520154,2900.1209351859
1.70106640123037,2900.1309351859
1.69744444995511,2900.1409351859
1.69343314929907,2900.1509351859
1.69020627144205,2900.1609351859
1.68628996984772,2900.1709351859
1.68285418845185,2900.1809351859
1.67930589071594,2900.1909351859
1.67544706953412,2900.2009351859
1.67143033040749,2900.2109351859
1.66764284824966,2900.2209351859
1.6639892565645,2900.2309351859
1.66000962555219,2900.2409351859
1.65617113125657,2900.2509351859
1.65233588148671,2900.2609351859
1.64836253819138,2900.2709351859
1.64441264864798,2900.2809351859
1.64060129603305,2900.2909351859
1.63678467490568,2900.3009351859
1.63360323179468,2900.3109351859
1.62992244763911,2900.3209351859
1.62642377346932,2900.3309351859
1.62298159290767,2900.3409351859
1.61997487282232,2900.3509351859
1.61691768447217,2900.3609351859
1.61352933818335,2900.3709351859
1.60964246327449,2900.3809351859
1.60534187995092,2900.3909351859
1.60057554409517,2900.4009351859
1.5949946227065,2900.4109351859
1.58976835644576,2900.4209351859
1.58479403846735,2900.4309351859
1.5797142005503,2900.4409351859
1.57529273232851,2900.4509351859
1.57070890574479,2900.4609351859
1.56623403049822,2900.4709351859
1.56139373973539,2900.4809351859
1.55674203996522,2900.4909351859
1.55170056522242,2900.5009351859
1.54669568989445,2900.5109351859
1.54270700124883,2900.5209351859
1.53879519521923,2900.5309351859
1.53527751820308,2900.5409351859
1.53136335830857,2900.5509351859
1.52718583310676,2900.5609351859
1.52284908294863,2900.5709351859
1.51818187177265,2900.5809351859
1.51438034934016,2900.5909351859
1.51080088440048,2900.6009351859
1.50801693502548,2900.6109351859
1.50567502016109,2900.6209351859
1.50421882116931,2900.6309351859
1.50228228373866,2900.6409351859
1.50039574413922,2900.6509351859
1.49838312914476,2900.6609351859
1.496575539839,2900.6709351859
1.49438832999636,2900.6809351859
1.4917349789217,2900.6909351859
1.48946835049633,2900.7009351859
1.48652254981559,2900.7109351859
1.48344060912144,2900.7209351859
1.48065864244638,2900.7309351859
1.47897367644965,2900.7409351859
1.47735112596198,2900.7509351859
1.47578660836241,2900.7609351859
1.47393074534253,2900.7709351859
1.47100106362753,2900.7809351859
1.467590839233,2900.7909351859
1.46494252362383,2900.8009351859
1.46341044309436,2900.8109351859
1.46474758513749,2900.8209351859
1.46892418481669,2900.8309351859
1.47679563255297,2900.8409351859
1.4875890150602,2900.8509351859
1.49986278910122,2900.8609351859
1.51245108733992,2900.8709351859
1.52344436270487,2900.8809351859
1.53214861501606,2900.8909351859
1.53838657774182,2900.9009351859
1.54159363490439,2900.9109351859
1.54222398932762,2900.9209351859
1.54109602462509,2900.9309351859
1.53888964455978,2900.9409351859
1.53561096243111,2900.9509351859
1.53214011475495,2900.9609351859
1.52885476845535,2900.9709351859
1.52521306977011,2900.9809351859
1.5222895423721,2900.9909351859
1.51976148626875,2901.0009351859
1.51763910034836,2901.0109351859
1.5159416056942,2901.0209351859
1.51446157052356,2901.0309351859
1.51270485305822,2901.0409351859
1.5098926071528,2901.0509351859
1.50720727022202,2901.0609351859
1.50392982140755,2901.0709351859
1.5004483696852,2901.0809351859
1.49701557990692,2901.0909351859
1.4933593610835,2901.1009351859
1.49065706349755,2901.1109351859
1.48772434785389,2901.1209351859
1.48463819393123,2901.1309351859
1.48167570163382,2901.1409351859
1.47912902461512,2901.1509351859
1.4770350806764,2901.1609351859
1.47497223346521,2901.1709351859
1.47338127281055,2901.1809351859
1.47237920759734,2901.1909351859
1.47184888826642,2901.2009351859
1.47160606948903,2901.2109351859
1.47165865792407,2901.2209351859
1.47225068352773,2901.2309351859
1.47191404641136,2901.2409351859
1.47128236520699,2901.2509351859
1.46952518257391,2901.2609351859
1.46633352294136,2901.2709351859
1.46275477217048,2901.2809351859
1.45824870558252,2901.2909351859
1.45402053075958,2901.3009351859
1.45004984634633,2901.3109351859
1.44605504269896,2901.3209351859
1.44157596269308,2901.3309351859
1.43696323050377,2901.3409351859
1.43217145558892,2901.3509351859
1.42722375761172,2901.3609351859
1.42215473507169,2901.3709351859
1.41730540969026,2901.3809351859
1.411909961221,2901.3909351859
1.40585555501333,2901.4009351859
1.39958115050638,2901.4109351859
1.39331259535319,2901.4209351859
1.38638395463631,2901.4309351859
1.37932736378234,2901.4409351859
1.37064789204248,2901.4509351859
1.35958103313407,2901.4609351859
1.34734356472213,2901.4709351859
1.33452032823977,2901.4809351859
1.32284098093918,2901.4909351859
1.3134139086835,2901.5009351859
1.30608822990281,2901.5109351859
1.30113444669982,2901.5209351859
1.29674503594958,2901.5309351859
1.29249647452367,2901.5409351859
1.2876798041725,2901.5509351859
1.28101016756517,2901.5609351859
1.27306849243514,2901.5709351859
1.26428337627165,2901.5809351859
1.25471769252172,2901.5909351859
1.24615510488919,2901.6009351859
1.23873646751671,2901.6109351859
1.23226913077353,2901.6209351859
1.22691320118273,2901.6309351859
1.22199965031502,2901.6409351859
1.21699880290777,2901.6509351859
1.21225316337143,2901.6609351859
1.20731907663304,2901.6709351859
1.20246077623021,2901.6809351859
1.198158758165,2901.6909351859
1.19506506602031,2901.7009351859
1.19374276587737,2901.7109351859
1.19509893930135,2901.7209351859
1.19931454498137,2901.7309351859
1.20655774582434,2901.7409351859
1.21628053350988,2901.7509351859
1.22743392455996,2901.7609351859
1.23888000557343,2901.7709351859
1.24940478230576,2901.7809351859
1.25863702113815,2901.7909351859
1.26495919222296,2901.8009351859
1.26834799292465,2901.8109351859
1.26882990947963,2901.8209351859
1.26639279368172,2901.8309351859
1.26217098430153,2901.8409351859
1.25747087853916,2901.8509351859
1.25208311425976,2901.8609351859
1.24703000311029,2901.8709351859
1.24262164370038,2901.8809351859
1.23883547892772,2901.8909351859
1.23580595396891,2901.9009351859
1.23304947007291,2901.9109351859
1.22974864508271,2901.9209351859
1.22616070624481,2901.9309351859
1.22195253776707,2901.9409351859
1.21696357057753,2901.9509351859
1.21172192455374,2901.9609351859
1.20623583721413,2901.9709351859
1.20093974898253,2901.9809351859
1.19675427185977,2901.9909351859
1.19295799943175,2902.0009351859
1.19022106474073,2902.0109351859
1.18762203301749,2902.0209351859
1.18532881462195,2902.0309351859
1.18255572562579,2902.0409351859
1.17948127210031,2902.0509351859
1.1769896595113,2902.0609351859
1.17480238631945,2902.0709351859
1.17301162742616,2902.0809351859
1.1711903652823,2902.0909351859
1.17016339713001,2902.1009351859
1.16998140031392,2902.1109351859
1.16949829474079,2902.1209351859
1.16965913997069,2902.1309351859
1.16995643396815,2902.1409351859
1.17034923037596,2902.1509351859
1.17047454674024,2902.1609351859
1.17024678722972,2902.1709351859
1.16938528123629,2902.1809351859
1.16798837263765,2902.1909351859
1.16572376428071,2902.2009351859
1.16307224530344,2902.2109351859
1.16012898009262,2902.2209351859
1.15674900464897,2902.2309351859
1.15426074385888,2902.2409351859
1.15169540191883,2902.2509351859
1.14925243575535,2902.2609351859
1.14708820370153,2902.2709351859
1.14521795976184,2902.2809351859
1.14384057888075,2902.2909351859
1.14311231182503,2902.3009351859
1.1429074855541,2902.3109351859
1.14239815592965,2902.3209351859
1.14106053840159,2902.3309351859
1.13871668522203,2902.3409351859
1.13474745325103,2902.3509351859
1.12998160699705,2902.3609351859
1.12429909605032,2902.3709351859
1.11838130672506,2902.3809351859
1.11328614573762,2902.3909351859
1.10811883774514,2902.4009351859
1.10402149971408,2902.4109351859
1.10025243886015,2902.4209351859
1.09622861894179,2902.4309351859
1.09207092551467,2902.4409351859
1.08760385055365,2902.4509351859
1.08316511674937,2902.4609351859
1.07895294571473,2902.4709351859
1.07461534724889,2902.4809351859
1.07000402262569,2902.4909351859
1.06490871753466,2902.5009351859
1.05979547097671,2902.5109351859
1.05479563393943,2902.5209351859
1.05029090580921,2902.5309351859
1.04595472812534,2902.5409351859
1.0420790492014,2902.5509351859
1.03896312701691,2902.5609351859
1.03609100419421,2902.5709351859
1.03352669355225,2902.5809351859
1.03147205714577,2902.5909351859
1.02929040372153,2902.6009351859
1.02719132354034,2902.6109351859
1.02436008786491,2902.6209351859
1.02153886846258,2902.6309351859
1.01942032247576,2902.6409351859
1.01860440117254,2902.6509351859
1.02054355174911,2902.6609351859
1.02583772600007,2902.6709351859
1.03409445091257,2902.6809351859
1.04559408445083,2902.6909351859
1.05897824456221,2902.7009351859
1.07351133924241,2902.7109351859
1.08702363240469,2902.7209351859
1.09822506932414,2902.7309351859
1.10598173670123,2902.7409351859
1.11007060304239,2902.7509351859
1.11137723703974,2902.7609351859
1.1105946676271,2902.7709351859
1.10891144324954,2902.7809351859
1.10687763679085,2902.7909351859
1.10522746726881,2902.8009351859
1.10410247536778,2902.8109351859
1.10340424506426,2902.8209351859
1.10226657545498,2902.8309351859
1.10127065502927,2902.8409351859
1.10027038896271,2902.8509351859
1.09950147574661,2902.8609351859
1.09850419167575,2902.8709351859
1.09728174111161,2902.8809351859
1.09610689551806,2902.8909351859
1.09462997672844,2902.9009351859
1.09315598679665,2902.9109351859
1.092354813043,2902.9209351859
1.09173199597424,2902.9309351859
1.091453642988,2902.9409351859
1.09136116269892,2902.9509351859
1.09175990182697,2902.9609351859
1.09247717921717,2902.9709351859
1.09323669678204,2902.9809351859
1.09397480619179,2902.9909351859
1.09444233882558,2903.0009351859
1.0947269096658,2903.0109351859
1.09459637640293,2903.0209351859
1.09507019534514,2903.0309351859
1.09542150861188,2903.0409351859
1.09690592586936,2903.0509351859
1.09884542678679,2903.0609351859
1.10144820386397,2903.0709351859
1.10534709955061,2903.0809351859
1.10956004920251,2903.0909351859
1.11395619957446,2903.1009351859
1.11827491064114,2903.1109351859
1.1219871507103,2903.1209351859
1.12459147380354,2903.1309351859
1.12634307505555,2903.1409351859
1.12764409216139,2903.1509351859
1.12851569230051,2903.1609351859
1.12955088919832,2903.1709351859
1.13079001373741,2903.1809351859
1.13241473682373,2903.1909351859
1.13398516581938,2903.2009351859
1.13550610747015,2903.2109351859
1.13639958336472,2903.2209351859
1.13752662453574,2903.2309351859
1.13832419173196,2903.2409351859
1.1391224808277,2903.2509351859
1.13874690075592,2903.2609351859
1.13862453492129,2903.2709351859
1.13796031069828,2903.2809351859
1.13741690629686,2903.2909351859
1.13691044211638,2903.3009351859
1.13631690428679,2903.3109351859
1.13616943953308,2903.3209351859
1.13610866915482,2903.3309351859
1.13561182359728,2903.3409351859
1.13532467183824,2903.3509351859
1.13499807416785,2903.3609351859
1.13479916290574,2903.3709351859
1.13482192674295,2903.3809351859
1.13557355176879,2903.3909351859
1.1358807774694,2903.4009351859
1.13599493145138,2903.4109351859
1.13546993089083,2903.4209351859
1.13456872366684,2903.4309351859
1.13427162696152,2903.4409351859
1.13412215968785,2903.4509351859
1.13408769315997,2903.4609351859
1.13396511203404,2903.4709351859
1.13352114672494,2903.4809351859
1.1331543976753,2903.4909351859
1.13250125513537,2903.5009351859
1.13125360543343,2903.5109351859
1.13027606861185,2903.5209351859
1.12803699105597,2903.5309351859
1.12489307922445,2903.5409351859
1.12094925276466,2903.5509351859
1.11673619935666,2903.5609351859
1.1123448149071,2903.5709351859
1.10875228552907,2903.5809351859
1.10637144699096,2903.5909351859
1.10647290553829,2903.6009351859
1.10975979825233,2903.6109351859
1.11607870617437,2903.6209351859
1.12531691066859,2903.6309351859
1.13590559567154,2903.6409351859
1.14686263755718,2903.6509351859
1.15702804024335,2903.6609351859
1.16628761228921,2903.6709351859
1.1732761591487,2903.6809351859
1.17764040651735,2903.6909351859
1.17977135342872,2903.7009351859
1.17992243445862,2903.7109351859
1.17859322401537,2903.7209351859
1.17611143939681,2903.7309351859
1.17355084962828,2903.7409351859
1.17058504186143,2903.7509351859
1.16831397333847,2903.7609351859
1.16671450113075,2903.7709351859
1.16523454164723,2903.7809351859
1.1637442493928,2903.7909351859
1.16203384083277,2903.8009351859
1.16014939722822,2903.8109351859
1.15737819747993,2903.8209351859
1.15358493327523,2903.8309351859
1.1483665363289,2903.8409351859
1.1419753335477,2903.8509351859
1.13499634026466,2903.8609351859
1.12730042095656,2903.8709351859
1.11955909427769,2903.8809351859
1.11277472274687,2903.8909351859
1.10699199969862,2903.9009351859
1.10212470119462,2903.9109351859
1.09818155296179,2903.9209351859
1.09525582916486,2903.9309351859
1.09206872708305,2903.9409351859
1.08861328890763,2903.9509351859
1.08576052390915,2903.9609351859
1.08305769639789,2903.9709351859
1.08061398245041,2903.9809351859
1.07836564781568,2903.9909351859
1.07683608135692,2904.0009351859
1.07604673581912,2904.0109351859
1.07541290957198,2904.0209351859
1.07504015974549,2904.0309351859
1.07449551656419,2904.0409351859
1.07356052473586,2904.0509351859
1.07222568506756,2904.0609351859
1.07060588915919,2904.0709351859
1.06825039485693,2904.0809351859
1.06545413530451,2904.0909351859
1.06213881689556,2904.1009351859
1.05827753090929,2904.1109351859
1.05424139207428,2904.1209351859
1.04981725262908,2904.1309351859
1.04596626927098,2904.1409351859
1.04202904824043,2904.1509351859
1.03856960901973,2904.1609351859
1.03530499843071,2904.1709351859
1.03161184498171,2904.1809351859
1.02874298312148,2904.1909351859
1.02610168134068,2904.2009351859
1.02331605531052,2904.2109351859
1.02058897719193,2904.2209351859
1.01793207514999,2904.2309351859
1.01456136447158,2904.2409351859
1.01077450265464,2904.2509351859
1.00645078903193,2904.2609351859
1.00125810826677,2904.2709351859
0.99586196112849,2904.2809351859
0.989949203254833,2904.2909351859
0.984252166561274,2904.3009351859
0.978859864841827,2904.3109351859
0.973362228165523,2904.3209351859
0.968278188719544,2904.3309351859
0.962977477605855,2904.3409351859
0.957935075287682,2904.3509351859
0.952744756347754,2904.3609351859
0.946998183545058,2904.3709351859
0.941695373327516,2904.3809351859
0.936451348454656,2904.3909351859
0.932473171512771,2904.4009351859
0.928524987974306,2904.4109351859
0.924042285839947,2904.4209351859
0.919586091222359,2904.4309351859
0.914790696591784,2904.4409351859
0.909429548604054,2904.4509351859
0.904204849126574,2904.4609351859
0.898240033949692,2904.4709351859
0.89231445623346,2904.4809351859
0.887153493960766,2904.4909351859
0.882931498319505,2904.5009351859
0.880642324024658,2904.5109351859
0.880624582313862,2904.5209351859
0.884239785399333,2904.5309351859
0.890734086561314,2904.5409351859
0.90008055184165,2904.5509351859
0.910484226079181,2904.5609351859
0.920356019445965,2904.5709351859
0.92899215651323,2904.5809351859
0.935149474950319,2904.5909351859
0.938692446920655,2904.6009351859
0.939830929250965,2904.6109351859
0.937720982285773,2904.6209351859
0.933651154448316,2904.6309351859
0.928586864077677,2904.6409351859
0.922767641103784,2904.6509351859
0.916582549970471,2904.6609351859
0.911483333057618,2904.6709351859
0.907042511656483,2904.6809351859
0.903345875909973,2904.6909351859
0.8995350996092,2904.7009351859
0.895756697134149,2904.7109351859
0.890904627934047,2904.7209351859
0.885489747235657,2904.7309351859
0.879535401278336,2904.7409351859
0.873586616876905,2904.7509351859
0.867530833108232,2904.7609351859
0.86100757444268,2904.7709351859
0.854650328090832,2904.7809351859
0.848990611418264,2904.7909351859
0.844275584362251,2904.8009351859
0.840810791647849,2904.8109351859
0.837667325609677,2904.8209351859
0.835517399698007,2904.8309351859
0.833886770615428,2904.8409351859
