PPG,time
0.0745456903369001,1401.99182373406
0.164549541292094,1402.00182373406
0.168301562550016,1402.01182373406
0.195056394594982,1402.02182373406
0.203504695717172,1402.03182373406
0.217201966968659,1402.04182373406
0.220168647122181,1402.05182373406
0.222953399493074,1402.06182373406
0.219450946907909,1402.07182373406
0.21345866615294,1402.08182373406
0.204387855303959,1402.09182373406
0.193329680507874,1402.10182373406
0.180675289988595,1402.11182373406
0.166279697085896,1402.12182373406
0.150147721664694,1402.13182373406
0.133226368596606,1402.14182373406
0.1155207863032,1402.15182373406
0.0978656510011978,1402.16182373406
0.0806729153382056,1402.17182373406
0.06330779520657,1402.18182373406
0.045797499257068,1402.19182373406
0.0281463664625762,1402.20182373406
0.0105415426600165,1402.21182373406
-0.00639697697716912,1402.22182373406
-0.0227313037678702,1402.23182373406
-0.0375911116776055,1402.24182373406
-0.0519923949660561,1402.25182373406
-0.0660245392107494,1402.26182373406
-0.0803876655165912,1402.27182373406
-0.0950660745192195,1402.28182373406
-0.109470464057056,1402.29182373406
-0.123534453598423,1402.30182373406
-0.136326016117166,1402.31182373406
-0.147903720605888,1402.32182373406
-0.158761181861862,1402.33182373406
-0.169214469057692,1402.34182373406
-0.180099948878552,1402.35182373406
-0.190425020242878,1402.36182373406
-0.200593762188755,1402.37182373406
-0.210633719910507,1402.38182373406
-0.220572510115476,1402.39182373406
-0.230751534831198,1402.40182373406
-0.240750015120453,1402.41182373406
-0.25043989931364,1402.42182373406
-0.260456588225575,1402.43182373406
-0.27015047535218,1402.44182373406
-0.278678884848351,1402.45182373406
-0.287054278541551,1402.46182373406
-0.294980437394166,1402.47182373406
-0.303031162668042,1402.48182373406
-0.311107935417003,1402.49182373406
-0.319297460230159,1402.50182373406
-0.327202740723219,1402.51182373406
-0.334662474099694,1402.52182373406
-0.342029012109693,1402.53182373406
-0.349378058514119,1402.54182373406
-0.356624041779969,1402.55182373406
-0.363652394016607,1402.56182373406
-0.370951545998898,1402.57182373406
-0.378199310300399,1402.58182373406
-0.384459733221182,1402.59182373406
-0.389330685040377,1402.60182373406
-0.389875100919574,1402.61182373406
-0.379623173732127,1402.62182373406
-0.350125980082113,1402.63182373406
-0.294465032166407,1402.64182373406
-0.212283582958908,1402.65182373406
-0.110756057198649,1402.66182373406
-0.00215736188800095,1402.67182373406
0.101569421873714,1402.68182373406
0.192565343423858,1402.69182373406
0.268119174606334,1402.70182373406
0.326997759172611,1402.71182373406
0.371596108607743,1402.72182373406
0.403976721955688,1402.73182373406
0.426138542256734,1402.74182373406
0.44030479492923,1402.75182373406
0.447122326078563,1402.76182373406
0.447956963486719,1402.77182373406
0.443038595550294,1402.78182373406
0.432951539807264,1402.79182373406
0.419130531220471,1402.80182373406
0.402319361172004,1402.81182373406
0.38349808317639,1402.82182373406
0.363336729241368,1402.83182373406
0.343101446494898,1402.84182373406
0.322191603884176,1402.85182373406
0.301404210078201,1402.86182373406
0.280213351469948,1402.87182373406
0.259014052145091,1402.88182373406
0.237590592593683,1402.89182373406
0.215323667925327,1402.90182373406
0.191891214554771,1402.91182373406
0.166668718068532,1402.92182373406
0.140769768776586,1402.93182373406
0.11566520639205,1402.94182373406
0.0929022388607595,1402.95182373406
0.0738625719305161,1402.96182373406
0.0595275589285302,1402.97182373406
0.0516203263810742,1402.98182373406
0.0513815644813575,1402.99182373406
0.0579198909230664,1403.00182373406
0.0717616684518404,1403.01182373406
0.0896243440233779,1403.02182373406
0.110151894410765,1403.03182373406
0.131507899519883,1403.04182373406
0.151037659862379,1403.05182373406
0.168203085798952,1403.06182373406
0.181268778454055,1403.07182373406
0.189774203261984,1403.08182373406
0.193876457464695,1403.09182373406
0.193809225650821,1403.10182373406
0.190282059577899,1403.11182373406
0.182834794963193,1403.12182373406
0.173100204978212,1403.13182373406
0.160735818150825,1403.14182373406
0.147006084814024,1403.15182373406
0.13183256306754,1403.16182373406
0.11558063434118,1403.17182373406
0.0986866106951316,1403.18182373406
0.0808463253284708,1403.19182373406
0.0626876448118127,1403.20182373406
0.0436593013431581,1403.21182373406
0.0248864400173738,1403.22182373406
0.00599691677803026,1403.23182373406
-0.0126027568661106,1403.24182373406
-0.030776498628028,1403.25182373406
-0.0478165219269722,1403.26182373406
-0.064437036638409,1403.27182373406
-0.0799800538574467,1403.28182373406
-0.0949783357404573,1403.29182373406
-0.109268626183649,1403.30182373406
-0.12381927504804,1403.31182373406
-0.137823795074733,1403.32182373406
-0.151306580936081,1403.33182373406
-0.164215453430927,1403.34182373406
-0.176299731035006,1403.35182373406
-0.187868301732385,1403.36182373406
-0.199078471850232,1403.37182373406
-0.210255862738846,1403.38182373406
-0.220996233316282,1403.39182373406
-0.231340784462558,1403.40182373406
-0.241497333597055,1403.41182373406
-0.251054271991446,1403.42182373406
-0.261204711136804,1403.43182373406
-0.271501942239115,1403.44182373406
-0.28209760770483,1403.45182373406
-0.292896324256153,1403.46182373406
-0.3032758685286,1403.47182373406
-0.313548952601868,1403.48182373406
-0.323447104021757,1403.49182373406
-0.332400394409695,1403.50182373406
-0.341327848397428,1403.51182373406
-0.349799699203529,1403.52182373406
-0.358484059478179,1403.53182373406
-0.367313381148896,1403.54182373406
-0.376467344562596,1403.55182373406
-0.384829420379375,1403.56182373406
-0.392756774377034,1403.57182373406
-0.400316147950651,1403.58182373406
-0.407319201741304,1403.59182373406
-0.413938150251446,1403.60182373406
-0.420422758574447,1403.61182373406
-0.426874044805006,1403.62182373406
-0.433197907134271,1403.63182373406
-0.439836290921978,1403.64182373406
-0.446526517302497,1403.65182373406
-0.451924493866488,1403.66182373406
-0.452432629430181,1403.67182373406
-0.441048267456916,1403.68182373406
-0.407632581189914,1403.69182373406
-0.345533802365441,1403.70182373406
-0.255772652197351,1403.71182373406
-0.145769219869644,1403.72182373406
-0.0291971854152465,1403.73182373406
0.081363442518252,1403.74182373406
0.177250181578614,1403.75182373406
0.254728806408922,1403.76182373406
0.313977986446279,1403.77182373406
0.357425542157746,1403.78182373406
0.387899937669867,1403.79182373406
0.408342849573913,1403.80182373406
0.420341996007513,1403.81182373406
0.42565476211791,1403.82182373406
0.424646880536251,1403.83182373406
0.419117479820748,1403.84182373406
0.409892526491156,1403.85182373406
0.396804177956299,1403.86182373406
0.380455343756171,1403.87182373406
0.361214526827958,1403.88182373406
0.339775350431575,1403.89182373406
0.316292384413482,1403.90182373406
0.29213129669375,1403.91182373406
0.268343128774469,1403.92182373406
0.244953846466777,1403.93182373406
0.2212074826784,1403.94182373406
0.197581401787403,1403.95182373406
0.172896133945681,1403.96182373406
0.146890458403285,1403.97182373406
0.119303813216792,1403.98182373406
0.0911891461211724,1403.99182373406
0.0642852506524625,1404.00182373406
0.0399093217719186,1404.01182373406
0.0195297235869864,1404.02182373406
0.00364135567822051,1404.03182373406
-0.0062296342855809,1404.04182373406
-0.0100609678951609,1404.05182373406
-0.00685211765630516,1404.06182373406
0.00319672336296143,1404.07182373406
0.0199511239758636,1404.08182373406
0.040730705080708,1404.09182373406
0.063140411761623,1404.10182373406
0.0847145880750444,1404.11182373406
0.103272230467715,1404.12182373406
0.118161126174693,1404.13182373406
0.128772852834484,1404.14182373406
0.135069830817444,1404.15182373406
0.136613504124296,1404.16182373406
0.134790321683614,1404.17182373406
0.129785341405882,1404.18182373406
0.121771914973122,1404.19182373406
0.111004702892413,1404.20182373406
0.0988411320793828,1404.21182373406
0.0851455946885946,1404.22182373406
0.0699973872514758,1404.23182373406
0.0533921727371902,1404.24182373406
0.0359872484007708,1404.25182373406
0.0176857912553493,1404.26182373406
-0.000874554211448134,1404.27182373406
-0.0193341516240013,1404.28182373406
-0.0374637252499187,1404.29182373406
-0.0553358120926992,1404.30182373406
-0.0730504247823253,1404.31182373406
-0.0906280128083961,1404.32182373406
-0.107982520828441,1404.33182373406
-0.124703715489271,1404.34182373406
-0.140770618824409,1404.35182373406
-0.155908953854237,1404.36182373406
-0.170448068439764,1404.37182373406
-0.184770438571169,1404.38182373406
-0.199080533649532,1404.39182373406
-0.213341982907773,1404.40182373406
-0.226483063287552,1404.41182373406
-0.238703097839296,1404.42182373406
-0.249878232008134,1404.43182373406
-0.260933930169292,1404.44182373406
-0.271505626773274,1404.45182373406
-0.281601913123036,1404.46182373406
-0.291710389906261,1404.47182373406
-0.301900195801612,1404.48182373406
-0.312010051211331,1404.49182373406
-0.32259329736036,1404.50182373406
-0.333128479098724,1404.51182373406
-0.343566247711422,1404.52182373406
-0.353716261861328,1404.53182373406
-0.364010947084574,1404.54182373406
-0.374347912837227,1404.55182373406
-0.383987680007929,1404.56182373406
-0.393457798669662,1404.57182373406
-0.40240892576921,1404.58182373406
-0.41030659767164,1404.59182373406
-0.418035172434287,1404.60182373406
-0.425779009532037,1404.61182373406
-0.433476514307478,1404.62182373406
-0.44146700547167,1404.63182373406
-0.449540804062786,1404.64182373406
-0.457786004118299,1404.65182373406
-0.465774930207552,1404.66182373406
-0.47326129818288,1404.67182373406
-0.480110355020016,1404.68182373406
-0.487344008169698,1404.69182373406
-0.494380239742425,1404.70182373406
-0.500465199134859,1404.71182373406
-0.504712093459308,1404.72182373406
-0.501698524857614,1404.73182373406
-0.482863419537597,1404.74182373406
-0.438249475439711,1404.75182373406
-0.36217874755003,1404.76182373406
-0.258291433847313,1404.77182373406
-0.137787903462168,1404.78182373406
-0.0157854337036683,1404.79182373406
0.0951874036973554,1404.80182373406
0.187963336581243,1404.81182373406
0.260798655213873,1404.82182373406
0.314829761999915,1404.83182373406
0.353555568850299,1404.84182373406
0.380026970340817,1404.85182373406
0.396764441581062,1404.86182373406
0.405497196308982,1404.87182373406
0.407788226616776,1404.88182373406
0.404399317956201,1404.89182373406
0.396456179771477,1404.90182373406
0.384081289025824,1404.91182373406
0.367827110797686,1404.92182373406
0.348740192149901,1404.93182373406
0.327325094022874,1404.94182373406
0.303854104753045,1404.95182373406
0.279139438710995,1404.96182373406
0.254160470026557,1404.97182373406
0.228612646587658,1404.98182373406
0.203428518164516,1404.99182373406
0.178389091860566,1405.00182373406
0.152825392254321,1405.01182373406
0.125987667224444,1405.02182373406
0.097447428516568,1405.03182373406
0.0678815613366508,1405.04182373406
0.0381089230622551,1405.05182373406
0.0103036871188112,1405.06182373406
-0.0143576218827886,1405.07182373406
-0.0348067719160392,1405.08182373406
-0.0494566785914795,1405.09182373406
-0.0591951399245839,1405.10182373406
-0.0626146677173318,1405.11182373406
-0.0594760576414854,1405.12182373406
-0.0502859139638805,1405.13182373406
-0.0356006737710146,1405.14182373406
-0.0165246354723044,1405.15182373406
0.00410913248300547,1405.16182373406
0.024522226121322,1405.17182373406
0.0426080179671917,1405.18182373406
0.0567487175931744,1405.19182373406
0.067415943210991,1405.20182373406
0.0741822800347533,1405.21182373406
0.0776505021267141,1405.22182373406
0.0775803099009836,1405.23182373406
0.0741894923550636,1405.24182373406
0.0676473366448152,1405.25182373406
0.0583346312995135,1405.26182373406
0.0468570252359835,1405.27182373406
0.0331101546623769,1405.28182373406
0.017606645231402,1405.29182373406
0.0011706175054251,1405.30182373406
-0.0159767758715432,1405.31182373406
-0.033649318016497,1405.32182373406
-0.0513540442422943,1405.33182373406
-0.0684473004743814,1405.34182373406
-0.0857324456249734,1405.35182373406
-0.102968669530046,1405.36182373406
-0.120595295352577,1405.37182373406
-0.137994750367071,1405.38182373406
-0.155021250401907,1405.39182373406
-0.171875153300308,1405.40182373406
-0.187999650154951,1405.41182373406
-0.203743637431546,1405.42182373406
-0.218568041119054,1405.43182373406
-0.233480613393826,1405.44182373406
-0.248093655317678,1405.45182373406
-0.262076672013471,1405.46182373406
-0.275479960730969,1405.47182373406
-0.288969088817379,1405.48182373406
-0.30204934780911,1405.49182373406
-0.314919321777366,1405.50182373406
-0.327043327056896,1405.51182373406
-0.338002398643284,1405.52182373406
-0.348253194605274,1405.53182373406
-0.357924264966787,1405.54182373406
-0.367574445009991,1405.55182373406
-0.377800533893817,1405.56182373406
-0.388055565145094,1405.57182373406
-0.398995659818523,1405.58182373406
-0.409386956607648,1405.59182373406
-0.419362910935736,1405.60182373406
-0.429042464564567,1405.61182373406
-0.437733907001678,1405.62182373406
-0.446197651078521,1405.63182373406
-0.454697314344063,1405.64182373406
-0.463040155332737,1405.65182373406
-0.470929256375644,1405.66182373406
-0.47882340605795,1405.67182373406
-0.486140649828062,1405.68182373406
-0.493186505822964,1405.69182373406
-0.499986599949091,1405.70182373406
-0.50724568721992,1405.71182373406
-0.514628340348874,1405.72182373406
-0.521437989349177,1405.73182373406
-0.528018221694794,1405.74182373406
-0.53443621373156,1405.75182373406
-0.539474207842558,1405.76182373406
-0.538839543565541,1405.77182373406
-0.524574366421416,1405.78182373406
-0.485815009004264,1405.79182373406
-0.414966967376383,1405.80182373406
-0.313403242204338,1405.81182373406
-0.191236527852096,1405.82182373406
-0.0629467894382578,1405.83182373406
0.0570784908222815,1405.84182373406
0.159302356670147,1405.85182373406
0.240254028582779,1405.86182373406
0.300041646218251,1405.87182373406
0.342445626680199,1405.88182373406
0.370770394781987,1405.89182373406
0.388533579173851,1405.90182373406
0.398011859608766,1405.91182373406
0.400762999103634,1405.92182373406
0.397933349574832,1405.93182373406
0.389815032966039,1405.94182373406
0.376888533131585,1405.95182373406
0.360139907705899,1405.96182373406
0.340082827782785,1405.97182373406
0.316852887250675,1405.98182373406
0.291719463824827,1405.99182373406
0.264878984258997,1406.00182373406
0.23675926173077,1406.01182373406
0.208693694534785,1406.02182373406
0.180665624019494,1406.03182373406
0.152802710001163,1406.04182373406
0.124697696810678,1406.05182373406
0.0951050174608353,1406.06182373406
0.0646232601963684,1406.07182373406
0.0330459257443239,1406.08182373406
0.00219006359670023,1406.09182373406
-0.0275581718155692,1406.10182373406
-0.0543862252756709,1406.11182373406
-0.0771595525604795,1406.12182373406
-0.0943607223521977,1406.13182373406
-0.10526702867007,1406.14182373406
-0.109353793995635,1406.15182373406
-0.106951151406639,1406.16182373406
-0.0986321009524784,1406.17182373406
-0.0854555646066308,1406.18182373406
-0.0677966944928975,1406.19182373406
-0.048151541322946,1406.20182373406
-0.0279444182478014,1406.21182373406
-0.00933364483570558,1406.22182373406
0.00613507842782915,1406.23182373406
0.0175563613818469,1406.24182373406
0.0249900985319045,1406.25182373406
0.0286373225426385,1406.26182373406
0.0287980089112635,1406.27182373406
0.0257307469191521,1406.28182373406
0.0194564020046324,1406.29182373406
0.0108273267240725,1406.30182373406
0.000204113236709594,1406.31182373406
-0.0118993769259341,1406.32182373406
-0.0251022457871431,1406.33182373406
-0.0391835263576147,1406.34182373406
-0.0535752746759079,1406.35182373406
-0.068856352848334,1406.36182373406
-0.0844734905965389,1406.37182373406
-0.100114503952492,1406.38182373406
-0.116014229216486,1406.39182373406
-0.131401138440574,1406.40182373406
-0.147152531461786,1406.41182373406
-0.163103308535868,1406.42182373406
-0.179209432756493,1406.43182373406
-0.195104077900521,1406.44182373406
-0.211092081694422,1406.45182373406
-0.226750724946868,1406.46182373406
-0.242422084426315,1406.47182373406
-0.257713444356135,1406.48182373406
-0.272419377728636,1406.49182373406
-0.286595920220091,1406.50182373406
-0.29927322559454,1406.51182373406
-0.311478447477045,1406.52182373406
-0.323751588810304,1406.53182373406
-0.336434383397357,1406.54182373406
-0.348929059419073,1406.55182373406
-0.361292781564211,1406.56182373406
-0.372996096527062,1406.57182373406
-0.383873070854348,1406.58182373406
-0.393706409909331,1406.59182373406
-0.402974171395366,1406.60182373406
-0.412160722669417,1406.61182373406
-0.420848470705715,1406.62182373406
-0.430212140757045,1406.63182373406
-0.439518542521225,1406.64182373406
-0.449101285115495,1406.65182373406
-0.458753465332708,1406.66182373406
-0.467531479543391,1406.67182373406
-0.47645580908288,1406.68182373406
-0.485005755545867,1406.69182373406
-0.493240423641841,1406.70182373406
-0.501568575506652,1406.71182373406
-0.509559136817504,1406.72182373406
-0.517343040437321,1406.73182373406
-0.524906391156818,1406.74182373406
-0.532311059096904,1406.75182373406
-0.539237230275892,1406.76182373406
-0.545732127368683,1406.77182373406
-0.551320331977169,1406.78182373406
-0.554867875596303,1406.79182373406
-0.552057469192763,1406.80182373406
-0.533392307582109,1406.81182373406
-0.48882584717244,1406.82182373406
-0.41121227078219,1406.83182373406
-0.30301944716,1406.84182373406
-0.175880422880927,1406.85182373406
-0.0447957060593013,1406.86182373406
0.0758094629820411,1406.87182373406
0.176423858590802,1406.88182373406
0.254104897782447,1406.89182373406
0.310698442389109,1406.90182373406
0.349708022284731,1406.91182373406
0.374152326906363,1406.92182373406
0.389340111523454,1406.93182373406
0.396416423790334,1406.94182373406
0.396842128259002,1406.95182373406
0.391947028138517,1406.96182373406
0.381551892479968,1406.97182373406
0.367176954791926,1406.98182373406
0.348259681016471,1406.99182373406
0.326143229286996,1407.00182373406
0.301004717222262,1407.01182373406
0.274382770566069,1407.02182373406
0.246225428020317,1407.03182373406
0.217939279311106,1407.04182373406
0.189650487804335,1407.05182373406
0.16114620007499,1407.06182373406
0.132229711709685,1407.07182373406
0.103521798914083,1407.08182373406
0.0746317530701758,1407.09182373406
0.0448840683384423,1407.10182373406
0.0150557217323385,1407.11182373406
-0.0144153108643877,1407.12182373406
-0.0422686020483155,1407.13182373406
-0.067049715995003,1407.14182373406
-0.0874572014100837,1407.15182373406
-0.1023366097794,1407.16182373406
-0.11125690862292,1407.17182373406
-0.113626183901665,1407.18182373406
-0.109642736637126,1407.19182373406
-0.100237746825037,1407.20182373406
-0.0853456134585886,1407.21182373406
-0.0672113865571124,1407.22182373406
-0.0473948478561587,1407.23182373406
-0.0278869434206107,1407.24182373406
-0.0109555256490438,1407.25182373406
0.00317516012724349,1407.26182373406
0.0138420969496533,1407.27182373406
0.0212016654538977,1407.28182373406
0.024758862419506,1407.29182373406
0.0251818700694109,1407.30182373406
0.0225699975646897,1407.31182373406
0.0169627789221114,1407.32182373406
0.00940839286355333,1407.33182373406
0.000184438482576776,1407.34182373406
-0.0103462257673552,1407.35182373406
-0.0223442323515367,1407.36182373406
-0.0348697639226768,1407.37182373406
-0.048420685989073,1407.38182373406
-0.0626761933577019,1407.39182373406
-0.0777922839464934,1407.40182373406
-0.0938385055302116,1407.41182373406
-0.109776091859019,1407.42182373406
-0.126225567105883,1407.43182373406
-0.142429344681608,1407.44182373406
-0.158876593687723,1407.45182373406
-0.17457923286236,1407.46182373406
-0.189854648713346,1407.47182373406
-0.204958120999481,1407.48182373406
-0.219709824707844,1407.49182373406
-0.234367164103334,1407.50182373406
-0.248846393582023,1407.51182373406
-0.262662394081248,1407.52182373406
-0.276396871124746,1407.53182373406
-0.290368120845596,1407.54182373406
-0.303608276439453,1407.55182373406
-0.316562781750389,1407.56182373406
-0.32854458167846,1407.57182373406
-0.340360101539971,1407.58182373406
-0.351675189627248,1407.59182373406
-0.362660627527492,1407.60182373406
-0.373760194881432,1407.61182373406
-0.384504892283126,1407.62182373406
-0.394695543938305,1407.63182373406
-0.404800029172887,1407.64182373406
-0.414071350441139,1407.65182373406
-0.422911096874147,1407.66182373406
-0.431293085753713,1407.67182373406
-0.439620002593575,1407.68182373406
-0.447304488929805,1407.69182373406
-0.455298425522579,1407.70182373406
-0.463446751288882,1407.71182373406
-0.471323292203618,1407.72182373406
-0.478740890262579,1407.73182373406
-0.486423520124584,1407.74182373406
-0.493572977120265,1407.75182373406
-0.500176490629694,1407.76182373406
-0.50444209650187,1407.77182373406
-0.501213522465474,1407.78182373406
-0.480669423546484,1407.79182373406
-0.431604195653064,1407.80182373406
-0.349513954960028,1407.81182373406
-0.239081095063866,1407.82182373406
-0.112393512235346,1407.83182373406
0.0151873688764341,1407.84182373406
0.129618925809572,1407.85182373406
0.224091912551668,1407.86182373406
0.295877965128614,1407.87182373406
0.347170191156806,1407.88182373406
0.382015754920964,1407.89182373406
0.40435478667809,1407.90182373406
0.416626265338578,1407.91182373406
0.421342370843103,1407.92182373406
0.420123867375969,1407.93182373406
0.413580928091644,1407.94182373406
0.402111606500569,1407.95182373406
0.386059608841271,1407.96182373406
0.365648543783606,1407.97182373406
0.342761829065038,1407.98182373406
0.317460805131344,1407.99182373406
0.291140229168084,1408.00182373406
0.264156709439782,1408.01182373406
0.236846382655365,1408.02182373406
0.208977700549896,1408.03182373406
0.180279126114484,1408.04182373406
0.150993546216666,1408.05182373406
0.120513648007848,1408.06182373406
0.0895732023730318,1408.07182373406
0.0580204638766976,1408.08182373406
0.0268011627087173,1408.09182373406
-0.00240235829253298,1408.10182373406
-0.0290100125177408,1408.11182373406
-0.0521387844449273,1408.12182373406
-0.0699870066040356,1408.13182373406
-0.0820712160484546,1408.14182373406
-0.0875338321265092,1408.15182373406
-0.0866230104791361,1408.16182373406
-0.079249781893822,1408.17182373406
-0.0664316922391035,1408.18182373406
-0.0497986240275505,1408.19182373406
-0.0304263135684079,1408.20182373406
-0.0114914137422084,1408.21182373406
0.00629404874089599,1408.22182373406
0.0210069112779823,1408.23182373406
0.0322713265835057,1408.24182373406
0.0401526196966548,1408.25182373406
0.0446927349444966,1408.26182373406
0.0460600433499147,1408.27182373406
0.0442134137845763,1408.28182373406
0.0399161946285521,1408.29182373406
0.0330273600945845,1408.30182373406
0.0237732487697082,1408.31182373406
0.0129591745466531,1408.32182373406
0.000983856194293863,1408.33182373406
-0.0114925472028129,1408.34182373406
-0.0247982781247134,1408.35182373406
-0.0388655650259275,1408.36182373406
-0.0532072381034401,1408.37182373406
-0.0682300255881184,1408.38182373406
-0.0840937059793563,1408.39182373406
-0.0997346842530468,1408.40182373406
-0.115243738809629,1408.41182373406
-0.130219842359687,1408.42182373406
-0.14499230554482,1408.43182373406
-0.159072815287385,1408.44182373406
-0.173320412501579,1408.45182373406
-0.187536277668936,1408.46182373406
-0.202047234455557,1408.47182373406
-0.217136836489397,1408.48182373406
-0.232639001885453,1408.49182373406
-0.247471428790157,1408.50182373406
-0.261664098868014,1408.51182373406
-0.275072028378502,1408.52182373406
-0.287990939227578,1408.53182373406
-0.300424450170024,1408.54182373406
-0.312320993210861,1408.55182373406
-0.324015290136369,1408.56182373406
-0.334621056572899,1408.57182373406
-0.344975124121707,1408.58182373406
-0.355127654524697,1408.59182373406
-0.364654611824125,1408.60182373406
-0.37400248329307,1408.61182373406
-0.383528474847916,1408.62182373406
-0.392519244169253,1408.63182373406
-0.400624892987185,1408.64182373406
-0.408325423234253,1408.65182373406
-0.415903177560503,1408.66182373406
-0.4236776784222,1408.67182373406
-0.431942250064404,1408.68182373406
-0.440372674381616,1408.69182373406
-0.449285970247282,1408.70182373406
-0.458122655334887,1408.71182373406
-0.466688670855749,1408.72182373406
-0.475416133409884,1408.73182373406
-0.482514173891191,1408.74182373406
-0.484713763602406,1408.75182373406
-0.473504965527848,1408.76182373406
-0.438951184615508,1408.77182373406
-0.373166871566488,1408.78182373406
-0.276440393459757,1408.79182373406
-0.157086763078522,1408.80182373406
-0.0294649144412324,1408.81182373406
0.0917965194653933,1408.82182373406
0.196420908058353,1408.83182373406
0.279408139135482,1408.84182373406
0.340574989367019,1408.85182373406
0.383613732889017,1408.86182373406
0.41193829016648,1408.87182373406
0.428837936268778,1408.88182373406
0.437380771983304,1408.89182373406
0.438901576181067,1408.90182373406
0.434897759237409,1408.91182373406
0.425690725385187,1408.92182373406
0.412427919388616,1408.93182373406
0.395818014983499,1408.94182373406
0.376239676687969,1408.95182373406
0.35416474815826,1408.96182373406
0.329987963645985,1408.97182373406
0.304198210069192,1408.98182373406
0.277171157252741,1408.99182373406
0.248990823513371,1409.00182373406
0.220726175385673,1409.01182373406
0.191981016786881,1409.02182373406
0.162946547945178,1409.03182373406
0.132852830945277,1409.04182373406
0.101706268251338,1409.05182373406
0.0706053026748689,1409.06182373406
0.0400465674653574,1409.07182373406
0.0119428633981708,1409.08182373406
-0.0122634019205874,1409.09182373406
-0.0317525577884112,1409.10182373406
-0.0455719312389087,1409.11182373406
-0.053008327446565,1409.12182373406
-0.0542893876790381,1409.13182373406
-0.0491301542183834,1409.14182373406
-0.0384288886717055,1409.15182373406
-0.0230348328699127,1409.16182373406
-0.0049624783249388,1409.17182373406
0.0140385512709048,1409.18182373406
0.0323204168968906,1409.19182373406
0.0484464663773997,1409.20182373406
0.0613604059663917,1409.21182373406
0.0705463252206159,1409.22182373406
0.0763696870914353,1409.23182373406
0.0791804359818825,1409.24182373406
0.0791983919373783,1409.25182373406
0.0763124643141574,1409.26182373406
0.0713003301722314,1409.27182373406
0.0635504465078577,1409.28182373406
0.0532605647817346,1409.29182373406
0.0412232516236392,1409.30182373406
0.0282756709839355,1409.31182373406
0.014433081841238,1409.32182373406
0.00020999640024928,1409.33182373406
-0.0141794867725927,1409.34182373406
-0.0288652019805087,1409.35182373406
-0.043934186472041,1409.36182373406
-0.0588553812505573,1409.37182373406
-0.0738406899091394,1409.38182373406
-0.0890395946327695,1409.39182373406
-0.104156997388031,1409.40182373406
-0.119848461379832,1409.41182373406
-0.135479754421867,1409.42182373406
-0.15167580856507,1409.43182373406
-0.16693311639304,1409.44182373406
-0.181992422194526,1409.45182373406
-0.196247087516231,1409.46182373406
-0.210013257069989,1409.47182373406
-0.223449717850983,1409.48182373406
-0.236124513389927,1409.49182373406
-0.248364773183819,1409.50182373406
-0.260176125928906,1409.51182373406
-0.272323884467956,1409.52182373406
-0.284628648744896,1409.53182373406
-0.296693506347658,1409.54182373406
-0.308425431784285,1409.55182373406
-0.319264021393345,1409.56182373406
-0.329532916503296,1409.57182373406
-0.339232647204203,1409.58182373406
-0.348734909614329,1409.59182373406
-0.358223178374942,1409.60182373406
-0.367700272460711,1409.61182373406
-0.377040173148813,1409.62182373406
-0.386237725498298,1409.63182373406
-0.39557007134512,1409.64182373406
-0.404821100049979,1409.65182373406
-0.413766804187188,1409.66182373406
-0.422773105729446,1409.67182373406
-0.430642386075576,1409.68182373406
-0.438716989019485,1409.69182373406
-0.446345356078221,1409.70182373406
-0.453472191012483,1409.71182373406
-0.458511298885187,1409.72182373406
-0.456282419154772,1409.73182373406
-0.437733931637898,1409.74182373406
-0.391452042342863,1409.75182373406
-0.313043817747193,1409.76182373406
-0.205368076891894,1409.77182373406
-0.0806120662320658,1409.78182373406
0.0469111589557628,1409.79182373406
0.163053657105597,1409.80182373406
0.259519639647337,1409.81182373406
0.333289157033948,1409.82182373406
0.385323588477115,1409.83182373406
0.419903763641393,1409.84182373406
0.441788706081974,1409.85182373406
0.453676686634349,1409.86182373406
0.458429328411635,1409.87182373406
0.457612020701289,1409.88182373406
0.45128988815859,1409.89182373406
0.440131130458659,1409.90182373406
0.424802150732784,1409.91182373406
0.405633936182543,1409.92182373406
0.382901432962403,1409.93182373406
0.358387911069166,1409.94182373406
0.332320152152157,1409.95182373406
0.305486700114507,1409.96182373406
0.278471299689188,1409.97182373406
0.250828230618446,1409.98182373406
0.222413492788944,1409.99182373406
0.192991281500894,1410.00182373406
0.162390751067559,1410.01182373406
0.13141060135166,1410.02182373406
0.100386820714115,1410.03182373406
0.0702801458174603,1410.04182373406
0.0418069177992172,1410.05182373406
0.0161303200730009,1410.06182373406
-0.00555277453754286,1410.07182373406
-0.022135245361194,1410.08182373406
-0.0325408436548791,1410.09182373406
-0.0371311304952385,1410.10182373406
-0.035283181176797,1410.11182373406
-0.0271814555492392,1410.12182373406
-0.0137696007757722,1410.13182373406
0.0036513915002606,1410.14182373406
0.0232953910695383,1410.15182373406
0.0426956364245491,1410.16182373406
0.0602785327268846,1410.17182373406
0.0750318926099405,1410.18182373406
0.0861965530154549,1410.19182373406
0.0935377874861926,1410.20182373406
0.0968234249086826,1410.21182373406
0.0973867237483877,1410.22182373406
0.0951904751764817,1410.23182373406
0.0902744821222016,1410.24182373406
0.0839280705364589,1410.25182373406
0.0757272596970914,1410.26182373406
0.0653630211428595,1410.27182373406
0.0532426412049057,1410.28182373406
0.0399927452480619,1410.29182373406
0.0255779002403617,1410.30182373406
0.0105425179192572,1410.31182373406
-0.00513899914282094,1410.32182373406
-0.0207501383236265,1410.33182373406
-0.0363528596463239,1410.34182373406
-0.0520675692102675,1410.35182373406
-0.0672477456807071,1410.36182373406
-0.0831720472255312,1410.37182373406
-0.0987867997321036,1410.38182373406
-0.114812485369601,1410.39182373406
-0.130727726864403,1410.40182373406
-0.14675468996843,1410.41182373406
-0.162148173792493,1410.42182373406
-0.177089688186179,1410.43182373406
-0.191169274051818,1410.44182373406
-0.204703515561042,1410.45182373406
-0.218078134130093,1410.46182373406
-0.231522866355365,1410.47182373406
-0.244594083227569,1410.48182373406
-0.256956189125997,1410.49182373406
-0.26878962210409,1410.50182373406
-0.279761415163209,1410.51182373406
-0.290512300501346,1410.52182373406
-0.30090005494602,1410.53182373406
-0.311138042346192,1410.54182373406
-0.320723257112043,1410.55182373406
-0.330212807633229,1410.56182373406
-0.339707504611775,1410.57182373406
-0.34893678143269,1410.58182373406
-0.358264902630537,1410.59182373406
-0.367360812012023,1410.60182373406
-0.3764967555406,1410.61182373406
-0.385241653268232,1410.62182373406
-0.393585537403463,1410.63182373406
-0.40174366516915,1410.64182373406
-0.409441974309102,1410.65182373406
-0.415531309802033,1410.66182373406
-0.416838002399067,1410.67182373406
-0.405823213570051,1410.68182373406
-0.372547734552936,1410.69182373406
-0.309525236129572,1410.70182373406
-0.215916831419496,1410.71182373406
-0.100154276096803,1410.72182373406
0.0242601206312754,1410.73182373406
0.143242174872173,1410.74182373406
0.245997446034901,1410.75182373406
0.32712207362088,1410.76182373406
0.386180809171403,1410.77182373406
0.426301721064927,1410.78182373406
0.451618934235867,1410.79182373406
0.465562640467264,1410.80182373406
0.471432935596675,1410.81182373406
0.470381698439739,1410.82182373406
0.463440670413336,1410.83182373406
0.451383124018603,1410.84182373406
0.434453483922064,1410.85182373406
0.413883989284628,1410.86182373406
0.390318747653762,1410.87182373406
0.364705373607932,1410.88182373406
0.33774086430217,1410.89182373406
0.309808749476221,1410.90182373406
0.281296179803604,1410.91182373406
0.253191707423385,1410.92182373406
0.223893920628646,1410.93182373406
0.194154740344828,1410.94182373406
0.163468790230089,1410.95182373406
0.131618945290946,1410.96182373406
0.100016660479905,1410.97182373406
0.0694006363124132,1410.98182373406
0.0415079303296385,1410.99182373406
0.0164547304995734,1411.00182373406
-0.00426168757742332,1411.01182373406
-0.0203012531106362,1411.02182373406
-0.0309853075198837,1411.03182373406
-0.0351527690235224,1411.04182373406
-0.0331969929732159,1411.05182373406
-0.0247152970070266,1411.06182373406
-0.0113923272768379,1411.07182373406
0.00592534093966117,1411.08182373406
0.0250379420411978,1411.09182373406
0.044274969863412,1411.10182373406
0.0620594305988765,1411.11182373406
0.076671230629102,1411.12182373406
0.0875218933055967,1411.13182373406
0.0945445554301289,1411.14182373406
0.0980150786936442,1411.15182373406
0.0979475910097577,1411.16182373406
0.0951600608970598,1411.17182373406
0.0897774254584427,1411.18182373406
0.0822343736702656,1411.19182373406
0.0737060242543391,1411.20182373406
0.0630195655346179,1411.21182373406
0.0515560290737215,1411.22182373406
0.0389901788790831,1411.23182373406
0.0253912533954757,1411.24182373406
0.0113559274836726,1411.25182373406
-0.00307905404463854,1411.26182373406
-0.0175937584548526,1411.27182373406
-0.0323490028559754,1411.28182373406
-0.0472249697502338,1411.29182373406
-0.062139719079136,1411.30182373406
-0.0778130675380818,1411.31182373406
-0.0934811700342273,1411.32182373406
-0.109405476324157,1411.33182373406
-0.124656057016373,1411.34182373406
-0.13915238817204,1411.35182373406
-0.152909199638509,1411.36182373406
-0.166214521724138,1411.37182373406
-0.179446313967495,1411.38182373406
-0.192969506075612,1411.39182373406
-0.206215157474343,1411.40182373406
-0.219220676143402,1411.41182373406
-0.231915107262127,1411.42182373406
-0.243929966456834,1411.43182373406
-0.255837389783434,1411.44182373406
-0.267417583673221,1411.45182373406
-0.279096107465063,1411.46182373406
-0.289930780133509,1411.47182373406
-0.300361324246008,1411.48182373406
-0.309788614489726,1411.49182373406
-0.319051484320195,1411.50182373406
-0.328453558871512,1411.51182373406
-0.33783498098091,1411.52182373406
-0.347329029757979,1411.53182373406
-0.356487193340411,1411.54182373406
-0.365478265546672,1411.55182373406
-0.37398399300981,1411.56182373406
-0.38247934019838,1411.57182373406
-0.389945852240634,1411.58182373406
-0.394689541579052,1411.59182373406
-0.390941928816106,1411.60182373406
-0.370006611965321,1411.61182373406
-0.321977551649971,1411.62182373406
-0.242403594311643,1411.63182373406
-0.136232210207756,1411.64182373406
-0.0144878317271146,1411.65182373406
0.107788619860753,1411.66182373406
0.218223072442941,1411.67182373406
0.309588556321012,1411.68182373406
0.37836955734437,1411.69182373406
0.426888038318845,1411.70182373406
0.457701074015578,1411.71182373406
0.475593703103418,1411.72182373406
0.483018191116577,1411.73182373406
0.48271630706675,1411.74182373406
0.476578846289856,1411.75182373406
0.464773560052365,1411.76182373406
0.449306906945448,1411.77182373406
0.430285321773808,1411.78182373406
0.408248565137519,1411.79182373406
0.383233942568052,1411.80182373406
0.356600898905782,1411.81182373406
0.329000006979891,1411.82182373406
0.300124821788141,1411.83182373406
0.271054515310707,1411.84182373406
0.241529700293965,1411.85182373406
0.211455334868492,1411.86182373406
0.181364297818933,1411.87182373406
0.150462383663879,1411.88182373406
0.118613088166126,1411.89182373406
0.0877206340768728,1411.90182373406
0.0579769360145012,1411.91182373406
0.031190316450723,1411.92182373406
0.0093650473681074,1411.93182373406
-0.00720865318079329,1411.94182373406
-0.0171842693295174,1411.95182373406
-0.0211060896872071,1411.96182373406
-0.0188357286544027,1411.97182373406
-0.010944414654407,1411.98182373406
0.00246314360181613,1411.99182373406
0.0193061188667434,1412.00182373406
0.0383138061713304,1412.01182373406
0.0572309334424503,1412.02182373406
0.0748294069487337,1412.03182373406
0.089174615127816,1412.04182373406
0.100136158482981,1412.05182373406
0.107854897059332,1412.06182373406
0.111941953449951,1412.07182373406
0.112810913109502,1412.08182373406
0.111232936605783,1412.09182373406
0.107755208706098,1412.10182373406
0.101354036126501,1412.11182373406
0.0928755867348668,1412.12182373406
0.0822764240344012,1412.13182373406
0.0700961316774076,1412.14182373406
0.0564791442123347,1412.15182373406
0.0419477739664258,1412.16182373406
0.0268300360666012,1412.17182373406
0.0116818303644134,1412.18182373406
-0.00352124198467714,1412.19182373406
-0.0188370871304054,1412.20182373406
-0.0339704395090097,1412.21182373406
-0.0489486203819531,1412.22182373406
-0.0642826192413157,1412.23182373406
-0.0794398052514032,1412.24182373406
-0.0945263912277417,1412.25182373406
-0.109272868761672,1412.26182373406
-0.124263525555282,1412.27182373406
-0.139203240071868,1412.28182373406
-0.153342011500784,1412.29182373406
-0.166947795792187,1412.30182373406
-0.180335813175469,1412.31182373406
-0.193471128102178,1412.32182373406
-0.206177304089847,1412.33182373406
-0.218282409255629,1412.34182373406
-0.230142721916166,1412.35182373406
-0.241969697335905,1412.36182373406
-0.253592482733987,1412.37182373406
-0.26517780761358,1412.38182373406
-0.276279512065371,1412.39182373406
-0.287153045403706,1412.40182373406
-0.297530088970786,1412.41182373406
-0.307826497295624,1412.42182373406
-0.317287468041956,1412.43182373406
-0.326367001500417,1412.44182373406
-0.33517456310877,1412.45182373406
-0.343568545010157,1412.46182373406
-0.351813693343435,1412.47182373406
-0.360257089325398,1412.48182373406
-0.368226615080298,1412.49182373406
-0.374464791019071,1412.50182373406
-0.375071715856017,1412.51182373406
-0.361171114594236,1412.52182373406
-0.322852777619033,1412.53182373406
-0.254035553801404,1412.54182373406
-0.157009665792291,1412.55182373406
-0.0415413136420403,1412.56182373406
0.0785099848190239,1412.57182373406
0.189644940555489,1412.58182373406
0.284006312752608,1412.59182373406
0.356658825382405,1412.60182373406
0.408439335323505,1412.61182373406
0.442402726844302,1412.62182373406
0.462465459887209,1412.63182373406
0.472556512774098,1412.64182373406
0.474076311308601,1412.65182373406
0.468835183428338,1412.66182373406
0.457853691882763,1412.67182373406
0.442079040096417,1412.68182373406
0.421835931819278,1412.69182373406
0.398413669447268,1412.70182373406
0.372095073147692,1412.71182373406
0.343909671607375,1412.72182373406
0.314420798895446,1412.73182373406
0.284227113796196,1412.74182373406
0.253929691427723,1412.75182373406
0.223198399895288,1412.76182373406
0.191446016327841,1412.77182373406
0.159312135318984,1412.78182373406
0.126960573260524,1412.79182373406
0.0949271744240198,1412.80182373406
0.0633877786629529,1412.81182373406
0.0336501885873802,1412.82182373406
0.00745959485733592,1412.83182373406
-0.0138138689037076,1412.84182373406
-0.0293305010349542,1412.85182373406
-0.0382666024323405,1412.86182373406
-0.0399408667882112,1412.87182373406
-0.0342791539801077,1412.88182373406
-0.0213573877623991,1412.89182373406
-0.00290667880639636,1412.90182373406
0.0189373524218341,1412.91182373406
0.0422239636761375,1412.92182373406
0.0641788879661787,1412.93182373406
0.0827759201726145,1412.94182373406
0.0976670319517835,1412.95182373406
0.109356511614494,1412.96182373406
0.116516731183146,1412.97182373406
0.120096548931184,1412.98182373406
0.120334637038703,1412.99182373406
0.117968008303746,1413.00182373406
0.112761706049111,1413.01182373406
0.105739674951722,1413.02182373406
0.0958199940683504,1413.03182373406
0.0846262825424276,1413.04182373406
0.071049088704822,1413.05182373406
0.0566097550834323,1413.06182373406
0.0411962892310603,1413.07182373406
0.0249977147313401,1413.08182373406
0.00891211460371987,1413.09182373406
-0.00757605964143179,1413.10182373406
-0.0232659121013765,1413.11182373406
-0.0391774654784316,1413.12182373406
-0.0554231281260334,1413.13182373406
-0.0714122911814443,1413.14182373406
-0.0868521223933247,1413.15182373406
-0.10247014342029,1413.16182373406
-0.116788400686935,1413.17182373406
-0.130423438088098,1413.18182373406
-0.143193019763188,1413.19182373406
-0.154830623818362,1413.20182373406
-0.165393428684132,1413.21182373406
-0.175883677234119,1413.22182373406
-0.18565183521833,1413.23182373406
-0.196019737963905,1413.24182373406
-0.206315746171583,1413.25182373406
-0.216595165708531,1413.26182373406
-0.226984754709637,1413.27182373406
-0.237764042103947,1413.28182373406
-0.24782303576615,1413.29182373406
-0.257425934253165,1413.30182373406
-0.267081178937693,1413.31182373406
-0.276047204385315,1413.32182373406
-0.28530807074697,1413.33182373406
-0.293879337634076,1413.34182373406
-0.300079769615559,1413.35182373406
-0.299280811821256,1413.36182373406
-0.282994745547927,1413.37182373406
-0.242351758519028,1413.38182373406
-0.173166368461774,1413.39182373406
-0.0789367431095668,1413.40182373406
0.03121145206847,1413.41182373406
0.144472577608366,1413.42182373406
0.24903794957424,1413.43182373406
0.336226685502506,1413.44182373406
0.402559902776751,1413.45182373406
0.448978567964673,1413.46182373406
0.478958990896669,1413.47182373406
0.495282726854393,1413.48182373406
0.501645927464205,1413.49182373406
0.500375079882551,1413.50182373406
0.493188989366263,1413.51182373406
0.481168929196017,1413.52182373406
0.4649306665955,1413.53182373406
0.444859517579365,1413.54182373406
0.421584458789669,1413.55182373406
0.395985257919453,1413.56182373406
0.36835189011589,1413.57182373406
0.339534898787639,1413.58182373406
0.310764752632044,1413.59182373406
0.281108326427117,1413.60182373406
0.251193167587331,1413.61182373406
0.219829765566129,1413.62182373406
0.187908054769328,1413.63182373406
0.155382998442278,1413.64182373406
0.123200401263137,1413.65182373406
0.0936547097699784,1413.66182373406
0.0681160582530438,1413.67182373406
0.0474613960001816,1413.68182373406
0.0331488950125195,1413.69182373406
0.0254741275540799,1413.70182373406
0.0246404798759029,1413.71182373406
0.030516356514071,1413.72182373406
0.0429201420033501,1413.73182373406
0.0604848144478207,1413.74182373406
0.0809465074589263,1413.75182373406
0.1020552577524,1413.76182373406
0.122414956547756,1413.77182373406
0.139997655232932,1413.78182373406
0.153850140922516,1413.79182373406
0.163826865779603,1413.80182373406
0.169400300324065,1413.81182373406
0.171299315164525,1413.82182373406
0.169802476748279,1413.83182373406
0.165418919314485,1413.84182373406
0.15855892803135,1413.85182373406
0.149416936013395,1413.86182373406
0.138288975816558,1413.87182373406
0.125680046238313,1413.88182373406
0.111907355446507,1413.89182373406
0.0972480075484566,1413.90182373406
0.0821160584104815,1413.91182373406
0.0664599012962226,1413.92182373406
0.0501083818271563,1413.93182373406
0.0335316377753234,1413.94182373406
0.0166572211304168,1413.95182373406
0.000156177474679058,1413.96182373406
-0.0161216267165637,1413.97182373406
-0.0316255846918569,1413.98182373406
-0.0468611780395284,1413.99182373406
-0.0617808397603305,1414.00182373406
-0.0757112747976101,1414.01182373406
-0.0883293894327132,1414.02182373406
-0.10010653735732,1414.03182373406
-0.111066659433546,1414.04182373406
-0.122002056527283,1414.05182373406
-0.132991198212197,1414.06182373406
-0.144078215820752,1414.07182373406
-0.155644574192476,1414.08182373406
-0.167286075818362,1414.09182373406
-0.178902313618446,1414.10182373406
-0.190995118747786,1414.11182373406
-0.202702503298905,1414.12182373406
-0.213973174812838,1414.13182373406
-0.22496988114695,1414.14182373406
-0.235513017014229,1414.15182373406
-0.24406707552277,1414.16182373406
-0.24761793822579,1414.17182373406
-0.240321295868592,1414.18182373406
-0.212084586588576,1414.19182373406
-0.156075924482852,1414.20182373406
-0.0715299064303049,1414.21182373406
0.035262309328814,1414.22182373406
0.151321055051125,1414.23182373406
0.263518591279461,1414.24182373406
0.361521149296553,1414.25182373406
0.440530594370289,1414.26182373406
0.49982555983032,1414.27182373406
0.541907378186518,1414.28182373406
0.568965634080949,1414.29182373406
0.585660382842981,1414.30182373406
0.593336927029737,1414.31182373406
0.59446442598308,1414.32182373406
0.589412079390743,1414.33182373406
0.579522455494235,1414.34182373406
0.565350751993678,1414.35182373406
0.547949826206197,1414.36182373406
0.52714663141018,1414.37182373406
0.504891065304772,1414.38182373406
0.481926248584938,1414.39182373406
0.458802712528639,1414.40182373406
0.435807714174977,1414.41182373406
0.412808399724757,1414.42182373406
0.389546213740867,1414.43182373406
0.365006588379397,1414.44182373406
0.339884419268443,1414.45182373406
0.312498911038852,1414.46182373406
0.283834901134295,1414.47182373406
0.256016234152644,1414.48182373406
0.230588819109343,1414.49182373406
0.209020162905487,1414.50182373406
0.19221246452645,1414.51182373406
0.18141524607366,1414.52182373406
0.175862067535422,1414.53182373406
0.176165522381726,1414.54182373406
0.182458487929244,1414.55182373406
0.194326603748337,1414.56182373406
0.210082196152536,1414.57182373406
0.228741917189758,1414.58182373406
0.247574616311074,1414.59182373406
0.264340837298705,1414.60182373406
0.277493789829965,1414.61182373406
0.28633605475462,1414.62182373406
0.291494119215287,1414.63182373406
0.292596743955666,1414.64182373406
0.290350596264606,1414.65182373406
0.285621431149697,1414.66182373406
0.277775755024914,1414.67182373406
0.267133424870038,1414.68182373406
0.255029607458567,1414.69182373406
0.241452623343781,1414.70182373406
0.22616377110431,1414.71182373406
0.210304262367185,1414.72182373406
0.193616484008753,1414.73182373406
0.176040791745562,1414.74182373406
0.158272910852111,1414.75182373406
0.140187667831699,1414.76182373406
0.121588024029361,1414.77182373406
0.103658096193685,1414.78182373406
0.0856305964694113,1414.79182373406
0.0682297131649189,1414.80182373406
0.0513524116388767,1414.81182373406
0.035225440300246,1414.82182373406
0.0197215537718218,1414.83182373406
0.00504008526105151,1414.84182373406
-0.0091206653096127,1414.85182373406
-0.0227455767159821,1414.86182373406
-0.0353591549903724,1414.87182373406
-0.0474886462526311,1414.88182373406
-0.05910728431496,1414.89182373406
-0.0703361077147217,1414.90182373406
-0.0825282229056895,1414.91182373406
-0.094511870658976,1414.92182373406
-0.106145357163577,1414.93182373406
-0.118446727703451,1414.94182373406
-0.130466507547116,1414.95182373406
-0.142280132622684,1414.96182373406
-0.153817162327969,1414.97182373406
-0.164402546474941,1414.98182373406
-0.17383163740602,1414.99182373406
-0.179499184996057,1415.00182373406
-0.175911414235371,1415.01182373406
-0.153789064674739,1415.02182373406
-0.104969732681611,1415.03182373406
-0.0266854985505556,1415.04182373406
0.0754483295078204,1415.05182373406
0.190120659636891,1415.06182373406
0.304343088415058,1415.07182373406
0.406308831447935,1415.08182373406
0.490513347818463,1415.09182373406
0.555061008272598,1415.10182373406
0.601647580990155,1415.11182373406
0.63423039956799,1415.12182373406
0.655121676474082,1415.13182373406
0.666809372994472,1415.14182373406
0.670930318952761,1415.15182373406
0.668333722539225,1415.16182373406
0.660812616377107,1415.17182373406
0.648176789993482,1415.18182373406
0.631622655139766,1415.19182373406
0.611876653582116,1415.20182373406
0.59018666307835,1415.21182373406
0.567076494485151,1415.22182373406
0.544537832641151,1415.23182373406
0.522435665940214,1415.24182373406
0.500349906298902,1415.25182373406
0.478482880685524,1415.26182373406
0.455096617805336,1415.27182373406
0.43006549882244,1415.28182373406
0.403617819055556,1415.29182373406
0.375365376832228,1415.30182373406
0.347237894903779,1415.31182373406
0.320387117268211,1415.32182373406
0.296879921112787,1415.33182373406
0.277406823260731,1415.34182373406
0.263159382043372,1415.35182373406
0.254937064548734,1415.36182373406
0.252985538297008,1415.37182373406
0.257265156649174,1415.38182373406
0.265990146121262,1415.39182373406
0.279174528489351,1415.40182373406
0.294897393014861,1415.41182373406
0.311351105064524,1415.42182373406
0.327893480070577,1415.43182373406
0.341571761207183,1415.44182373406
0.352113282574784,1415.45182373406
0.359226272276457,1415.46182373406
0.362280062298031,1415.47182373406
0.361376612074245,1415.48182373406
0.356666883790693,1415.49182373406
0.3488999893515,1415.50182373406
0.338338781256125,1415.51182373406
0.325391504898745,1415.52182373406
0.310041699266401,1415.53182373406
0.293143169925793,1415.54182373406
0.275587210409576,1415.55182373406
0.25842693913472,1415.56182373406
0.240994259274602,1415.57182373406
0.223476992072584,1415.58182373406
0.205444399135532,1415.59182373406
0.187242387167565,1415.60182373406
0.16878068182026,1415.61182373406
0.150519578351645,1415.62182373406
0.133370194809505,1415.63182373406
0.116404588930441,1415.64182373406
0.100357414307466,1415.65182373406
0.084292283233491,1415.66182373406
0.068633760169369,1415.67182373406
0.0534007968770566,1415.68182373406
0.0384738816809541,1415.69182373406
0.0240805914315696,1415.70182373406
0.00984344688282961,1415.71182373406
-0.00357280533453288,1415.72182373406
-0.0163748025147035,1415.73182373406
-0.0286984016682163,1415.74182373406
-0.0401149672328568,1415.75182373406
-0.0516224587027882,1415.76182373406
-0.0635131860816749,1415.77182373406
-0.0755516546279459,1415.78182373406
-0.0880359623513252,1415.79182373406
-0.100216905323876,1415.80182373406
-0.112505061577724,1415.81182373406
-0.123696176011741,1415.82182373406
-0.134296063836232,1415.83182373406
-0.14335144500309,1415.84182373406
-0.14844792926456,1415.85182373406
-0.144110076169403,1415.86182373406
-0.121845847851045,1415.87182373406
-0.0731770512953435,1415.88182373406
0.00431923609649429,1415.89182373406
0.105429150224044,1415.90182373406
0.220545148370693,1415.91182373406
0.33588107504604,1415.92182373406
0.439955927962666,1415.93182373406
0.526051045143663,1415.94182373406
0.59235860270181,1415.95182373406
0.640827031446228,1415.96182373406
0.673629756883455,1415.97182373406
0.694529574529541,1415.98182373406
0.705253525827552,1415.99182373406
0.70863164052292,1416.00182373406
0.704965126855841,1416.01182373406
0.695983183518853,1416.02182373406
0.682431804684748,1416.03182373406
0.664953495513059,1416.04182373406
0.644733325922796,1416.05182373406
0.622032565075066,1416.06182373406
0.597667186849418,1416.07182373406
0.57230385283503,1416.08182373406
0.546919048189001,1416.09182373406
0.521758503291134,1416.10182373406
0.49678958219556,1416.11182373406
0.471283958853356,1416.12182373406
0.444329132673615,1416.13182373406
0.417038502455914,1416.14182373406
0.388619159333942,1416.15182373406
0.360920829926419,1416.16182373406
0.334631527059871,1416.17182373406
0.31145557096433,1416.18182373406
0.293043341801194,1416.19182373406
0.28060205034063,1416.20182373406
0.273960886911713,1416.21182373406
0.273335670152367,1416.22182373406
0.278460312793171,1416.23182373406
0.288283042307593,1416.24182373406
0.302189118639278,1416.25182373406
0.318440236010483,1416.26182373406
0.336177723257268,1416.27182373406
0.353539644163438,1416.28182373406
0.368580282364189,1416.29182373406
0.380488403505937,1416.30182373406
0.388412753078117,1416.31182373406
0.391836484838095,1416.32182373406
0.390491299196588,1416.33182373406
0.385420800418093,1416.34182373406
0.376717801502766,1416.35182373406
0.364915919703861,1416.36182373406
0.351477792856056,1416.37182373406
0.336671422124292,1416.38182373406
0.320553572733842,1416.39182373406
0.30376772622971,1416.40182373406
0.285879876886002,1416.41182373406
0.26759744342331,1416.42182373406
0.248441716609939,1416.43182373406
0.228876575805592,1416.44182373406
0.209453247530357,1416.45182373406
0.189655309918802,1416.46182373406
0.170516859994984,1416.47182373406
0.152109581116117,1416.48182373406
0.134237524740516,1416.49182373406
0.116848557498555,1416.50182373406
0.100095515300939,1416.51182373406
0.0842016594488066,1416.52182373406
0.0685971889040317,1416.53182373406
0.0529386331163984,1416.54182373406
0.0384340575293518,1416.55182373406
0.0240173424052891,1416.56182373406
0.0103599503763005,1416.57182373406
-0.00279002487553922,1416.58182373406
-0.0154834896250505,1416.59182373406
-0.0277798097031903,1416.60182373406
-0.0402685752976758,1416.61182373406
-0.0522838534456221,1416.62182373406
-0.0638016765871463,1416.63182373406
-0.0751990693157591,1416.64182373406
-0.0857061208010247,1416.65182373406
-0.095720933395962,1416.66182373406
-0.10580815283442,1416.67182373406
-0.11562677259392,1416.68182373406
-0.124660789689756,1416.69182373406
-0.132630243530988,1416.70182373406
-0.136252875286936,1416.71182373406
-0.129897989092441,1416.72182373406
-0.105077668100395,1416.73182373406
-0.0541078064750297,1416.74182373406
0.0249201013153536,1416.75182373406
0.126533479440626,1416.76182373406
0.238653353515126,1416.77182373406
0.349255031446839,1416.78182373406
0.447426067551167,1416.79182373406
0.526933773279674,1416.80182373406
0.587123815871218,1416.81182373406
0.629566050610754,1416.82182373406
0.657339037122587,1416.83182373406
0.672990417570779,1416.84182373406
0.67938119935419,1416.85182373406
0.678425338902383,1416.86182373406
0.670953434386545,1416.87182373406
0.658220023031618,1416.88182373406
0.640487768659245,1416.89182373406
0.61896626649262,1416.90182373406
0.594757115371879,1416.91182373406
0.568406819435408,1416.92182373406
0.541333200770149,1416.93182373406
0.513592023579875,1416.94182373406
0.485810290298742,1416.95182373406
0.457812823883724,1416.96182373406
0.428821320261113,1416.97182373406
0.399452348950371,1416.98182373406
0.368692176508098,1416.99182373406
0.337276111677691,1417.00182373406
0.306405574501546,1417.01182373406
0.277750101136927,1417.02182373406
0.253357274368393,1417.03182373406
0.233955758122886,1417.04182373406
0.220740334183728,1417.05182373406
0.213643245807911,1417.06182373406
0.21362069412033,1417.07182373406
0.220480924378633,1417.08182373406
0.232841025843509,1417.09182373406
0.249877806098117,1417.10182373406
0.269397844876337,1417.11182373406
0.289933696744586,1417.12182373406
0.30938803179391,1417.13182373406
0.326501986872266,1417.14182373406
0.339503102176503,1417.15182373406
0.347966657011416,1417.16182373406
0.351717107140528,1417.17182373406
0.351647197465475,1417.18182373406
0.348199271142467,1417.19182373406
0.342015444711764,1417.20182373406
0.333072356904956,1417.21182373406
0.322069850508131,1417.22182373406
0.308360949521873,1417.23182373406
0.292866233893153,1417.24182373406
0.276228045703885,1417.25182373406
0.258736728529787,1417.26182373406
0.240702769590242,1417.27182373406
0.222466234361188,1417.28182373406
0.204548997557791,1417.29182373406
0.186740815008878,1417.30182373406
0.169335823952757,1417.31182373406
0.151355686493967,1417.32182373406
0.133968902888382,1417.33182373406
0.116485224833899,1417.34182373406
0.0994401715234505,1417.35182373406
0.0833761806439922,1417.36182373406
0.0680328058528046,1417.37182373406
0.0538210480138384,1417.38182373406
0.0404751745774848,1417.39182373406
0.0274296498803485,1417.40182373406
0.0148233627060595,1417.41182373406
0.00273148410057603,1417.42182373406
-0.00881418521691933,1417.43182373406
-0.0206604177887817,1417.44182373406
-0.0326469884860335,1417.45182373406
-0.0449606345279366,1417.46182373406
-0.0566202951992875,1417.47182373406
-0.068134005479066,1417.48182373406
-0.0796660773239163,1417.49182373406
-0.0904747668590895,1417.50182373406
-0.101166794285359,1417.51182373406
-0.111855654570342,1417.52182373406
-0.120849148591535,1417.53182373406
-0.127109841159928,1417.54182373406
-0.125270001693103,1417.55182373406
-0.1072644261325,1417.56182373406
-0.065535932174097,1417.57182373406
0.0034096027777721,1417.58182373406
0.0954385149112584,1417.59182373406
0.201166633968229,1417.60182373406
0.307453268709217,1417.61182373406
0.404209637956374,1417.62182373406
0.484850559040033,1417.63182373406
0.547304225917563,1417.64182373406
0.592178237030797,1417.65182373406
0.622365393422325,1417.66182373406
0.640881773723831,1417.67182373406
0.649706236710089,1417.68182373406
0.650513295046113,1417.69182373406
0.644373594263324,1417.70182373406
0.632271967764624,1417.71182373406
0.615641789085804,1417.72182373406
0.595716294336616,1417.73182373406
0.573655788056933,1417.74182373406
0.549569755651102,1417.75182373406
0.524059275659529,1417.76182373406
0.49747557768002,1417.77182373406
0.469728224293791,1417.78182373406
0.441489042898938,1417.79182373406
0.412298862558152,1417.80182373406
0.382676781455786,1417.81182373406
0.35187733134113,1417.82182373406
0.320638117430129,1417.83182373406
0.290128471653698,1417.84182373406
0.262403572108203,1417.85182373406
0.238514505580435,1417.86182373406
0.219519825721908,1417.87182373406
0.206852416556318,1417.88182373406
0.201349473466417,1417.89182373406
0.202623784799043,1417.90182373406
0.210541505114845,1417.91182373406
0.224467253732746,1417.92182373406
0.242554136640148,1417.93182373406
0.262783194800071,1417.94182373406
0.283722462257608,1417.95182373406
0.302838753604526,1417.96182373406
0.318296256604275,1417.97182373406
0.329640157253939,1417.98182373406
0.336284821477817,1417.99182373406
0.338731407401385,1418.00182373406
0.337349165536021,1418.01182373406
0.333424456245728,1418.02182373406
0.326057164630056,1418.03182373406
0.317075058453136,1418.04182373406
0.30563859693135,1418.05182373406
0.292399210262005,1418.06182373406
0.277452110109817,1418.07182373406
0.261180858435585,1418.08182373406
0.244280846723288,1418.09182373406
0.226762020870065,1418.10182373406
0.208839154785793,1418.11182373406
0.190477149177368,1418.12182373406
0.172522490795571,1418.13182373406
0.154843397630947,1418.14182373406
0.136954907768399,1418.15182373406
0.12004183831334,1418.16182373406
0.103400556256937,1418.17182373406
0.0871430760114507,1418.18182373406
0.0716038863886669,1418.19182373406
0.0560760991845812,1418.20182373406
0.0411659378320696,1418.21182373406
0.0264850781917475,1418.22182373406
0.0122602338914999,1418.23182373406
-0.0014138269128818,1418.24182373406
-0.0144775443359371,1418.25182373406
-0.0266180902378482,1418.26182373406
-0.0385074769960645,1418.27182373406
-0.050165990881069,1418.28182373406
-0.0614850305068333,1418.29182373406
-0.0731775988246446,1418.30182373406
-0.0847900738254259,1418.31182373406
-0.096697902783206,1418.32182373406
-0.108810191515765,1418.33182373406
-0.120668799203303,1418.34182373406
-0.131519872573003,1418.35182373406
-0.141365200325437,1418.36182373406
-0.148662533209136,1418.37182373406
-0.148414773177245,1418.38182373406
-0.1322899000559,1418.39182373406
-0.0915162570969443,1418.40182373406
-0.0221872848982684,1418.41182373406
0.0718699063082165,1418.42182373406
0.181332948240308,1418.43182373406
0.293031712363071,1418.44182373406
0.396402529100144,1418.45182373406
0.484361069839524,1418.46182373406
0.554550804320719,1418.47182373406
0.607612081235722,1418.48182373406
0.645543829950487,1418.49182373406
0.671573860896918,1418.50182373406
0.687822830091543,1418.51182373406
0.695473142816532,1418.52182373406
0.696354392831932,1418.53182373406
0.691131846226304,1418.54182373406
0.680690614099973,1418.55182373406
0.665845949101522,1418.56182373406
0.64721008462854,1418.57182373406
0.626405378652764,1418.58182373406
0.604206878378161,1418.59182373406
0.582139720760162,1418.60182373406
0.5605188634845,1418.61182373406
0.538960218938732,1418.62182373406
0.517225803602793,1418.63182373406
0.494661810305703,1418.64182373406
0.470430065150063,1418.65182373406
0.44479632261735,1418.66182373406
0.418257196624338,1418.67182373406
0.391071606740988,1418.68182373406
0.364949112291519,1418.69182373406
0.340837170567718,1418.70182373406
0.321058813157335,1418.71182373406
0.305972768396025,1418.72182373406
0.297306947000293,1418.73182373406
0.295350246277017,1418.74182373406
0.299586330351769,1418.75182373406
0.310156487385475,1418.76182373406
0.324907362937439,1418.77182373406
0.342751902568429,1418.78182373406
0.36122876746822,1418.79182373406
0.378787378153053,1418.80182373406
0.393011081355073,1418.81182373406
0.40356590745793,1418.82182373406
0.409555418328552,1418.83182373406
0.411647914437743,1418.84182373406
0.409136646655643,1418.85182373406
0.403032328194508,1418.86182373406
0.395292752805275,1418.87182373406
0.384322592869307,1418.88182373406
0.371776647942837,1418.89182373406
0.357782962456241,1418.90182373406
0.342086974330094,1418.91182373406
0.325085917049775,1418.92182373406
0.3074214776235,1418.93182373406
0.289064284948841,1418.94182373406
0.270193642486631,1418.95182373406
0.251281342763748,1418.96182373406
0.23212079351758,1418.97182373406
0.213216431692908,1418.98182373406
0.19484134575475,1418.99182373406
0.177050393999774,1419.00182373406
0.159400494673199,1419.01182373406
0.142110934036766,1419.02182373406
0.124732157177952,1419.03182373406
0.107790628443409,1419.04182373406
0.0915497909348051,1419.05182373406
0.0760514630109381,1419.06182373406
0.0608846726445239,1419.07182373406
0.0461861135106915,1419.08182373406
0.0320106410043574,1419.09182373406
0.0179350857378788,1419.10182373406
0.00412821072402109,1419.11182373406
-0.00877846313287283,1419.12182373406
-0.0214788083331927,1419.13182373406
-0.0338398492941391,1419.14182373406
-0.0454514362464876,1419.15182373406
-0.0567892381008787,1419.16182373406
-0.067483597025423,1419.17182373406
-0.0778910927624274,1419.18182373406
-0.0884151590280761,1419.19182373406
-0.0986119583874626,1419.20182373406
-0.10883334039874,1419.21182373406
-0.119155913433894,1419.22182373406
-0.129492742352197,1419.23182373406
-0.139794776959733,1419.24182373406
-0.149440197918472,1419.25182373406
-0.158167337897467,1419.26182373406
-0.162981760395215,1419.27182373406
-0.157280142533163,1419.28182373406
-0.132299413310876,1419.29182373406
-0.0799287785702702,1419.30182373406
0.0013696748037533,1419.31182373406
0.104572725363206,1419.32182373406
0.218411928548047,1419.33182373406
0.32974988762242,1419.34182373406
0.429362405880698,1419.35182373406
0.511963856273064,1419.36182373406
0.57659417180024,1419.37182373406
0.624528857739252,1419.38182373406
0.658606271340512,1419.39182373406
0.680830875471982,1419.40182373406
0.693251156346717,1419.41182373406
0.697549605769704,1419.42182373406
0.694867427742649,1419.43182373406
0.686085384917638,1419.44182373406
0.673094053144369,1419.45182373406
0.656941543404863,1419.46182373406
0.638358706597154,1419.47182373406
0.61831597270886,1419.48182373406
0.597258496614554,1419.49182373406
0.576096817503413,1419.50182373406
0.554740969898567,1419.51182373406
0.532638723763265,1419.52182373406
0.510220148379576,1419.53182373406
0.487194048921222,1419.54182373406
0.463497476124346,1419.55182373406
0.438479330902836,1419.56182373406
0.413226224629333,1419.57182373406
0.387651027027187,1419.58182373406
0.363022285590062,1419.59182373406
0.340867933737002,1419.60182373406
0.322513480199382,1419.61182373406
0.308691884141586,1419.62182373406
0.300320390311175,1419.63182373406
0.297587257639193,1419.64182373406
0.300348787980252,1419.65182373406
0.309620195193658,1419.66182373406
0.32362600793429,1419.67182373406
0.340110750665457,1419.68182373406
0.357875780259434,1419.69182373406
0.374789125127626,1419.70182373406
0.389533566941686,1419.71182373406
0.400556772626222,1419.72182373406
0.406855989476616,1419.73182373406
0.408668075277881,1419.74182373406
0.405864699331394,1419.75182373406
0.399092502583572,1419.76182373406
0.388573739372485,1419.77182373406
0.375633675948447,1419.78182373406
0.361033196874645,1419.79182373406
0.345400624165621,1419.80182373406
0.328321876729901,1419.81182373406
0.310347391426689,1419.82182373406
0.291871617909959,1419.83182373406
0.272863072478343,1419.84182373406
0.253587621208302,1419.85182373406
0.234161801214048,1419.86182373406
0.214785949004121,1419.87182373406
0.196301310127348,1419.88182373406
0.178714671941821,1419.89182373406
0.162596272181242,1419.90182373406
0.147337665908014,1419.91182373406
0.132112105097719,1419.92182373406
0.116577027536918,1419.93182373406
0.100916064454848,1419.94182373406
0.085279960339406,1419.95182373406
0.0694298126657768,1419.96182373406
0.0548259114575352,1419.97182373406
0.0409195442156574,1419.98182373406
0.0270606935322197,1419.99182373406
0.014153615711835,1420.00182373406
0.00143390471109406,1420.01182373406
-0.0111935275420857,1420.02182373406
-0.0234688156509556,1420.03182373406
-0.0349993591989527,1420.04182373406
-0.0458470608209316,1420.05182373406
-0.0564311318069424,1420.06182373406
-0.0672846384321534,1420.07182373406
-0.078300532638028,1420.08182373406
-0.0889226025182689,1420.09182373406
-0.0998706039350297,1420.10182373406
-0.111458235016242,1420.11182373406
-0.122552289586695,1420.12182373406
-0.133640864395185,1420.13182373406
-0.143818885506361,1420.14182373406
-0.15377695278626,1420.15182373406
-0.162413721370435,1420.16182373406
-0.167553409093267,1420.17182373406
-0.162493143727851,1420.18182373406
-0.138357251033488,1420.19182373406
-0.0876547905266808,1420.20182373406
-0.00845499151987178,1420.21182373406
0.0912650244973352,1420.22182373406
0.200443972848066,1420.23182373406
0.306473921939248,1420.24182373406
0.400451444136645,1420.25182373406
0.477727731972789,1420.26182373406
0.537586607497735,1420.27182373406
0.58094610033895,1420.28182373406
0.610328505394571,1420.29182373406
0.628714292386013,1420.30182373406
0.637642557594524,1420.31182373406
0.639339040494217,1420.32182373406
0.634316835640573,1420.33182373406
0.624125457096424,1420.34182373406
0.609586829392527,1420.35182373406
0.591534439834879,1420.36182373406
0.570639513324913,1420.37182373406
0.54862905108669,1420.38182373406
0.525634616565517,1420.39182373406
0.501892000410351,1420.40182373406
0.478539683771517,1420.41182373406
0.454942705358403,1420.42182373406
0.431420181132696,1420.43182373406
0.407352138294023,1420.44182373406
0.381645408126958,1420.45182373406
0.354328653975137,1420.46182373406
0.326874992649697,1420.47182373406
0.299067905956381,1420.48182373406
0.273504826147689,1420.49182373406
0.251814211076506,1420.50182373406
0.234354390375475,1420.51182373406
0.222394628268121,1420.52182373406
0.216454992259683,1420.53182373406
0.217290478647109,1420.54182373406
0.224322761675535,1420.55182373406
0.236736512247888,1420.56182373406
0.253374912079113,1420.57182373406
0.271645520649428,1420.58182373406
0.289767400601417,1420.59182373406
0.305815552058675,1420.60182373406
0.318216908689869,1420.61182373406
0.32619711308804,1420.62182373406
0.330100832922871,1420.63182373406
0.329563285411515,1420.64182373406
0.325813187955288,1420.65182373406
0.31909125899869,1420.66182373406
0.309838534235676,1420.67182373406
0.298674669496952,1420.68182373406
0.285622513544092,1420.69182373406
0.272125900843829,1420.70182373406
0.257802509447167,1420.71182373406
0.242639135756143,1420.72182373406
0.2264850608297,1420.73182373406
0.209610312051563,1420.74182373406
0.192401092773283,1420.75182373406
0.174717218542683,1420.76182373406
0.157033307376869,1420.77182373406
0.139355837107563,1420.78182373406
0.122062202695608,1420.79182373406
0.104675059599987,1420.80182373406
0.0875188559658719,1420.81182373406
0.070907675547915,1420.82182373406
0.0546149446071093,1420.83182373406
0.0382394637291952,1420.84182373406
0.0221194705848033,1420.85182373406
0.00735794572488603,1420.86182373406
-0.00691353366491337,1420.87182373406
-0.0208188811053902,1420.88182373406
-0.0339277672081022,1420.89182373406
-0.0470547690947169,1420.90182373406
-0.0599972567723071,1420.91182373406
-0.0731434953329753,1420.92182373406
-0.0861867848865674,1420.93182373406
-0.0987933210214136,1420.94182373406
-0.110905292213239,1420.95182373406
-0.122941458385329,1420.96182373406
-0.134722690566898,1420.97182373406
-0.145839547309492,1420.98182373406
-0.156785924384114,1420.99182373406
-0.166482246856974,1421.00182373406
-0.173168251870925,1421.01182373406
-0.171209346485978,1421.02182373406
-0.152861509888873,1421.03182373406
-0.109258573019678,1421.04182373406
-0.038377511483398,1421.05182373406
0.0540475594670997,1421.06182373406
0.157938402885574,1421.07182373406
0.26157055882549,1421.08182373406
0.355110840577296,1421.09182373406
0.434003337758384,1421.10182373406
0.496222301460527,1421.11182373406
0.54274321304252,1421.12182373406
0.575204162610205,1421.13182373406
0.596078695495612,1421.14182373406
0.606922821687318,1421.15182373406
0.609712262123165,1421.16182373406
0.605936309926607,1421.17182373406
0.596911676228599,1421.18182373406
0.583042214374301,1421.19182373406
0.565693386100735,1421.20182373406
0.545850979725708,1421.21182373406
0.524614705137701,1421.22182373406
0.502357126902649,1421.23182373406
0.480528314534269,1421.24182373406
0.458360067749949,1421.25182373406
0.43600128395839,1421.26182373406
0.413334322808806,1421.27182373406
0.39012989834884,1421.28182373406
0.365326122136817,1421.29182373406
0.339448364894088,1421.30182373406
0.312660948469069,1421.31182373406
0.285703617982353,1421.32182373406
0.260282908278833,1421.33182373406
0.237898501844534,1421.34182373406
0.21938955512061,1421.35182373406
0.206625069610416,1421.36182373406
0.199412605744653,1421.37182373406
0.197952267291557,1421.38182373406
0.202547198043243,1421.39182373406
0.211928472440554,1421.40182373406
0.225226738070935,1421.41182373406
0.241270373279625,1421.42182373406
0.257094220789061,1421.43182373406
0.27198668411843,1421.44182373406
0.284275152719443,1421.45182373406
0.292706773046297,1421.46182373406
0.297688982860217,1421.47182373406
0.298044866054689,1421.48182373406
0.294837191113685,1421.49182373406
0.288449215443757,1421.50182373406
0.279355912727084,1421.51182373406
0.268133072948797,1421.52182373406
0.255262833409495,1421.53182373406
0.241461267485524,1421.54182373406
0.226586049934765,1421.55182373406
0.210665522646283,1421.56182373406
0.194091770668919,1421.57182373406
0.177081475682993,1421.58182373406
0.159164579394555,1421.59182373406
0.140675535584487,1421.60182373406
0.121943412413605,1421.61182373406
0.104133744238701,1421.62182373406
0.0866561849839323,1421.63182373406
0.0701003280856787,1421.64182373406
0.0537771826251509,1421.65182373406
0.0380413424639757,1421.66182373406
0.0224850062694636,1421.67182373406
0.00675748860917866,1421.68182373406
-0.00913534754353914,1421.69182373406
-0.0246786272055175,1421.70182373406
-0.0397401730449802,1421.71182373406
-0.0538846514576765,1421.72182373406
-0.0670976349815114,1421.73182373406
-0.0803131618773548,1421.74182373406
-0.0932496109647878,1421.75182373406
-0.106264290661063,1421.76182373406
-0.119191787615117,1421.77182373406
-0.131733990085272,1421.78182373406
-0.144481938735492,1421.79182373406
-0.156398885418976,1421.80182373406
-0.168590823673586,1421.81182373406
-0.180753591743211,1421.82182373406
-0.192448978575323,1421.83182373406
-0.203701025532621,1421.84182373406
-0.213088463724117,1421.85182373406
-0.218089961386005,1421.86182373406
-0.212233044870186,1421.87182373406
-0.187254934079667,1421.88182373406
-0.135865144285702,1421.89182373406
-0.0568796360464774,1421.90182373406
0.0413648213619102,1421.91182373406
0.146744223400993,1421.92182373406
0.249012189562484,1421.93182373406
0.338458248558044,1421.94182373406
0.411576638585594,1421.95182373406
0.46743927954109,1421.96182373406
0.507502434718296,1421.97182373406
0.534007454595567,1421.98182373406
0.548812847188754,1421.99182373406
0.554015063121097,1422.00182373406
0.551888996339088,1422.01182373406
0.543173472810455,1422.02182373406
0.529815509663297,1422.03182373406
0.512783509729111,1422.04182373406
0.492765419557093,1422.05182373406
0.470865437560294,1422.06182373406
0.446880045111539,1422.07182373406
0.422141902191778,1422.08182373406
0.396808503370159,1422.09182373406
0.371034575695083,1422.10182373406
0.345664287341562,1422.11182373406
0.320213711836159,1422.12182373406
0.293698565233017,1422.13182373406
0.266212515944821,1422.14182373406
0.237351685109968,1422.15182373406
0.208415919532354,1422.16182373406
0.181077366764172,1422.17182373406
0.156692587730527,1422.18182373406
0.137337919332083,1422.19182373406
0.123812524496808,1422.20182373406
0.116689239836967,1422.21182373406
0.115604882918387,1422.22182373406
0.120776008753126,1422.23182373406
0.131246116570956,1422.24182373406
0.146349460061597,1422.25182373406
0.16435942822212,1422.26182373406
0.182688453723342,1422.27182373406
0.199860252004754,1422.28182373406
0.214800010264085,1422.29182373406
0.226640662587625,1422.30182373406
0.234787483226291,1422.31182373406
0.238661272751626,1422.32182373406
0.238446085291251,1422.33182373406
0.234846482258721,1422.34182373406
0.227951132380868,1422.35182373406
0.218656346464004,1422.36182373406
0.206841234522674,1422.37182373406
0.193493873214079,1422.38182373406
0.178787816705641,1422.39182373406
0.162829580782161,1422.40182373406
0.146112893282725,1422.41182373406
0.128046695694159,1422.42182373406
0.110178477721923,1422.43182373406
0.0921783667697499,1422.44182373406
0.0746299791414491,1422.45182373406
0.0570014065880071,1422.46182373406
0.0400642804262872,1422.47182373406
0.0231007821679888,1422.48182373406
0.00632329257841955,1422.49182373406
-0.0102687316992911,1422.50182373406
-0.0267767711449145,1422.51182373406
-0.0422610282591037,1422.52182373406
-0.056551681370133,1422.53182373406
-0.0701561579529539,1422.54182373406
-0.0836231314583749,1422.55182373406
-0.0962373872923622,1422.56182373406
-0.108723267434858,1422.57182373406
-0.121495149413977,1422.58182373406
-0.134137426613296,1422.59182373406
-0.146069936209001,1422.60182373406
-0.157770864658385,1422.61182373406
-0.169591672523575,1422.62182373406
-0.181078593636362,1422.63182373406
-0.192991085782756,1422.64182373406
-0.204788034176318,1422.65182373406
-0.21644113530895,1422.66182373406
-0.227365696063844,1422.67182373406
-0.238190451777109,1422.68182373406
-0.248402629315036,1422.69182373406
-0.257879972510697,1422.70182373406
-0.264113641609733,1422.71182373406
-0.262716621935959,1422.72182373406
-0.245388269706723,1422.73182373406
-0.203437737198827,1422.74182373406
-0.13391524615376,1422.75182373406
-0.0416245423021376,1422.76182373406
0.0623776279593897,1422.77182373406
0.166147153557931,1422.78182373406
0.260033818077796,1422.79182373406
0.337255605643642,1422.80182373406
0.397286450004372,1422.81182373406
0.440129396429408,1422.82182373406
0.468371816434178,1422.83182373406
0.484820861319286,1422.84182373406
0.492214262588869,1422.85182373406
0.491932719379882,1422.86182373406
0.484829777073844,1422.87182373406
0.472174381180887,1422.88182373406
0.454446681157428,1422.89182373406
0.43309896380604,1422.90182373406
0.409004282059987,1422.91182373406
0.383028861996864,1422.92182373406
0.355424839304232,1422.93182373406
0.327270208608723,1422.94182373406
0.298908323541961,1422.95182373406
0.270186229240417,1422.96182373406
0.2405087239654,1422.97182373406
0.210046589367762,1422.98182373406
0.178486489277938,1422.99182373406
0.14691104155828,1423.00182373406
0.116200988373774,1423.01182373406
0.0879531755692569,1423.02182373406
0.0635360939393756,1423.03182373406
0.0443212026688808,1423.04182373406
0.031460079553182,1423.05182373406
0.026034224286779,1423.06182373406
0.0283387137792199,1423.07182373406
0.0382171496814738,1423.08182373406
0.0542710782360459,1423.09182373406
0.0751249881604558,1423.10182373406
0.0977930333818338,1423.11182373406
0.120845449531934,1423.12182373406
0.141444972052654,1423.13182373406
0.15857331248492,1423.14182373406
0.171329695234265,1423.15182373406
0.179858994348277,1423.16182373406
0.183619362499649,1423.17182373406
0.183349054822651,1423.18182373406
0.179219636199407,1423.19182373406
0.171723285267304,1423.20182373406
0.161849937993745,1423.21182373406
0.15021507741389,1423.22182373406
0.137071637052275,1423.23182373406
0.123082291283059,1423.24182373406
0.107794500261606,1423.25182373406
0.0918208501704748,1423.26182373406
0.0755091139670535,1423.27182373406
0.0581740177905359,1423.28182373406
0.0414612234900731,1423.29182373406
0.0245705470340511,1423.30182373406
0.00814554057808359,1423.31182373406
-0.00750853728549197,1423.32182373406
-0.0231467283565586,1423.33182373406
-0.0387939067936364,1423.34182373406
-0.053986794871519,1423.35182373406
-0.0687976705735427,1423.36182373406
-0.0839623618627391,1423.37182373406
-0.0981476851906059,1423.38182373406
-0.11149323691125,1423.39182373406
-0.124508585638555,1423.40182373406
-0.136706286011103,1423.41182373406
-0.149138996349531,1423.42182373406
-0.160979637623279,1423.43182373406
-0.172803649514933,1423.44182373406
-0.184493654337738,1423.45182373406
-0.196435349466948,1423.46182373406
-0.208536207104134,1423.47182373406
-0.219968661313762,1423.48182373406
-0.231201981953681,1423.49182373406
-0.242393403785425,1423.50182373406
-0.253056911911603,1423.51182373406
-0.26323615080058,1423.52182373406
-0.269848229155988,1423.53182373406
-0.267864219966468,1423.54182373406
-0.248500589969825,1423.55182373406
-0.203255275366506,1423.56182373406
-0.130489163074107,1423.57182373406
-0.0352478480435487,1423.58182373406
0.0701110881450522,1423.59182373406
0.173225054514928,1423.60182373406
0.265599185128679,1423.61182373406
0.341355160016347,1423.62182373406
0.399982533515721,1423.63182373406
0.442750924657196,1423.64182373406
0.471757588442329,1423.65182373406
0.488356313103449,1423.66182373406
0.495174199383087,1423.67182373406
0.494366208334569,1423.68182373406
0.486986039333054,1423.69182373406
0.474195415684391,1423.70182373406
0.457250132538908,1423.71182373406
0.437169622320784,1423.72182373406
0.414964726563539,1423.73182373406
0.391177791820854,1423.74182373406
0.366216339998647,1423.75182373406
0.34015717228187,1423.76182373406
0.313989393394548,1423.77182373406
0.287168443402899,1423.78182373406
0.259635747218846,1423.79182373406
0.230328770033746,1423.80182373406
0.199700388580894,1423.81182373406
0.168226537393949,1423.82182373406
0.137605476990109,1423.83182373406
0.109414080085958,1423.84182373406
0.0857472466619307,1423.85182373406
0.0676511949245808,1423.86182373406
0.0554302458932818,1423.87182373406
0.0508569996843083,1423.88182373406
0.0539076592228087,1423.89182373406
0.0638510070666852,1423.90182373406
0.0800922402298149,1423.91182373406
0.0999535224002777,1423.92182373406
0.121937426523279,1423.93182373406
0.143464370563869,1423.94182373406
0.16235047458772,1423.95182373406
0.177404006404319,1423.96182373406
0.188073033610377,1423.97182373406
0.19382148065026,1423.98182373406
0.195038864106034,1423.99182373406
0.192632738235347,1424.00182373406
0.18628180296977,1424.01182373406
0.177427095480934,1424.02182373406
0.165915309865386,1424.03182373406
0.152887362604739,1424.04182373406
0.138934702034806,1424.05182373406
0.124516638968724,1424.06182373406
0.110148659135341,1424.07182373406
0.0955570597900301,1424.08182373406
0.0803470693541,1424.09182373406
0.0639893895455862,1424.10182373406
0.0468581040155106,1424.11182373406
0.029422827381674,1424.12182373406
0.0116615129532362,1424.13182373406
-0.00545629487230826,1424.14182373406
-0.0228387939166965,1424.15182373406
-0.0395882872197831,1424.16182373406
-0.0556692275707604,1424.17182373406
-0.0715053969314991,1424.18182373406
-0.0869142465002885,1424.19182373406
-0.10171630687789,1424.20182373406
-0.115897335207368,1424.21182373406
-0.129247425381065,1424.22182373406
-0.142482310558914,1424.23182373406
-0.155696335560532,1424.24182373406
-0.169030766868578,1424.25182373406
-0.1820153805941,1424.26182373406
-0.194256005958259,1424.27182373406
-0.206003107687445,1424.28182373406
-0.217769321260612,1424.29182373406
-0.229387006124003,1424.30182373406
-0.241108646641599,1424.31182373406
-0.252744604375861,1424.32182373406
-0.263929059938858,1424.33182373406
-0.273309030949674,1424.34182373406
-0.278809649569137,1424.35182373406
-0.273865738093135,1424.36182373406
-0.249718661261904,1424.37182373406
-0.197366895886775,1424.38182373406
-0.116105279477235,1424.39182373406
-0.0130143018188444,1424.40182373406
0.10066011901139,1424.41182373406
0.211090335457673,1424.42182373406
0.308822777131019,1424.43182373406
0.389444456536063,1424.44182373406
0.452234020612576,1424.45182373406
0.498873129626084,1424.46182373406
0.531715020811935,1424.47182373406
0.553134522615774,1424.48182373406
0.564354459792591,1424.49182373406
0.567459602384611,1424.50182373406
0.563781613136545,1424.51182373406
0.55552173214598,1424.52182373406
0.543000057127775,1424.53182373406
0.527675232526402,1424.54182373406
0.509375121244224,1424.55182373406
0.489246465208304,1424.56182373406
0.468444728632751,1424.57182373406
0.447021761624349,1424.58182373406
0.426164810152533,1424.59182373406
0.40606212193461,1424.60182373406
0.385536461179687,1424.61182373406
0.364725222175903,1424.62182373406
0.342753647618219,1424.63182373406
0.318025279423431,1424.64182373406
0.291939092965822,1424.65182373406
0.265632679515416,1424.66182373406
0.24059542714546,1424.67182373406
0.218121822141043,1424.68182373406
0.19987129744485,1424.69182373406
0.186964565754305,1424.70182373406
0.180683136936366,1424.71182373406
0.180867337734427,1424.72182373406
0.18751589441604,1424.73182373406
0.200306618382761,1424.74182373406
0.216768646850057,1424.75182373406
0.235472189527223,1424.76182373406
0.254040384224824,1424.77182373406
0.270337290025985,1424.78182373406
0.283278061838949,1424.79182373406
0.291799934916174,1424.80182373406
0.295390958902465,1424.81182373406
0.294811309721831,1424.82182373406
0.290708483676643,1424.83182373406
0.283296776999727,1424.84182373406
0.272964779529149,1424.85182373406
0.260045129889835,1424.86182373406
0.244906830628152,1424.87182373406
0.227819192102272,1424.88182373406
0.209766752753721,1424.89182373406
0.191497264916688,1424.90182373406
0.172560025043136,1424.91182373406
0.154660238529914,1424.92182373406
0.13749911068449,1424.93182373406
0.120647369458442,1424.94182373406
0.103694077479668,1424.95182373406
0.0866274958755898,1424.96182373406
0.0693815892174588,1424.97182373406
0.052405246142042,1424.98182373406
0.0357022226139635,1424.99182373406
0.0191303391521011,1425.00182373406
0.0033752157488395,1425.01182373406
-0.0122288073090488,1425.02182373406
-0.0273178388138063,1425.03182373406
-0.0423691375966017,1425.04182373406
-0.0573208159066633,1425.05182373406
-0.071479728875029,1425.06182373406
-0.0849971244623467,1425.07182373406
-0.0972794040811519,1425.08182373406
-0.109819599206306,1425.09182373406
-0.12223842231568,1425.10182373406
-0.134501003832349,1425.11182373406
-0.146810133321436,1425.12182373406
-0.158847261640398,1425.13182373406
-0.170388630702253,1425.14182373406
-0.181449139888472,1425.15182373406
-0.192561220655509,1425.16182373406
-0.203006401208106,1425.17182373406
-0.2136316161246,1425.18182373406
-0.223535379302277,1425.19182373406
-0.231749750825701,1425.20182373406
-0.23382112671135,1425.21182373406
-0.221130749540067,1425.22182373406
-0.18421503264096,1425.23182373406
-0.116891464305158,1425.24182373406
-0.0219640465914858,1425.25182373406
0.0907219614890479,1425.26182373406
0.207978485127154,1425.27182373406
0.318185915426262,1425.28182373406
0.414115025492129,1425.29182373406
0.492884473863077,1425.30182373406
0.554684600626895,1425.31182373406
0.601404210072034,1425.32182373406
0.635517456141947,1425.33182373406
0.658841564119276,1425.34182373406
0.672952108669436,1425.35182373406
0.67930625122984,1425.36182373406
0.679195716760558,1425.37182373406
0.673660879785457,1425.38182373406
0.663969564910078,1425.39182373406
0.650601146857893,1425.40182373406
0.634586673646997,1425.41182373406
0.616781880240388,1425.42182373406
0.597754724073061,1425.43182373406
0.578013845296755,1425.44182373406
0.557567859259627,1425.45182373406
0.536657020007107,1425.46182373406
0.514708547132553,1425.47182373406
0.490989172458513,1425.48182373406
0.465338508160301,1425.49182373406
0.437589320357651,1425.50182373406
0.409031953663738,1425.51182373406
0.380493820403849,1425.52182373406
0.352898938358124,1425.53182373406
0.328392538392398,1425.54182373406
0.307925052222389,1425.55182373406
0.292910257539279,1425.56182373406
0.283728556731378,1425.57182373406
0.281450917707282,1425.58182373406
0.285504002518983,1425.59182373406
0.296606444303486,1425.60182373406
0.31228932519846,1425.61182373406
0.330163758829422,1425.62182373406
0.348510079688237,1425.63182373406
0.364569921271166,1425.64182373406
0.376612477857722,1425.65182373406
0.384556759434668,1425.66182373406
0.38833925613298,1425.67182373406
0.387948349731206,1425.68182373406
0.383500017139129,1425.69182373406
0.375428060250559,1425.70182373406
0.364332006088399,1425.71182373406
0.350262843888846,1425.72182373406
0.334122598334283,1425.73182373406
0.315846152077201,1425.74182373406
0.296929472977588,1425.75182373406
0.277645833193608,1425.76182373406
0.258621899717318,1425.77182373406
0.239660336345028,1425.78182373406
0.22110881894026,1425.79182373406
0.202150356290442,1425.80182373406
0.18372500438092,1425.81182373406
0.165424915826759,1425.82182373406
0.147290100222247,1425.83182373406
0.129918370674021,1425.84182373406
0.113145590836137,1425.85182373406
0.0968811622078053,1425.86182373406
0.0807834367386119,1425.87182373406
0.0650306699006351,1425.88182373406
0.0488628664837547,1425.89182373406
0.0331001721858635,1425.90182373406
0.0176698774795422,1425.91182373406
0.00265256381268401,1425.92182373406
-0.0117942987644761,1425.93182373406
-0.0255421060213306,1425.94182373406
-0.0385456740951615,1425.95182373406
-0.051554665804699,1425.96182373406
-0.0639825928206255,1425.97182373406
-0.076671117041729,1425.98182373406
-0.0896245737344938,1425.99182373406
-0.102449753230182,1426.00182373406
-0.115081336115728,1426.01182373406
-0.127577432034461,1426.02182373406
-0.139715303564675,1426.03182373406
-0.151822169264361,1426.04182373406
-0.164154540177508,1426.05182373406
-0.175615816363684,1426.06182373406
-0.187301175432319,1426.07182373406
-0.197495415056496,1426.08182373406
-0.205487758188279,1426.09182373406
-0.206500507559054,1426.10182373406
-0.191381293406663,1426.11182373406
-0.151323756389528,1426.12182373406
-0.0801506723633111,1426.13182373406
0.0186992532758792,1426.14182373406
0.13416584800564,1426.15182373406
0.25303162238808,1426.16182373406
0.36261066819338,1426.17182373406
0.456517826572896,1426.18182373406
0.532343827227393,1426.19182373406
0.590682621341636,1426.20182373406
0.632794843769576,1426.21182373406
0.661197892259608,1426.22182373406
0.67793139883549,1426.23182373406
0.684018488247656,1426.24182373406
0.681605645467483,1426.25182373406
0.672112622342138,1426.26182373406
0.656980854215142,1426.27182373406
0.637957710832386,1426.28182373406
0.615867592811147,1426.29182373406
0.592130218767077,1426.30182373406
0.568214895124101,1426.31182373406
0.544917419637411,1426.32182373406
0.521736674254262,1426.33182373406
0.499305538050929,1426.34182373406
0.476915177578485,1426.35182373406
0.454608286806239,1426.36182373406
0.431469884691418,1426.37182373406
0.407204959442596,1426.38182373406
0.381353499613226,1426.39182373406
0.354463659736064,1426.40182373406
0.328254492678458,1426.41182373406
0.304407712208724,1426.42182373406
0.284469978030629,1426.43182373406
0.269012271506747,1426.44182373406
0.258792089008001,1426.45182373406
0.255059353683975,1426.46182373406
0.257374000447428,1426.47182373406
0.265562787956133,1426.48182373406
0.279591193285131,1426.49182373406
0.29667579434442,1426.50182373406
0.315291580065807,1426.51182373406
0.333055730801545,1426.52182373406
0.348107326282838,1426.53182373406
0.359345047223178,1426.54182373406
0.366404225053528,1426.55182373406
0.368415863986485,1426.56182373406
0.366776454758803,1426.57182373406
0.361661032384864,1426.58182373406
0.353297232827648,1426.59182373406
0.342216471435778,1426.60182373406
0.328918904763353,1426.61182373406
0.313430282810726,1426.62182373406
0.296399024011593,1426.63182373406
0.278438127358392,1426.64182373406
0.26011100178972,1426.65182373406
0.241276790912654,1426.66182373406
0.222118065209822,1426.67182373406
0.202875250691539,1426.68182373406
0.183614833768687,1426.69182373406
0.164558280599278,1426.70182373406
0.146031899733382,1426.71182373406
0.127527371269374,1426.72182373406
0.109481637886961,1426.73182373406
0.0914593495140534,1426.74182373406
0.0735761488009083,1426.75182373406
0.0556822945723488,1426.76182373406
0.0383383939333271,1426.77182373406
0.0214626563316438,1426.78182373406
0.00572918289272192,1426.79182373406
-0.0091627407524781,1426.80182373406
-0.0236924020713298,1426.81182373406
-0.037271905385248,1426.82182373406
-0.050408052315436,1426.83182373406
-0.0623907261928478,1426.84182373406
-0.0739785552159704,1426.85182373406
-0.0850120552739472,1426.86182373406
-0.0953550611609447,1426.87182373406
-0.106177202531612,1426.88182373406
-0.116706581963041,1426.89182373406
-0.127772745165994,1426.90182373406
-0.13904482950821,1426.91182373406
-0.150618810226742,1426.92182373406
-0.162031829970633,1426.93182373406
-0.173263572453853,1426.94182373406
-0.184728129936651,1426.95182373406
-0.195516016773883,1426.96182373406
-0.204939909437682,1426.97182373406
-0.210681822296921,1426.98182373406
-0.208483020994986,1426.99182373406
-0.189300873781307,1427.00182373406
-0.145968924381456,1427.01182373406
-0.0744379477409491,1427.02182373406
0.0198759714232441,1427.03182373406
0.125709774117698,1427.04182373406
0.230947395035428,1427.05182373406
0.325892458619229,1427.06182373406
0.405219485325006,1427.07182373406
0.467035976081457,1427.08182373406
0.51200765659113,1427.09182373406
0.542197699885125,1427.10182373406
0.559797802617904,1427.11182373406
0.567293151387689,1427.12182373406
0.56619395205756,1427.13182373406
0.55793547566491,1427.14182373406
0.5437710867358,1427.15182373406
0.524900352918243,1427.16182373406
0.503254166731542,1427.17182373406
0.478819463000088,1427.18182373406
0.452946442996302,1427.19182373406
0.426029935723269,1427.20182373406
0.398316519989015,1427.21182373406
0.370203193034519,1427.22182373406
0.341936010469449,1427.23182373406
0.312398733142839,1427.24182373406
0.282225346326554,1427.25182373406
0.250927073350245,1427.26182373406
0.218281458106728,1427.27182373406
0.186466333328961,1427.28182373406
0.156417727321073,1427.29182373406
0.130647696937368,1427.30182373406
0.110954480763375,1427.31182373406
0.0981304622246698,1427.32182373406
0.0924776295987372,1427.33182373406
0.0939819774109791,1427.34182373406
0.102745953049408,1427.35182373406
0.117773156504761,1427.36182373406
0.137534697161463,1427.37182373406
0.160003975257909,1427.38182373406
0.182674493142219,1427.39182373406
0.202980386025448,1427.40182373406
0.219676110977423,1427.41182373406
0.231471836801062,1427.42182373406
0.238253090793015,1427.43182373406
0.24027570715137,1427.44182373406
0.237574086016807,1427.45182373406
0.231753398279781,1427.46182373406
0.223334298132716,1427.47182373406
0.213254803348845,1427.48182373406
0.201454495649078,1427.49182373406
0.187796291920115,1427.50182373406
0.17314860143469,1427.51182373406
0.157161275404967,1427.52182373406
0.140717291928326,1427.53182373406
0.12402107478824,1427.54182373406
0.106345446967121,1427.55182373406
0.0884810828600483,1427.56182373406
0.0707359180044957,1427.57182373406
0.0530641413186744,1427.58182373406
0.0348377917844201,1427.59182373406
0.0170737821490519,1427.60182373406
-2.36432268546731e-05,1427.61182373406
-0.0171656649718611,1427.62182373406
-0.0334914932116366,1427.63182373406
-0.0491317577473273,1427.64182373406
-0.0643452591085341,1427.65182373406
-0.0790436636223033,1427.66182373406
-0.0931934323279074,1427.67182373406
-0.106855785998114,1427.68182373406
-0.120097360877108,1427.69182373406
-0.132390020237682,1427.70182373406
-0.144890102310912,1427.71182373406
-0.156361212380714,1427.72182373406
-0.168042190258771,1427.73182373406
-0.17950228621997,1427.74182373406
-0.190514563956994,1427.75182373406
-0.201930745085995,1427.76182373406
-0.212761477535937,1427.77182373406
-0.223737776963412,1427.78182373406
-0.234434523704128,1427.79182373406
-0.24537952849846,1427.80182373406
-0.255335803602143,1427.81182373406
-0.261302119508098,1427.82182373406
-0.258686418134251,1427.83182373406
-0.239429173286878,1427.84182373406
-0.196503464433922,1427.85182373406
-0.129391097954025,1427.86182373406
-0.0429934379604339,1427.87182373406
0.0512715083319858,1427.88182373406
0.142299700392662,1427.89182373406
0.222881959980536,1427.90182373406
0.2875320280092,1427.91182373406
0.336317568048789,1427.92182373406
0.370664330051294,1427.93182373406
0.392879355774908,1427.94182373406
0.406084133900424,1427.95182373406
0.411304636893752,1427.96182373406
0.410244493645056,1427.97182373406
0.403731913267306,1427.98182373406
0.392352866307135,1427.99182373406
0.376822733708824,1428.00182373406
0.35756350064211,1428.01182373406
0.335311123828764,1428.02182373406
0.311299977267967,1428.03182373406
0.285578201841642,1428.04182373406
0.257959396134561,1428.05182373406
0.228846145584163,1428.06182373406
0.197155055922071,1428.07182373406
0.163703472696306,1428.08182373406
0.128653450369995,1428.09182373406
0.0941367655078157,1428.10182373406
0.0608886065767784,1428.11182373406
0.0304659127332597,1428.12182373406
0.00517400389302171,1428.13182373406
-0.0144854028526845,1428.14182373406
-0.0264352307346389,1428.15182373406
-0.0307552745335304,1428.16182373406
-0.0262718707504462,1428.17182373406
-0.0137463628271164,1428.18182373406
0.00531072234816759,1428.19182373406
0.0295527005440481,1428.20182373406
0.0558999172319052,1428.21182373406
0.0817478846169651,1428.22182373406
0.104352544265695,1428.23182373406
0.12304859568621,1428.24182373406
0.136279425125777,1428.25182373406
0.143526588730443,1428.26182373406
0.145717634252625,1428.27182373406
0.143711500597915,1428.28182373406
0.138453841861566,1428.29182373406
0.130418600921027,1428.30182373406
0.120757447074723,1428.31182373406
0.109795279613096,1428.32182373406
0.097395836195993,1428.33182373406
0.0838113431092197,1428.34182373406
0.069980608534201,1428.35182373406
0.0562012635002909,1428.36182373406
0.0426679471643019,1428.37182373406
0.0293818428667236,1428.38182373406
0.0165635099631355,1428.39182373406
0.00422342480296697,1428.40182373406
-0.00733250681424568,1428.41182373406
-0.0175170759296426,1428.42182373406
-0.0270009904099859,1428.43182373406
-0.0359590396101817,1428.44182373406
-0.0440377116317342,1428.45182373406
-0.0516326528347707,1428.46182373406
-0.0584821959192014,1428.47182373406
-0.0648575890698637,1428.48182373406
-0.071198940516678,1428.49182373406
-0.0781541582687315,1428.50182373406
-0.0867022814601733,1428.51182373406
-0.0963867824271585,1428.52182373406
-0.106622868362109,1428.53182373406
-0.117825323764755,1428.54182373406
-0.12996043878057,1428.55182373406
-0.142854233854622,1428.56182373406
-0.156936855756546,1428.57182373406
-0.172553957859491,1428.58182373406
-0.188797424308949,1428.59182373406
-0.205196230456249,1428.60182373406
-0.219363750062977,1428.61182373406
-0.226546195647002,1428.62182373406
-0.218873476060653,1428.63182373406
-0.187788771968043,1428.64182373406
-0.130729103149987,1428.65182373406
-0.0509785616545001,1428.66182373406
0.0415384203502777,1428.67182373406
0.135023778923836,1428.68182373406
0.221060876186112,1428.69182373406
0.294552649063367,1428.70182373406
0.353118627581966,1428.71182373406
0.397371473120714,1428.72182373406
0.429212386125093,1428.73182373406
0.450188052590747,1428.74182373406
0.462552786541903,1428.75182373406
0.467969057854717,1428.76182373406
0.466814067054525,1428.77182373406
0.460059997620399,1428.78182373406
0.449183394656206,1428.79182373406
0.433667565209673,1428.80182373406
0.41532389854878,1428.81182373406
0.39474814302457,1428.82182373406
0.371954184176347,1428.83182373406
0.348061809195284,1428.84182373406
0.323072290842393,1428.85182373406
0.296899601653371,1428.86182373406
0.269827121301937,1428.87182373406
0.241400041202326,1428.88182373406
0.211823663901529,1428.89182373406
0.182568450933586,1428.90182373406
0.154542915282069,1428.91182373406
0.129359485104861,1428.92182373406
0.109638366211122,1428.93182373406
0.0961305506943979,1428.94182373406
0.0895692127818358,1428.95182373406
0.0900056617157639,1428.96182373406
0.0973823383807188,1428.97182373406
0.111078827535528,1428.98182373406
0.129551431099283,1428.99182373406
0.151752535362247,1429.00182373406
0.17524912003437,1429.01182373406
0.196757649748162,1429.02182373406
0.215114558529114,1429.03182373406
0.228491848747572,1429.04182373406
0.236782050186809,1429.05182373406
0.239722326142566,1429.06182373406
0.238420945112863,1429.07182373406
0.234862665658569,1429.08182373406
0.228835597199361,1429.09182373406
0.220541454616603,1429.10182373406
0.210042659800061,1429.11182373406
0.197475598989546,1429.12182373406
0.18290310872446,1429.13182373406
0.167949749212007,1429.14182373406
0.152339206478135,1429.15182373406
0.136422785467486,1429.16182373406
0.119984089564931,1429.17182373406
0.103285839852691,1429.18182373406
0.0866159319046542,1429.19182373406
0.0700319686253734,1429.20182373406
0.0539925852955976,1429.21182373406
0.0381147652310751,1429.22182373406
0.0234913363346382,1429.23182373406
0.00897098645757252,1429.24182373406
-0.00494321620940361,1429.25182373406
-0.0181187342620547,1429.26182373406
-0.0309328079692364,1429.27182373406
-0.0430980064496012,1429.28182373406
-0.0554889904045031,1429.29182373406
-0.0678255839129725,1429.30182373406
-0.0801425313881006,1429.31182373406
-0.0922348920497427,1429.32182373406
-0.103964254784332,1429.33182373406
-0.114456280824989,1429.34182373406
-0.124246730222658,1429.35182373406
-0.13346437375642,1429.36182373406
-0.142072805209894,1429.37182373406
-0.151061392470969,1429.38182373406
-0.159475261968063,1429.39182373406
-0.16581292339469,1429.40182373406
-0.165018723663741,1429.41182373406
-0.148479346747481,1429.42182373406
-0.108762934125388,1429.43182373406
-0.0435135093783463,1429.44182373406
0.0416306587538079,1429.45182373406
0.137395034379764,1429.46182373406
0.233169262821402,1429.47182373406
0.321204060147108,1429.48182373406
0.39733362172691,1429.49182373406
0.459390472752304,1429.50182373406
0.507793440497098,1429.51182373406
0.543254886816674,1429.52182373406
0.567865853485917,1429.53182373406
0.583067046410022,1429.54182373406
0.589597521875323,1429.55182373406
0.5889272594481,1429.56182373406
0.582376066851118,1429.57182373406
0.570507535069283,1429.58182373406
0.555703580678482,1429.59182373406
0.538467270006968,1429.60182373406
0.519246778907096,1429.61182373406
0.499526446935847,1429.62182373406
0.47963379191559,1429.63182373406
0.460371966269447,1429.64182373406
0.441051648323325,1429.65182373406
0.421351872047837,1429.66182373406
0.401220740850309,1429.67182373406
0.378915987636381,1429.68182373406
0.354853542858598,1429.69182373406
0.330218166916648,1429.70182373406
0.305444930231794,1429.71182373406
0.282476652521129,1429.72182373406
0.263774848707743,1429.73182373406
0.250379137927298,1429.74182373406
0.243177547857785,1429.75182373406
0.242964795659296,1429.76182373406
0.250073726277537,1429.77182373406
0.262893040106659,1429.78182373406
0.280026288466158,1429.79182373406
0.298764286124021,1429.80182373406
0.317284322859526,1429.81182373406
0.332991352688546,1429.82182373406
0.345288218243779,1429.83182373406
0.353517179363415,1429.84182373406
0.357385493359026,1429.85182373406
0.357121357775538,1429.86182373406
0.353308389013769,1429.87182373406
0.346124621368979,1429.88182373406
0.336610160592092,1429.89182373406
0.3255002717145,1429.90182373406
0.312973598314994,1429.91182373406
0.299766461931707,1429.92182373406
0.285305810098554,1429.93182373406
0.270039818335878,1429.94182373406
0.254435810842405,1429.95182373406
0.237935866020153,1429.96182373406
0.220798224101125,1429.97182373406
0.203818682051955,1429.98182373406
0.186791847379872,1429.99182373406
0.17013063354931,1430.00182373406
0.153654919184032,1430.01182373406
0.137458118149407,1430.02182373406
0.121696128194677,1430.03182373406
0.106097123579559,1430.04182373406
0.0908985566168984,1430.05182373406
0.0766002180694144,1430.06182373406
0.0626122265413039,1430.07182373406
0.0488576243168673,1430.08182373406
0.0358841342301604,1430.09182373406
0.0238125915761236,1430.10182373406
0.0127479188908047,1430.11182373406
0.00216140982188436,1430.12182373406
-0.00837922641199058,1430.13182373406
-0.0187919876164606,1430.14182373406
-0.0294019437359664,1430.15182373406
-0.0406574511203923,1430.16182373406
-0.051613277919949,1430.17182373406
-0.062569701819419,1430.18182373406
-0.0741401583247901,1430.19182373406
-0.0857814032293143,1430.20182373406
-0.0973153087019304,1430.21182373406
-0.107480195580758,1430.22182373406
-0.114493061048903,1430.23182373406
-0.111397747772956,1430.24182373406
-0.090054233215028,1430.25182373406
-0.0433910797267673,1430.26182373406
0.028075861970195,1430.27182373406
0.117597516721827,1430.28182373406
0.21497076295333,1430.29182373406
0.310239377623691,1430.30182373406
0.396106030424221,1430.31182373406
0.468995073341829,1430.32182373406
0.527317603867493,1430.33182373406
0.570954012556134,1430.34182373406
0.602093158003947,1430.35182373406
0.621841009556758,1430.36182373406
0.631735206750041,1430.37182373406
0.633608551159823,1430.38182373406
0.628622074182455,1430.39182373406
0.61823833777199,1430.40182373406
0.604631545033953,1430.41182373406
0.588895247641718,1430.42182373406
0.571583881024351,1430.43182373406
0.553975215493132,1430.44182373406
0.535826975985642,1430.45182373406
0.5182330315204,1430.46182373406
0.501014183515859,1430.47182373406
0.485250830682256,1430.48182373406
0.46923345346467,1430.49182373406
0.453129403306822,1430.50182373406
0.435746659457674,1430.51182373406
0.416519034072859,1430.52182373406
0.395802401788689,1430.53182373406
0.374255536595242,1430.54182373406
0.352990067315363,1430.55182373406
0.334083844054603,1430.56182373406
0.318374923554648,1430.57182373406
0.306628038288358,1430.58182373406
0.300023658053353,1430.59182373406
0.299158353385832,1430.60182373406
0.303807849202954,1430.61182373406
0.312660651592197,1430.62182373406
0.323123471628053,1430.63182373406
0.334226326351522,1430.64182373406
0.343917494444677,1430.65182373406
0.351030419292895,1430.66182373406
0.355692608710539,1430.67182373406
0.356996530403508,1430.68182373406
0.355097958914829,1430.69182373406
0.350403520644258,1430.70182373406
0.34282902424714,1430.71182373406
0.332729487388736,1430.72182373406
0.320920019380906,1430.73182373406
0.307683012179838,1430.74182373406
0.2936638000843,1430.75182373406
0.279037350287514,1430.76182373406
0.264351646465923,1430.77182373406
0.249616335609803,1430.78182373406
0.235011280084005,1430.79182373406
0.219861242149399,1430.80182373406
0.205390898688639,1430.81182373406
0.190425763468498,1430.82182373406
0.175224677952027,1430.83182373406
0.159943943978287,1430.84182373406
0.144569950313384,1430.85182373406
0.129076524157464,1430.86182373406
0.112921353896137,1430.87182373406
0.0967962506503289,1430.88182373406
0.0809250470187798,1430.89182373406
0.0654250453438176,1430.90182373406
0.0500912158896945,1430.91182373406
0.0347727178683572,1430.92182373406
0.0200197783237325,1430.93182373406
0.00516607009974744,1430.94182373406
-0.00927778086364487,1430.95182373406
-0.0242488015459256,1430.96182373406
-0.0390211928978276,1430.97182373406
-0.054037386946422,1430.98182373406
-0.0686605179594271,1430.99182373406
-0.0828640873015479,1431.00182373406
-0.0970657039309859,1431.01182373406
-0.110166191622813,1431.02182373406
-0.123095246455985,1431.03182373406
-0.135266153089522,1431.04182373406
-0.147059771681072,1431.05182373406
-0.158398028975577,1431.06182373406
-0.169496923102867,1431.07182373406
-0.179180238344278,1431.08182373406
-0.184627301591254,1431.09182373406
-0.180596848419159,1431.10182373406
-0.158592015465495,1431.11182373406
-0.115240498484636,1431.12182373406
-0.0525951013065453,1431.13182373406
0.022127457398481,1431.14182373406
0.0989338631811107,1431.15182373406
0.170566804924371,1431.16182373406
0.231816304646495,1431.17182373406
0.28054911221485,1431.18182373406
0.316802614133209,1431.19182373406
0.341982144129407,1431.20182373406
0.356695485432549,1431.21182373406
0.362818356812588,1431.22182373406
0.362182148706191,1431.23182373406
0.355477242072504,1431.24182373406
0.344040830134888,1431.25182373406
0.330300014129498,1431.26182373406
0.31399529696864,1431.27182373406
0.296734497746487,1431.28182373406
0.279019417375796,1431.29182373406
0.261551698963659,1431.30182373406
0.245067288048959,1431.31182373406
0.229945036299608,1431.32182373406
0.216190859274457,1431.33182373406
0.203336886271612,1431.34182373406
0.190945847657782,1431.35182373406
0.177643753420216,1431.36182373406
0.162926589311698,1431.37182373406
0.146194571357696,1431.38182373406
0.127525792123678,1431.39182373406
0.108344974534417,1431.40182373406
0.0893204761605001,1431.41182373406
0.0723278587782584,1431.42182373406
0.0577280392777383,1431.43182373406
0.0472272753684119,1431.44182373406
0.0404729895055026,1431.45182373406
0.0374689013803869,1431.46182373406
0.0385726693823941,1431.47182373406
0.0432414102068456,1431.48182373406
0.0501712896531187,1431.49182373406
0.0577544079344108,1431.50182373406
0.0646109424613093,1431.51182373406
0.0685188312716121,1431.52182373406
0.0697032462946403,1431.53182373406
0.0679723600555037,1431.54182373406
0.0635076315780246,1431.55182373406
0.0570681165916625,1431.56182373406
0.0492782383982435,1431.57182373406
0.0400403899346144,1431.58182373406
0.0290781477400956,1431.59182373406
0.0172084987971533,1431.60182373406
0.00385711756165645,1431.61182373406
-0.0104526176870733,1431.62182373406
-0.0255099072840406,1431.63182373406
-0.0407342492593485,1431.64182373406
-0.0555168242999835,1431.65182373406
-0.0704334533453984,1431.66182373406
-0.08448524105746,1431.67182373406
-0.0981006558530714,1431.68182373406
-0.111723616481633,1431.69182373406
-0.125133659425348,1431.70182373406
-0.139056630326914,1431.71182373406
-0.152550371597917,1431.72182373406
-0.166028887090751,1431.73182373406
-0.179570292913716,1431.74182373406
-0.19276399466162,1431.75182373406
-0.205883727383897,1431.76182373406
-0.218612237824951,1431.77182373406
-0.230505766785961,1431.78182373406
-0.242747448764516,1431.79182373406
-0.254191911830221,1431.80182373406
-0.265503693510706,1431.81182373406
-0.27632440217333,1431.82182373406
-0.286920354854265,1431.83182373406
-0.29698464852339,1431.84182373406
-0.306523522896824,1431.85182373406
-0.316204882094394,1431.86182373406
-0.32513156274406,1431.87182373406
-0.334448875906648,1431.88182373406
-0.343195129251727,1431.89182373406
-0.352090937373684,1431.90182373406
-0.361157505413691,1431.91182373406
-0.370334571442503,1431.92182373406
-0.380206246362071,1431.93182373406
-0.391251773659528,1431.94182373406
-0.402080897181763,1431.95182373406
-0.412428984629743,1431.96182373406
-0.422050840192036,1431.97182373406
-0.430834448897961,1431.98182373406
-0.439662959691065,1431.99182373406
-0.447829390614018,1432.00182373406
-0.452674398959369,1432.01182373406
-0.449808014027585,1432.02182373406
-0.433612703088325,1432.03182373406
-0.400596263638991,1432.04182373406
-0.352966488355447,1432.05182373406
-0.296000372259778,1432.06182373406
-0.236552680029548,1432.07182373406
-0.1807793300805,1432.08182373406
-0.133195285931126,1432.09182373406
-0.0956749965544803,1432.10182373406
-0.0689879856468003,1432.11182373406
-0.0524546240273351,1432.12182373406
-0.0451133451187413,1432.13182373406
-0.0451280127592769,1432.14182373406
-0.0508933229855602,1432.15182373406
-0.0606377012399942,1432.16182373406
-0.0731950571529074,1432.17182373406
-0.0878824635289288,1432.18182373406
-0.103080041773653,1432.19182373406
-0.118480608498564,1432.20182373406
-0.133832137978504,1432.21182373406
-0.148516370914964,1432.22182373406
-0.162376137634233,1432.23182373406
-0.175731542372986,1432.24182373406
-0.188190113558347,1432.25182373406
-0.200013895083405,1432.26182373406
-0.211224415344684,1432.27182373406
-0.222444058221864,1432.28182373406
-0.235483024477351,1432.29182373406
-0.249145816014269,1432.30182373406
-0.26418429982125,1432.31182373406
-0.280023623255534,1432.32182373406
-0.2941774697088,1432.33182373406
-0.306663748912043,1432.34182373406
-0.315827688901681,1432.35182373406
-0.321809304958032,1432.36182373406
-0.32530786289629,1432.37182373406
-0.325877860093256,1432.38182373406
-0.324144828268928,1432.39182373406
-0.320212159651722,1432.40182373406
-0.314955071454665,1432.41182373406
-0.308728416551182,1432.42182373406
-0.302854816068538,1432.43182373406
-0.298311370356825,1432.44182373406
-0.295321824779053,1432.45182373406
-0.294674744467474,1432.46182373406
-0.295818052809801,1432.47182373406
-0.299292141672534,1432.48182373406
-0.304557863682417,1432.49182373406
-0.311375565319479,1432.50182373406
-0.319321605012363,1432.51182373406
-0.328223954674251,1432.52182373406
-0.337954308305541,1432.53182373406
-0.348800636328024,1432.54182373406
-0.360084604330954,1432.55182373406
-0.371664099713787,1432.56182373406
-0.382790567821783,1432.57182373406
-0.394048792717563,1432.58182373406
-0.404451840136987,1432.59182373406
-0.414767302732763,1432.60182373406
-0.424374358285212,1432.61182373406
-0.434390885068354,1432.62182373406
-0.444342004579803,1432.63182373406
-0.453879165716442,1432.64182373406
-0.464024533793733,1432.65182373406
-0.473761273636151,1432.66182373406
-0.483315680338979,1432.67182373406
-0.492706502283099,1432.68182373406
-0.501633916109799,1432.69182373406
-0.510700308616779,1432.70182373406
-0.51934601435385,1432.71182373406
-0.52796497406689,1432.72182373406
-0.535905602595091,1432.73182373406
-0.544401326514718,1432.74182373406
-0.552750242557487,1432.75182373406
-0.561013218049169,1432.76182373406
-0.569256080258655,1432.77182373406
-0.576560572437957,1432.78182373406
-0.583488708315274,1432.79182373406
-0.590308131000051,1432.80182373406
-0.596306523549394,1432.81182373406
-0.602638525206279,1432.82182373406
-0.609658860903117,1432.83182373406
-0.616747272692312,1432.84182373406
-0.624526838371539,1432.85182373406
-0.631964029627215,1432.86182373406
-0.638923091232259,1432.87182373406
-0.64605457225723,1432.88182373406
-0.652789176229057,1432.89182373406
-0.659737420045191,1432.90182373406
-0.666389406387234,1432.91182373406
-0.672966467742594,1432.92182373406
-0.679629369217024,1432.93182373406
-0.685971872092808,1432.94182373406
-0.689438951612,1432.95182373406
-0.686550167384527,1432.96182373406
-0.67250725922743,1432.97182373406
-0.643265690894116,1432.98182373406
-0.600723415039129,1432.99182373406
-0.549032614571761,1433.00182373406
-0.495135560442041,1433.01182373406
-0.444179176394299,1433.02182373406
-0.400671370502223,1433.03182373406
-0.366452918149038,1433.04182373406
-0.342376977968732,1433.05182373406
-0.327814550551797,1433.06182373406
-0.320556625998013,1433.07182373406
-0.319965666217654,1433.08182373406
-0.324133548865579,1433.09182373406
-0.332282362599476,1433.10182373406
-0.34308703127786,1433.11182373406
-0.35628477565687,1433.12182373406
-0.370542090809632,1433.13182373406
-0.385671093058309,1433.14182373406
-0.40057499878119,1433.15182373406
-0.414730327815422,1433.16182373406
-0.427968886925279,1433.17182373406
-0.439668594214688,1433.18182373406
-0.450023815387974,1433.19182373406
-0.459310973625363,1433.20182373406
-0.4678271399574,1433.21182373406
-0.476236076237842,1433.22182373406
-0.485247222808832,1433.23182373406
-0.495421412884981,1433.24182373406
-0.506168726958977,1433.25182373406
-0.517236592746298,1433.26182373406
-0.527908606096916,1433.27182373406
-0.537592643074619,1433.28182373406
-0.545575339272671,1433.29182373406
-0.550612491356565,1433.30182373406
-0.553207683059067,1433.31182373406
-0.553460955645665,1433.32182373406
-0.550514700376804,1433.33182373406
-0.546100338801962,1433.34182373406
-0.540227092156193,1433.35182373406
-0.53378752516495,1433.36182373406
-0.527557189724509,1433.37182373406
-0.52237787640397,1433.38182373406
-0.518824055608996,1433.39182373406
-0.517218057988088,1433.40182373406
-0.517363017597876,1433.41182373406
-0.518578348506515,1433.42182373406
-0.521288006485313,1433.43182373406
-0.52551832382626,1433.44182373406
-0.530428169080326,1433.45182373406
-0.536315273425135,1433.46182373406
-0.542237183431068,1433.47182373406
-0.548930350567365,1433.48182373406
-0.556696055393012,1433.49182373406
-0.564835663025334,1433.50182373406
-0.57364771182957,1433.51182373406
-0.582498887317121,1433.52182373406
-0.591380317694054,1433.53182373406
-0.59987217997625,1433.54182373406
-0.607733313675985,1433.55182373406
-0.614991401850457,1433.56182373406
-0.622769122375014,1433.57182373406
-0.630136960735014,1433.58182373406
-0.638326004424562,1433.59182373406
-0.646341152551309,1433.60182373406
-0.654637309393958,1433.61182373406
-0.662738418820308,1433.62182373406
-0.66999178876676,1433.63182373406
-0.676685628106094,1433.64182373406
-0.683199883310373,1433.65182373406
-0.689624583106905,1433.66182373406
-0.695909257765249,1433.67182373406
-0.702038845635658,1433.68182373406
-0.708747248598776,1433.69182373406
-0.715700682909624,1433.70182373406
-0.72272436686345,1433.71182373406
-0.729155718729092,1433.72182373406
-0.735394458294227,1433.73182373406
-0.740678334856447,1433.74182373406
-0.745779645312454,1433.75182373406
-0.7501503375215,1433.76182373406
-0.75436545799089,1433.77182373406
-0.758626216538623,1433.78182373406
-0.763416542866703,1433.79182373406
-0.768388209758393,1433.80182373406
-0.773889074916661,1433.81182373406
-0.77950638872831,1433.82182373406
-0.784958341341218,1433.83182373406
-0.79028205529574,1433.84182373406
-0.795735833121412,1433.85182373406
-0.800770663046132,1433.86182373406
-0.805810976164761,1433.87182373406
-0.810619916910647,1433.88182373406
-0.815255359085593,1433.89182373406
-0.818168313357303,1433.90182373406
-0.816453656587692,1433.91182373406
-0.806013668453885,1433.92182373406
-0.783177305065999,1433.93182373406
-0.746667866403894,1433.94182373406
-0.700620792316835,1433.95182373406
-0.650440621312716,1433.96182373406
-0.601580556621681,1433.97182373406
-0.5587005831281,1433.98182373406
-0.524589686682223,1433.99182373406
-0.500405785599704,1434.00182373406
-0.484842788052522,1434.01182373406
-0.477551808852537,1434.02182373406
-0.47763875949877,1434.03182373406
-0.482367429439402,1434.04182373406
-0.491465342083158,1434.05182373406
-0.503317506262322,1434.06182373406
-0.51666264009431,1434.07182373406
-0.530498647839602,1434.08182373406
-0.545219252254499,1434.09182373406
-0.559627231167033,1434.10182373406
-0.573611339605087,1434.11182373406
-0.586002854292333,1434.12182373406
-0.597818824853209,1434.13182373406
-0.60897189887351,1434.14182373406
-0.619269537759226,1434.15182373406
-0.629118978572419,1434.16182373406
-0.639621451241896,1434.17182373406
-0.65058707826433,1434.18182373406
-0.662170787575454,1434.19182373406
-0.67420772119031,1434.20182373406
-0.685483208970337,1434.21182373406
-0.695154367050767,1434.22182373406
-0.702614511022362,1434.23182373406
-0.707313542950878,1434.24182373406
-0.708463068910627,1434.25182373406
-0.70622421012883,1434.26182373406
-0.700843820288612,1434.27182373406
-0.692556387543768,1434.28182373406
-0.682559678478272,1434.29182373406
-0.672032087114882,1434.30182373406
-0.66198017329322,1434.31182373406
-0.653101965123085,1434.32182373406
-0.646296251656482,1434.33182373406
-0.641228615323092,1434.34182373406
-0.638520387068997,1434.35182373406
-0.637354346331292,1434.36182373406
-0.637356375638217,1434.37182373406
-0.63863348646822,1434.38182373406
-0.641358010547127,1434.39182373406
-0.645008194058513,1434.40182373406
-0.649434508030038,1434.41182373406
-0.654852297067514,1434.42182373406
-0.660360053540832,1434.43182373406
-0.665594181475949,1434.44182373406
-0.671508254321131,1434.45182373406
-0.677671521169433,1434.46182373406
-0.683946165993514,1434.47182373406
-0.690426111694041,1434.48182373406
-0.696947403611526,1434.49182373406
-0.703865316576901,1434.50182373406
-0.709895469972894,1434.51182373406
-0.714919815214693,1434.52182373406
-0.720317952829693,1434.53182373406
-0.72542392565837,1434.54182373406
-0.730206578918097,1434.55182373406
-0.735208367216276,1434.56182373406
-0.740553687325195,1434.57182373406
-0.74648160371581,1434.58182373406
-0.75187324588021,1434.59182373406
-0.75666752667076,1434.60182373406
-0.760784564158315,1434.61182373406
-0.764489449021432,1434.62182373406
-0.768123431131256,1434.63182373406
-0.771886967750986,1434.64182373406
-0.775805904504742,1434.65182373406
-0.780272912258749,1434.66182373406
-0.784758277074413,1434.67182373406
-0.78975571043243,1434.68182373406
-0.794337021995389,1434.69182373406
-0.798526728794524,1434.70182373406
-0.802382443947232,1434.71182373406
-0.80590069800489,1434.72182373406
-0.809002189107413,1434.73182373406
-0.811817841382552,1434.74182373406
-0.814598858373659,1434.75182373406
-0.816532597709378,1434.76182373406
-0.81732316569258,1434.77182373406
-0.815053300185094,1434.78182373406
-0.806104078883451,1434.79182373406
-0.786489368303794,1434.80182373406
-0.754635254382856,1434.81182373406
-0.712385735820332,1434.82182373406
-0.665016046184291,1434.83182373406
-0.617506744941104,1434.84182373406
-0.575068642284711,1434.85182373406
-0.540038214099925,1434.86182373406
-0.5140377822066,1434.87182373406
-0.496735095840967,1434.88182373406
-0.488105527617091,1434.89182373406
-0.485438687829284,1434.90182373406
-0.488551708714696,1434.91182373406
-0.495198536890566,1434.92182373406
-0.504691074263911,1434.93182373406
-0.516540896005351,1434.94182373406
-0.529357667235829,1434.95182373406
-0.54347261457742,1434.96182373406
-0.557747769318507,1434.97182373406
-0.571202870325211,1434.98182373406
-0.58330043149764,1434.99182373406
-0.594252190241954,1435.00182373406
-0.604255993121708,1435.01182373406
-0.614109845630668,1435.02182373406
-0.623170644894965,1435.03182373406
-0.632900770784893,1435.04182373406
-0.643201179774386,1435.05182373406
-0.654154794499046,1435.06182373406
-0.665005820415708,1435.07182373406
-0.67546049469669,1435.08182373406
-0.683360454718071,1435.09182373406
-0.688321968241235,1435.10182373406
-0.690072943028382,1435.11182373406
-0.688316272148414,1435.12182373406
-0.683900600432102,1435.13182373406
-0.676929069100224,1435.14182373406
-0.668091422175764,1435.15182373406
-0.658437400404226,1435.16182373406
-0.648564681380735,1435.17182373406
-0.639423828790132,1435.18182373406
-0.631531586260963,1435.19182373406
-0.625892418200974,1435.20182373406
-0.621765453297447,1435.21182373406
-0.619570242816383,1435.22182373406
-0.619032345792687,1435.23182373406
-0.619769608900594,1435.24182373406
-0.621707527152562,1435.25182373406
-0.624603544610582,1435.26182373406
-0.628308452591765,1435.27182373406
-0.632973438332385,1435.28182373406
-0.637067754156229,1435.29182373406
-0.641153237229518,1435.30182373406
-0.645626128243508,1435.31182373406
-0.649972240816445,1435.32182373406
-0.654976513072255,1435.33182373406
-0.660184530498889,1435.34182373406
-0.665621515313464,1435.35182373406
-0.670545102578459,1435.36182373406
-0.675209430758698,1435.37182373406
-0.679695457296201,1435.38182373406
-0.684397167667098,1435.39182373406
-0.688925037539342,1435.40182373406
-0.693502655403984,1435.41182373406
-0.697918708324847,1435.42182373406
-0.70179427532954,1435.43182373406
-0.705885952906363,1435.44182373406
-0.710033572742784,1435.45182373406
-0.714388425929082,1435.46182373406
-0.719178018576365,1435.47182373406
-0.723468061201653,1435.48182373406
-0.728337215482451,1435.49182373406
-0.733258977201195,1435.50182373406
-0.737497765082874,1435.51182373406
-0.741567422858245,1435.52182373406
-0.745062949392834,1435.53182373406
-0.748003312427528,1435.54182373406
-0.750889055171985,1435.55182373406
-0.754167692216494,1435.56182373406
-0.757701481681617,1435.57182373406
-0.761326799491059,1435.58182373406
-0.765339620884965,1435.59182373406
-0.769488235989298,1435.60182373406
-0.773685682126173,1435.61182373406
-0.777930258690721,1435.62182373406
-0.78150369183069,1435.63182373406
-0.783857971777933,1435.64182373406
-0.78249473874475,1435.65182373406
-0.774207901633013,1435.66182373406
-0.754448530001677,1435.67182373406
-0.721038106684707,1435.68182373406
-0.676341603276482,1435.69182373406
