PPG,time
0.0756377662075961,1758.93117827876
0.148739816751808,1758.94117827876
0.130113749067771,1758.95117827876
0.139322881414452,1758.96117827876
0.133664913583095,1758.97117827876
0.138684817245345,1758.98117827876
0.138017844263973,1758.99117827876
0.141486300486267,1759.00117827876
0.142182720716583,1759.01117827876
0.143795085728207,1759.02117827876
0.144072763245547,1759.03117827876
0.144108001379372,1759.04117827876
0.143735034399235,1759.05117827876
0.143501146747952,1759.06117827876
0.142490429642315,1759.07117827876
0.141395291638013,1759.08117827876
0.140015531715668,1759.09117827876
0.138892884064432,1759.10117827876
0.137688122630527,1759.11117827876
0.136943686871964,1759.12117827876
0.136350714560398,1759.13117827876
0.136221103623629,1759.14117827876
0.136196604578739,1759.15117827876
0.136817871575464,1759.16117827876
0.136621248515256,1759.17117827876
0.136414384536017,1759.18117827876
0.137123549568328,1759.19117827876
0.137461831289966,1759.20117827876
0.138291788926596,1759.21117827876
0.139309214456137,1759.22117827876
0.140036824391029,1759.23117827876
0.140431374474617,1759.24117827876
0.140277263348679,1759.25117827876
0.139287096252527,1759.26117827876
0.137994173269459,1759.27117827876
0.136488036914546,1759.28117827876
0.134703936906154,1759.29117827876
0.132401348597427,1759.30117827876
0.129812032010726,1759.31117827876
0.126738621263691,1759.32117827876
0.12346162295623,1759.33117827876
0.120335412178268,1759.34117827876
0.117304423177217,1759.35117827876
0.114865273168486,1759.36117827876
0.112537176697711,1759.37117827876
0.110551526585542,1759.38117827876
0.108903350744139,1759.39117827876
0.106505322272137,1759.40117827876
0.104046699278401,1759.41117827876
0.101001464377918,1759.42117827876
0.0980825092182337,1759.43117827876
0.0951775740942407,1759.44117827876
0.0927271074835211,1759.45117827876
0.0906850529469141,1759.46117827876
0.0887551904820501,1759.47117827876
0.0869383733604318,1759.48117827876
0.0851504272764578,1759.49117827876
0.0828893159316423,1759.50117827876
0.0806476642253807,1759.51117827876
0.077701461579344,1759.52117827876
0.0746783819946859,1759.53117827876
0.0719160105150289,1759.54117827876
0.0697445214420774,1759.55117827876
0.0681524834393576,1759.56117827876
0.0663020433725078,1759.57117827876
0.0644885648917518,1759.58117827876
0.0623772262657043,1759.59117827876
0.0600851725143377,1759.60117827876
0.0573902424492331,1759.61117827876
0.055074704366061,1759.62117827876
0.0529434694328858,1759.63117827876
0.0508367130958393,1759.64117827876
0.0483483630856625,1759.65117827876
0.0458127857817634,1759.66117827876
0.0433352563286086,1759.67117827876
0.0408727490775557,1759.68117827876
0.038535675440352,1759.69117827876
0.0363587589564669,1759.70117827876
0.0344715288846863,1759.71117827876
0.0327738655288173,1759.72117827876
0.0309204835261533,1759.73117827876
0.0284516695293396,1759.74117827876
0.0264250673880018,1759.75117827876
0.0236319859578852,1759.76117827876
0.0207476957135081,1759.77117827876
0.0181932850250836,1759.78117827876
0.0154425496656418,1759.79117827876
0.0129603453680653,1759.80117827876
0.0101648165575219,1759.81117827876
0.00714358791774866,1759.82117827876
0.00441101077725349,1759.83117827876
0.00161500302360212,1759.84117827876
-0.00118478951289045,1759.85117827876
-0.00359063442980667,1759.86117827876
-0.00609269568967791,1759.87117827876
-0.00808891149969155,1759.88117827876
-0.00942787860803877,1759.89117827876
-0.00897835826221217,1759.90117827876
-0.00556930754613488,1759.91117827876
0.000828462373378246,1759.92117827876
0.0107154340115248,1759.93117827876
0.0236571083367617,1759.94117827876
0.0392362175572517,1759.95117827876
0.0553470929434375,1759.96117827876
0.0725140736867557,1759.97117827876
0.0887471167654708,1759.98117827876
0.104015533114036,1759.99117827876
0.11698098699045,1760.00117827876
0.128119127077345,1760.01117827876
0.136873268738301,1760.02117827876
0.143607852206378,1760.03117827876
0.148866506181351,1760.04117827876
0.151889578616833,1760.05117827876
0.15368373220424,1760.06117827876
0.15441348163953,1760.07117827876
0.154214243551862,1760.08117827876
0.15402467627538,1760.09117827876
0.154016097903051,1760.10117827876
0.154248582297718,1760.11117827876
0.154796913794425,1760.12117827876
0.155419871933815,1760.13117827876
0.156431065707486,1760.14117827876
0.157867791042659,1760.15117827876
0.159350228883573,1760.16117827876
0.161061162334991,1760.17117827876
0.162435057840524,1760.18117827876
0.163544520397228,1760.19117827876
0.164205934696989,1760.20117827876
0.164136334658786,1760.21117827876
0.163701723847506,1760.22117827876
0.162501898061932,1760.23117827876
0.161235023206547,1760.24117827876
0.159977483689833,1760.25117827876
0.158679214944474,1760.26117827876
0.158048954162443,1760.27117827876
0.156802395122164,1760.28117827876
0.155298650787146,1760.29117827876
0.154887275730344,1760.30117827876
0.154552039877963,1760.31117827876
0.154543563868628,1760.32117827876
0.155274655642749,1760.33117827876
0.156406296236598,1760.34117827876
0.157455554198652,1760.35117827876
0.158111265602133,1760.36117827876
0.158677730112485,1760.37117827876
0.158926556929339,1760.38117827876
0.159214152551544,1760.39117827876
0.159573756786363,1760.40117827876
0.159742100829144,1760.41117827876
0.159944511999121,1760.42117827876
0.15989438209526,1760.43117827876
0.159304874932993,1760.44117827876
0.158517460184266,1760.45117827876
0.156513168484002,1760.46117827876
0.1543772875035,1760.47117827876
0.151364754823186,1760.48117827876
0.14864661701397,1760.49117827876
0.145344373264371,1760.50117827876
0.141938927620576,1760.51117827876
0.138613436476076,1760.52117827876
0.13582427919017,1760.53117827876
0.133217927123664,1760.54117827876
0.13065560765082,1760.55117827876
0.128036979504389,1760.56117827876
0.12517091929516,1760.57117827876
0.122412054501397,1760.58117827876
0.119735263958185,1760.59117827876
0.117120485996978,1760.60117827876
0.114847580606896,1760.61117827876
0.112867364851118,1760.62117827876
0.110983730238472,1760.63117827876
0.109175671222197,1760.64117827876
0.107303919179806,1760.65117827876
0.104933313725069,1760.66117827876
0.103337044503481,1760.67117827876
0.10133014721507,1760.68117827876
0.0991469527071966,1760.69117827876
0.0967683196298645,1760.70117827876
0.0940916155912619,1760.71117827876
0.0912363755633227,1760.72117827876
0.0889353444277996,1760.73117827876
0.0862966166979497,1760.74117827876
0.0835600978637238,1760.75117827876
0.0806479297560834,1760.76117827876
0.0778084185694792,1760.77117827876
0.0751412658037109,1760.78117827876
0.0726799378172672,1760.79117827876
0.0704089092105191,1760.80117827876
0.0678741275486179,1760.81117827876
0.0654790349957513,1760.82117827876
0.0625967785481109,1760.83117827876
0.0599660924662805,1760.84117827876
0.0576443780363563,1760.85117827876
0.0553208165913584,1760.86117827876
0.0535650963026629,1760.87117827876
0.0514489604922405,1760.88117827876
0.0494586150104042,1760.89117827876
0.0470038707350472,1760.90117827876
0.0442070930753763,1760.91117827876
0.0415986847662201,1760.92117827876
0.0387889931922558,1760.93117827876
0.0359991200200988,1760.94117827876
0.0333328483576359,1760.95117827876
0.0307962444895088,1760.96117827876
0.0282787019678751,1760.97117827876
0.0253987332602714,1760.98117827876
0.022857532610769,1760.99117827876
0.0197719345568952,1761.00117827876
0.0168064771521952,1761.01117827876
0.0143461368676263,1761.02117827876
0.0118651058219588,1761.03117827876
0.0101631324170719,1761.04117827876
0.00898920905871571,1761.05117827876
0.0101161805994657,1761.06117827876
0.0140771867524288,1761.07117827876
0.0209892138323172,1761.08117827876
0.031763442261796,1761.09117827876
0.0452966420539391,1761.10117827876
0.0615119088803444,1761.11117827876
0.0780495291909452,1761.12117827876
0.0951250097035569,1761.13117827876
0.111454014893383,1761.14117827876
0.125849459782676,1761.15117827876
0.138633340743045,1761.16117827876
0.149141314562939,1761.17117827876
0.157335487358237,1761.18117827876
0.163382607441271,1761.19117827876
0.167455808367048,1761.20117827876
0.169501705859982,1761.21117827876
0.170849929849169,1761.22117827876
0.171148055406122,1761.23117827876
0.171260281416265,1761.24117827876
0.171449861137058,1761.25117827876
0.171725612099377,1761.26117827876
0.171538351706529,1761.27117827876
0.17166407304482,1761.28117827876
0.171581485107679,1761.29117827876
0.171770591072368,1761.30117827876
0.172822937886356,1761.31117827876
0.174004098963093,1761.32117827876
0.175408000303708,1761.33117827876
0.176821728146192,1761.34117827876
0.177605743703958,1761.35117827876
0.177777241445047,1761.36117827876
0.177308971990523,1761.37117827876
0.175553882473753,1761.38117827876
0.173735767739823,1761.39117827876
0.171985255731507,1761.40117827876
0.169988051573221,1761.41117827876
0.168834745858438,1761.42117827876
0.167822720609994,1761.43117827876
0.166912456519289,1761.44117827876
0.166540469229144,1761.45117827876
0.166222574741672,1761.46117827876
0.166674732796888,1761.47117827876
0.167181632468287,1761.48117827876
0.167904499617339,1761.49117827876
0.168723643989248,1761.50117827876
0.169289860988522,1761.51117827876
0.170212700785335,1761.52117827876
0.170836172506165,1761.53117827876
0.171446631665961,1761.54117827876
0.171850362495261,1761.55117827876
0.171817095944133,1761.56117827876
0.171503155359692,1761.57117827876
0.171150185783466,1761.58117827876
0.170548000175939,1761.59117827876
0.169285680088927,1761.60117827876
0.167784372874488,1761.61117827876
0.165702523784955,1761.62117827876
0.163140252446712,1761.63117827876
0.160503431756755,1761.64117827876
0.157488927173798,1761.65117827876
0.154572236894135,1761.66117827876
0.15167869106233,1761.67117827876
0.148857574283417,1761.68117827876
0.146159763539416,1761.69117827876
0.143838965704918,1761.70117827876
0.141724802166735,1761.71117827876
0.139554873724139,1761.72117827876
0.137557115052109,1761.73117827876
0.135147758660447,1761.74117827876
0.132738805430854,1761.75117827876
0.129807748820507,1761.76117827876
0.126625306242258,1761.77117827876
0.123048814863538,1761.78117827876
0.119761291540857,1761.79117827876
0.116717508598442,1761.80117827876
0.113914032427925,1761.81117827876
0.111994460609292,1761.82117827876
0.110260363343763,1761.83117827876
0.109129678623959,1761.84117827876
0.1073627130623,1761.85117827876
0.105641847677103,1761.86117827876
0.104113376579751,1761.87117827876
0.102568652594113,1761.88117827876
0.100615268476039,1761.89117827876
0.0988463339214407,1761.90117827876
0.0968164237614769,1761.91117827876
0.0948204721330625,1761.92117827876
0.0929528004568465,1761.93117827876
0.0907338557333357,1761.94117827876
0.0883254132053061,1761.95117827876
0.0860079542778653,1761.96117827876
0.0832177507937161,1761.97117827876
0.0805244004574025,1761.98117827876
0.0778157951299232,1761.99117827876
0.0744582237981256,1762.00117827876
0.0715238132641324,1762.01117827876
0.0683751526364759,1762.02117827876
0.0655830350675996,1762.03117827876
0.0627332868416251,1762.04117827876
0.0600702608849705,1762.05117827876
0.0578219428947944,1762.06117827876
0.0555656638481411,1762.07117827876
0.0532853739382787,1762.08117827876
0.0507102591446891,1762.09117827876
0.0474395414241444,1762.10117827876
0.0444271940991903,1762.11117827876
0.0414166759381929,1762.12117827876
0.0387302570326512,1762.13117827876
0.0363813520885629,1762.14117827876
0.035263785458494,1762.15117827876
0.0356043093963465,1762.16117827876
0.0380590617876729,1762.17117827876
0.0437217111499735,1762.18117827876
0.0520699556511212,1762.19117827876
0.0638736620709924,1762.20117827876
0.0774202255003557,1762.21117827876
0.0931550603297586,1762.22117827876
0.109414806698918,1762.23117827876
0.125440992780514,1762.24117827876
0.140259678594235,1762.25117827876
0.152421899198372,1762.26117827876
0.162037332396424,1762.27117827876
0.169118504226289,1762.28117827876
0.174800374953507,1762.29117827876
0.178792194211006,1762.30117827876
0.18140279393602,1762.31117827876
0.182949669935359,1762.32117827876
0.183273651458795,1762.33117827876
0.182544269559855,1762.34117827876
0.182141739915254,1762.35117827876
0.181619142697493,1762.36117827876
0.181303173750538,1762.37117827876
0.181219509025113,1762.38117827876
0.181389120773185,1762.39117827876
0.182399093998153,1762.40117827876
0.183687730132875,1762.41117827876
0.185494304016304,1762.42117827876
0.187143677745648,1762.43117827876
0.188222401635389,1762.44117827876
0.188429620592855,1762.45117827876
0.187234667836458,1762.46117827876
0.185354309051961,1762.47117827876
0.183048648182983,1762.48117827876
0.180127727388096,1762.49117827876
0.178115106161306,1762.50117827876
0.176577987342698,1762.51117827876
0.175251161438778,1762.52117827876
0.174464370425308,1762.53117827876
0.173744635359377,1762.54117827876
0.173450572837447,1762.55117827876
0.173244742492334,1762.56117827876
0.173796244175272,1762.57117827876
0.174306541601242,1762.58117827876
0.175513549367957,1762.59117827876
0.177009502126277,1762.60117827876
0.178333326192782,1762.61117827876
0.17931838086825,1762.62117827876
0.179833071090113,1762.63117827876
0.180318403327806,1762.64117827876
0.179868942463657,1762.65117827876
0.179171646428671,1762.66117827876
0.178403150505391,1762.67117827876
0.177237187335134,1762.68117827876
0.175752912705095,1762.69117827876
0.173860759041763,1762.70117827876
0.172299778872887,1762.71117827876
0.169950463061082,1762.72117827876
0.167740459018041,1762.73117827876
0.16499177887068,1762.74117827876
0.162123227043717,1762.75117827876
0.159542715581607,1762.76117827876
0.156512739338561,1762.77117827876
0.154013304579619,1762.78117827876
0.15120240443522,1762.79117827876
0.149045755586507,1762.80117827876
0.146588097761736,1762.81117827876
0.143824843717451,1762.82117827876
0.141321867003874,1762.83117827876
0.139193839516619,1762.84117827876
0.136866771683713,1762.85117827876
0.134750977617593,1762.86117827876
0.132305570560266,1762.87117827876
0.129492997444698,1762.88117827876
0.126378074160689,1762.89117827876
0.123548715861582,1762.90117827876
0.120288323199032,1762.91117827876
0.117182456571811,1762.92117827876
0.114009494533528,1762.93117827876
0.110918369117945,1762.94117827876
0.108291551704192,1762.95117827876
0.105891595933506,1762.96117827876
0.103507472787419,1762.97117827876
0.101417131595699,1762.98117827876
0.0987451222714937,1762.99117827876
0.0961341162323339,1763.00117827876
0.0936898226051909,1763.01117827876
0.0913136857498681,1763.02117827876
0.08911835379237,1763.03117827876
0.0871000477696819,1763.04117827876
0.085446694600761,1763.05117827876
0.0832586466342599,1763.06117827876
0.0811224742188067,1763.07117827876
0.0790866640922621,1763.08117827876
0.0763016832170479,1763.09117827876
0.0740358544223001,1763.10117827876
0.0717265531451938,1763.11117827876
0.0696019193011559,1763.12117827876
0.0670826287321832,1763.13117827876
0.0644287877689285,1763.14117827876
0.0618262555877808,1763.15117827876
0.0594282196248963,1763.16117827876
0.0570733664131239,1763.17117827876
0.0548158997223786,1763.18117827876
0.0525829817053718,1763.19117827876
0.0504974982755559,1763.20117827876
0.0478404289794967,1763.21117827876
0.044912142321401,1763.22117827876
0.0415175562468246,1763.23117827876
0.037934804805893,1763.24117827876
0.0343726651805977,1763.25117827876
0.0316247447384913,1763.26117827876
0.0298295881545752,1763.27117827876
0.0295983121431285,1763.28117827876
0.0318584516740357,1763.29117827876
0.0376066692615717,1763.30117827876
0.0468415511947873,1763.31117827876
0.0598430210430179,1763.32117827876
0.0755588141746656,1763.33117827876
0.0923011336516414,1763.34117827876
0.109720822053706,1763.35117827876
0.126025871397221,1763.36117827876
0.140775724146505,1763.37117827876
0.153473853198497,1763.38117827876
0.164183702317525,1763.39117827876
0.172926136415208,1763.40117827876
0.179814773321557,1763.41117827876
0.184943600277004,1763.42117827876
0.188256414406559,1763.43117827876
0.190716050754138,1763.44117827876
0.191809552787688,1763.45117827876
0.192939498073678,1763.46117827876
0.193659175830158,1763.47117827876
0.194542777949695,1763.48117827876
0.195751579850502,1763.49117827876
0.19758515463311,1763.50117827876
0.199256337758118,1763.51117827876
0.200952907447578,1763.52117827876
0.202380511668756,1763.53117827876
0.204094426357729,1763.54117827876
0.205840302218078,1763.55117827876
0.207955377421918,1763.56117827876
0.208990022331239,1763.57117827876
0.2095447966476,1763.58117827876
0.209719613156661,1763.59117827876
0.208934500831022,1763.60117827876
0.207814359430847,1763.61117827876
0.206806988076707,1763.62117827876
0.205508114728441,1763.63117827876
0.204207420663588,1763.64117827876
0.203424089599043,1763.65117827876
0.202890633143588,1763.66117827876
0.202591356651477,1763.67117827876
0.20248004075644,1763.68117827876
0.202233329079859,1763.69117827876
0.202178256805321,1763.70117827876
0.20252112492132,1763.71117827876
0.202658443305456,1763.72117827876
0.203232499378559,1763.73117827876
0.204286988743049,1763.74117827876
0.205204257331953,1763.75117827876
0.205851799228226,1763.76117827876
0.206147793231113,1763.77117827876
0.205490358349394,1763.78117827876
0.204633787612686,1763.79117827876
0.202988908844101,1763.80117827876
0.201387809410611,1763.81117827876
0.199664555268835,1763.82117827876
0.197684170043019,1763.83117827876
0.195392444562988,1763.84117827876
0.193165414972814,1763.85117827876
0.190766182903966,1763.86117827876
0.188235452968497,1763.87117827876
0.185733076274729,1763.88117827876
0.183216932610356,1763.89117827876
0.181003055409295,1763.90117827876
0.178413513341746,1763.91117827876
0.175745249165754,1763.92117827876
0.172865042509138,1763.93117827876
0.16981222725822,1763.94117827876
0.167070613167255,1763.95117827876
0.164458952438556,1763.96117827876
0.161942692605395,1763.97117827876
0.159927476760686,1763.98117827876
0.158035630729357,1763.99117827876
0.156499165732533,1764.00117827876
0.154747185380961,1764.01117827876
0.152984885911656,1764.02117827876
0.151148834030584,1764.03117827876
0.14825078432172,1764.04117827876
0.144664490579916,1764.05117827876
0.141077486897394,1764.06117827876
0.137309326874811,1764.07117827876
0.134085213926933,1764.08117827876
0.13159995244231,1764.09117827876
0.129537953429448,1764.10117827876
0.127820439436181,1764.11117827876
0.125119309979526,1764.12117827876
0.122103643970708,1764.13117827876
0.118774886661189,1764.14117827876
0.115617083130045,1764.15117827876
0.112956387707482,1764.16117827876
0.110873003274464,1764.17117827876
0.108926042085173,1764.18117827876
0.10674487482942,1764.19117827876
0.104122766737271,1764.20117827876
0.101274656006529,1764.21117827876
0.0984373695012116,1764.22117827876
0.0954007553296505,1764.23117827876
0.0926544516336243,1764.24117827876
0.0902798052987919,1764.25117827876
0.0875640071888152,1764.26117827876
0.0847683659334722,1764.27117827876
0.0822553450549685,1764.28117827876
0.079311347506091,1764.29117827876
0.0763030086218472,1764.30117827876
0.0728152850345959,1764.31117827876
0.0695678692111015,1764.32117827876
0.0666009892190815,1764.33117827876
0.0642717354719247,1764.34117827876
0.0621201520543596,1764.35117827876
0.0602036444170192,1764.36117827876
0.0581171721294607,1764.37117827876
0.0556091899397637,1764.38117827876
0.0522803125881768,1764.39117827876
0.0486338619484593,1764.40117827876
0.0446724735992346,1764.41117827876
0.0405790980276867,1764.42117827876
0.0368514158564938,1764.43117827876
0.0333648257522099,1764.44117827876
0.030732889984409,1764.45117827876
0.0302454661350429,1764.46117827876
0.032182092381408,1764.47117827876
0.0371935410255935,1764.48117827876
0.0460457133788375,1764.49117827876
0.0585311196438399,1764.50117827876
0.0738374838386969,1764.51117827876
0.0910600881312687,1764.52117827876
0.108877848011565,1764.53117827876
0.126278585096415,1764.54117827876
0.142634195279771,1764.55117827876
0.1576072515048,1764.56117827876
0.170327801891421,1764.57117827876
0.180275865200032,1764.58117827876
0.186986901940199,1764.59117827876
0.191845305047472,1764.60117827876
0.195122586898232,1764.61117827876
0.196730383108718,1764.62117827876
0.197709505672343,1764.63117827876
0.198284404045109,1764.64117827876
0.199035659996249,1764.65117827876
0.200001436188954,1764.66117827876
0.200838608658452,1764.67117827876
0.20224093110373,1764.68117827876
0.204313438918031,1764.69117827876
0.206422039792576,1764.70117827876
0.208977323594675,1764.71117827876
0.2113330237653,1764.72117827876
0.213683316078065,1764.73117827876
0.215891127731718,1764.74117827876
0.218036480034098,1764.75117827876
0.219935888221905,1764.76117827876
0.220593964227379,1764.77117827876
0.220295416091082,1764.78117827876
0.219012830647331,1764.79117827876
0.217388518746398,1764.80117827876
0.215935560824661,1764.81117827876
0.214139703593622,1764.82117827876
0.212529668859374,1764.83117827876
0.211659456109461,1764.84117827876
0.211018070030898,1764.85117827876
0.210778659401502,1764.86117827876
0.210906339444743,1764.87117827876
0.211345681665534,1764.88117827876
0.212059465663005,1764.89117827876
0.212978070837061,1764.90117827876
0.214358321606385,1764.91117827876
0.215748349535098,1764.92117827876
0.217319919321569,1764.93117827876
0.218246348305657,1764.94117827876
0.218296285691347,1764.95117827876
0.217584104214241,1764.96117827876
0.216454131819465,1764.97117827876
0.214772395007233,1764.98117827876
0.212652029198296,1764.99117827876
0.210414394707238,1765.00117827876
0.208204577615988,1765.01117827876
0.206155099760462,1765.02117827876
0.203818360221095,1765.03117827876
0.20198242636665,1765.04117827876
0.200259153738943,1765.05117827876
0.197736471454295,1765.06117827876
0.195036846241198,1765.07117827876
0.192521741972961,1765.08117827876
0.189991755675942,1765.09117827876
0.187568336873428,1765.10117827876
0.185143648277784,1765.11117827876
0.182667556966058,1765.12117827876
0.1803602110345,1765.13117827876
0.17778548372453,1765.14117827876
0.175175684430022,1765.15117827876
0.172673985613377,1765.16117827876
0.170631521830795,1765.17117827876
0.168196399205525,1765.18117827876
0.166171087404233,1765.19117827876
0.164354417380341,1765.20117827876
0.16231036685403,1765.21117827876
0.160518659502511,1765.22117827876
0.158142998453678,1765.23117827876
0.155466355075259,1765.24117827876
0.152887951476288,1765.25117827876
0.149987007167293,1765.26117827876
0.146829898563612,1765.27117827876
0.144025940975395,1765.28117827876
0.141027566586556,1765.29117827876
0.138475530130182,1765.30117827876
0.135297257653173,1765.31117827876
0.132272691467911,1765.32117827876
0.128593621635257,1765.33117827876
0.125156337584309,1765.34117827876
0.121816140400545,1765.35117827876
0.1187079149193,1765.36117827876
0.115861566084972,1765.37117827876
0.113325328147348,1765.38117827876
0.111223455769403,1765.39117827876
0.109535731069604,1765.40117827876
0.107952406320036,1765.41117827876
0.106371516441905,1765.42117827876
0.104136308176132,1765.43117827876
0.101500075798095,1765.44117827876
0.0990141137162292,1765.45117827876
0.096130347669998,1765.46117827876
0.0931006311523069,1765.47117827876
0.0904664352336528,1765.48117827876
0.0877422317662159,1765.49117827876
0.0847490148549157,1765.50117827876
0.0819942294635316,1765.51117827876
0.0793812172367079,1765.52117827876
0.0765390517589528,1765.53117827876
0.073619060905329,1765.54117827876
0.0706597392885634,1765.55117827876
0.0672339953660527,1765.56117827876
0.0636550658405956,1765.57117827876
0.0599951785397594,1765.58117827876
0.0563420335076438,1765.59117827876
0.0529533322305629,1765.60117827876
0.0495730581571025,1765.61117827876
0.04656474995611,1765.62117827876
0.0440570347996204,1765.63117827876
0.0413476107536197,1765.64117827876
0.038798126904806,1765.65117827876
0.0362523962038505,1765.66117827876
0.0335798420702068,1765.67117827876
0.0327389248784481,1765.68117827876
0.0335569381723517,1765.69117827876
0.0376421075177036,1765.70117827876
0.0455107875668082,1765.71117827876
0.0568257821393196,1765.72117827876
0.0712231074506187,1765.73117827876
0.0868099441346709,1765.74117827876
0.103027130170645,1765.75117827876
0.119627872221811,1765.76117827876
0.135420263653382,1765.77117827876
0.150382236055699,1765.78117827876
0.164043099207918,1765.79117827876
0.175395140658009,1765.80117827876
0.184326860265408,1765.81117827876
0.191084473739359,1765.82117827876
0.195541995158211,1765.83117827876
0.198462028521708,1765.84117827876
0.199857590181711,1765.85117827876
0.201132268823281,1765.86117827876
0.201518814204486,1765.87117827876
0.201668865336593,1765.88117827876
0.2028988168541,1765.89117827876
0.204686796106304,1765.90117827876
0.207413705469969,1765.91117827876
0.211234922254784,1765.92117827876
0.215057432822251,1765.93117827876
0.21836509129997,1765.94117827876
0.221175744887575,1765.95117827876
0.223462401039988,1765.96117827876
0.225625537967126,1765.97117827876
0.226876562243848,1765.98117827876
0.227048906848296,1765.99117827876
0.226281313539283,1766.00117827876
0.224209945492998,1766.01117827876
0.222050547879539,1766.02117827876
0.219406393301107,1766.03117827876
0.216815977556427,1766.04117827876
0.214498880707788,1766.05117827876
0.212477559414282,1766.06117827876
0.211112237352059,1766.07117827876
0.210174394778852,1766.08117827876
0.209757494120384,1766.09117827876
0.209734655746558,1766.10117827876
0.210256623049132,1766.11117827876
0.210644470389231,1766.12117827876
0.211344671926143,1766.13117827876
0.212206567222881,1766.14117827876
0.212432833380572,1766.15117827876
0.212378473852563,1766.16117827876
0.212308390861873,1766.17117827876
0.211999205339757,1766.18117827876
0.21157776597947,1766.19117827876
0.21062465696959,1766.20117827876
0.208829241079157,1766.21117827876
0.206415657693872,1766.22117827876
0.20372389614011,1766.23117827876
0.200913944175644,1766.24117827876
0.198150047875772,1766.25117827876
0.195569209148868,1766.26117827876
0.192514246206704,1766.27117827876
0.189509089741832,1766.28117827876
0.186361466851117,1766.29117827876
0.183330104620282,1766.30117827876
0.179772741080173,1766.31117827876
0.176635176989279,1766.32117827876
0.173948197420089,1766.33117827876
0.17136437562572,1766.34117827876
0.169056769505602,1766.35117827876
0.166491851775621,1766.36117827876
0.163897379477997,1766.37117827876
0.161339567267053,1766.38117827876
0.159150169853449,1766.39117827876
0.157306495029123,1766.40117827876
0.155276846205221,1766.41117827876
0.154108660631164,1766.42117827876
0.152248242268076,1766.43117827876
0.150335062489318,1766.44117827876
0.147441059247251,1766.45117827876
0.144185968691223,1766.46117827876
0.141533542620076,1766.47117827876
0.138343819992294,1766.48117827876
0.135506624485346,1766.49117827876
0.133298229545382,1766.50117827876
0.131125870110513,1766.51117827876
0.129761323057212,1766.52117827876
0.128657827319049,1766.53117827876
0.126972275727905,1766.54117827876
0.125058320147124,1766.55117827876
0.122464770978357,1766.56117827876
0.119676010717434,1766.57117827876
0.116531715062133,1766.58117827876
0.112985184515788,1766.59117827876
0.109549714221048,1766.60117827876
0.106139013956998,1766.61117827876
0.103298158878437,1766.62117827876
0.100783091478055,1766.63117827876
0.0986380580337789,1766.64117827876
0.0961652002078098,1766.65117827876
0.0942606976633943,1766.66117827876
0.0922231178462053,1766.67117827876
0.0899719359484893,1766.68117827876
0.0876408061440786,1766.69117827876
0.0848104503210886,1766.70117827876
0.0819807472394668,1766.71117827876
0.0791888634048672,1766.72117827876
0.0764321038520439,1766.73117827876
0.0735629601369807,1766.74117827876
0.0712454960761407,1766.75117827876
0.0688077819941351,1766.76117827876
0.065964218193512,1766.77117827876
0.0630285733722167,1766.78117827876
0.0594428472161356,1766.79117827876
0.0557854561445312,1766.80117827876
0.0515746695788085,1766.81117827876
0.0482003517081018,1766.82117827876
0.0460034782632413,1766.83117827876
0.0451326325433783,1766.84117827876
0.0469735204743966,1766.85117827876
0.0515010347776386,1766.86117827876
0.0594340563636671,1766.87117827876
0.0710317423564154,1766.88117827876
0.0848473834417298,1766.89117827876
0.100868367401983,1766.90117827876
0.117443953525333,1766.91117827876
0.134005719034702,1766.92117827876
0.149567452562677,1766.93117827876
0.163585046239614,1766.94117827876
0.176044960387305,1766.95117827876
0.186760384926174,1766.96117827876
0.195169960791614,1766.97117827876
0.201437365278853,1766.98117827876
0.205954216814762,1766.99117827876
0.209264943410149,1767.00117827876
0.210822220704224,1767.01117827876
0.211944603473338,1767.02117827876
0.212793322048295,1767.03117827876
0.213043540190369,1767.04117827876
0.213886140119278,1767.05117827876
0.214499382331492,1767.06117827876
0.215559746717993,1767.07117827876
0.21765079851913,1767.08117827876
0.219842960304049,1767.09117827876
0.221970021622022,1767.10117827876
0.223897076170778,1767.11117827876
0.225140234930655,1767.12117827876
0.225629719961076,1767.13117827876
0.225000352406205,1767.14117827876
0.223873188422644,1767.15117827876
0.22231487766342,1767.16117827876
0.22039806033723,1767.17117827876
0.218521297749077,1767.18117827876
0.217123450240541,1767.19117827876
0.216006605844251,1767.20117827876
0.215334369390153,1767.21117827876
0.215154551357008,1767.22117827876
0.21556035751261,1767.23117827876
0.216346513276241,1767.24117827876
0.216939932832134,1767.25117827876
0.217843805503665,1767.26117827876
0.218503810557066,1767.27117827876
0.2198668809744,1767.28117827876
0.220915493586996,1767.29117827876
0.22157682376889,1767.30117827876
0.222276444771645,1767.31117827876
0.222306116842798,1767.32117827876
0.221805138922309,1767.33117827876
0.221240537316012,1767.34117827876
0.220074379786413,1767.35117827876
0.218906771098196,1767.36117827876
0.217527571481201,1767.37117827876
0.215593641373864,1767.38117827876
0.213153915862029,1767.39117827876
0.210240405179184,1767.40117827876
0.207215285599081,1767.41117827876
0.204269008872153,1767.42117827876
0.200946257979538,1767.43117827876
0.197407821660887,1767.44117827876
0.193426960549419,1767.45117827876
0.189834959059792,1767.46117827876
0.186222501230539,1767.47117827876
0.183110932731077,1767.48117827876
0.179956722520688,1767.49117827876
0.177396160668826,1767.50117827876
0.175205159493357,1767.51117827876
0.173185167803176,1767.52117827876
0.171325495322109,1767.53117827876
0.169397505017073,1767.54117827876
0.16736183420176,1767.55117827876
0.164847298277125,1767.56117827876
0.162458900568578,1767.57117827876
0.160302213771587,1767.58117827876
0.157477430577913,1767.59117827876
0.154522556623589,1767.60117827876
0.151310685439916,1767.61117827876
0.148093343854056,1767.62117827876
0.145470625141976,1767.63117827876
0.14273386478107,1767.64117827876
0.140362873147305,1767.65117827876
0.138591745484958,1767.66117827876
0.136377260139342,1767.67117827876
0.133724449832037,1767.68117827876
0.131036741624299,1767.69117827876
0.127793339603807,1767.70117827876
0.124427884707402,1767.71117827876
0.121410189622293,1767.72117827876
0.118546137416417,1767.73117827876
0.115677593269951,1767.74117827876
0.113541092765058,1767.75117827876
0.111188052570398,1767.76117827876
0.108837955654994,1767.77117827876
0.106042582309656,1767.78117827876
0.102658421984793,1767.79117827876
0.0993933076442952,1767.80117827876
0.0962016123054281,1767.81117827876
0.0927975520431673,1767.82117827876
0.0895114066221078,1767.83117827876
0.0861339550304336,1767.84117827876
0.0829459839893526,1767.85117827876
0.0796420240669536,1767.86117827876
0.076173230890221,1767.87117827876
0.0727935395806266,1767.88117827876
0.069649698829819,1767.89117827876
0.0668248858423119,1767.90117827876
0.0642950653858488,1767.91117827876
0.0621723546944872,1767.92117827876
0.0599014938791374,1767.93117827876
0.0576132886493418,1767.94117827876
0.0552817301743759,1767.95117827876
0.0526544476912764,1767.96117827876
0.0500909793974168,1767.97117827876
0.0476177258039691,1767.98117827876
0.0454620207289004,1767.99117827876
0.0447698779197942,1768.00117827876
0.0458119884538587,1768.01117827876
0.0500566291838539,1768.02117827876
0.0572786510812499,1768.03117827876
0.0678932201186578,1768.04117827876
0.081901589776405,1768.05117827876
0.0984594434779429,1768.06117827876
0.116062262501695,1768.07117827876
0.133753911822921,1768.08117827876
0.150953705212416,1768.09117827876
0.166550683508766,1768.10117827876
0.180156712738554,1768.11117827876
0.191574703948769,1768.12117827876
0.200971609955198,1768.13117827876
0.208490472847962,1768.14117827876
0.214398265443948,1768.15117827876
0.217833682275273,1768.16117827876
0.22025855530311,1768.17117827876
0.221295323692349,1768.18117827876
0.221406300350491,1768.19117827876
0.222342288092196,1768.20117827876
0.223260294295335,1768.21117827876
0.224639244577404,1768.22117827876
0.2259288255822,1768.23117827876
0.227503073678787,1768.24117827876
0.229310740525237,1768.25117827876
0.231347336263068,1768.26117827876
0.233957643512907,1768.27117827876
0.236402083504247,1768.28117827876
0.239174554011052,1768.29117827876
0.24134898836439,1768.30117827876
0.242405949184568,1768.31117827876
0.243180103575038,1768.32117827876
0.242877891086311,1768.33117827876
0.242065106184877,1768.34117827876
0.240952337127951,1768.35117827876
0.239473880123075,1768.36117827876
0.238011561907023,1768.37117827876
0.236568155761048,1768.38117827876
0.235583921181337,1768.39117827876
0.235560172707824,1768.40117827876
0.235572963941072,1768.41117827876
0.236033892288148,1768.42117827876
0.236614540238896,1768.43117827876
0.23687537276103,1768.44117827876
0.23751837579647,1768.45117827876
0.238048932159687,1768.46117827876
0.238624533044535,1768.47117827876
0.23875135973581,1768.48117827876
0.238651173374503,1768.49117827876
0.238224556590632,1768.50117827876
0.237924041221907,1768.51117827876
0.236980212406663,1768.52117827876
0.236054439523435,1768.53117827876
0.234628035107831,1768.54117827876
0.232610612529356,1768.55117827876
0.23071163362592,1768.56117827876
0.227903382193195,1768.57117827876
0.225296172854795,1768.58117827876
0.223221034836604,1768.59117827876
0.220934955885721,1768.60117827876
0.218582512634893,1768.61117827876
0.216524519543719,1768.62117827876
0.213080049511525,1768.63117827876
0.210045559359987,1768.64117827876
0.206434344840864,1768.65117827876
0.202474269805058,1768.66117827876
0.198788843133715,1768.67117827876
0.19478966259936,1768.68117827876
0.191709232914075,1768.69117827876
0.188546128469141,1768.70117827876
0.185703834136674,1768.71117827876
0.183079214059067,1768.72117827876
0.180655187890685,1768.73117827876
0.178158312281653,1768.74117827876
0.175917163631413,1768.75117827876
0.173878658969052,1768.76117827876
0.171810422721777,1768.77117827876
0.169273936804248,1768.78117827876
0.166203890469428,1768.79117827876
0.162930291581454,1768.80117827876
0.159418517499543,1768.81117827876
0.155428625295712,1768.82117827876
0.151504722471346,1768.83117827876
0.14797957408858,1768.84117827876
0.144588989092607,1768.85117827876
0.141289846624149,1768.86117827876
0.138059381303211,1768.87117827876
0.134769918470005,1768.88117827876
0.13179481812001,1768.89117827876
0.128872287577975,1768.90117827876
0.126395234096162,1768.91117827876
0.124260969060078,1768.92117827876
0.12225952973264,1768.93117827876
0.120050479844268,1768.94117827876
0.117689239201742,1768.95117827876
0.115150225414032,1768.96117827876
0.112703035246257,1768.97117827876
0.110149235317381,1768.98117827876
0.107341604555939,1768.99117827876
0.104105831062477,1769.00117827876
0.100095922985917,1769.01117827876
0.0959590843559914,1769.02117827876
0.0918194223829679,1769.03117827876
0.0879114293648986,1769.04117827876
0.0836528782239239,1769.05117827876
0.0801417357160958,1769.06117827876
0.0771000881198441,1769.07117827876
0.074484416840792,1769.08117827876
0.0718262450076723,1769.09117827876
0.0688008628286488,1769.10117827876
0.065641584100833,1769.11117827876
0.062534941981932,1769.12117827876
0.0595905136555399,1769.13117827876
0.0565133768980124,1769.14117827876
0.053718379359104,1769.15117827876
0.0507634059146067,1769.16117827876
0.0477352307505605,1769.17117827876
0.0447884930041289,1769.18117827876
0.042355160312285,1769.19117827876
0.042048229750638,1769.20117827876
0.0443367352660796,1769.21117827876
0.0504454908875394,1769.22117827876
0.06004153454067,1769.23117827876
0.0732767239322231,1769.24117827876
0.0892131254606656,1769.25117827876
0.106959452192941,1769.26117827876
0.12535927653336,1769.27117827876
0.143197902031395,1769.28117827876
0.159829252756056,1769.29117827876
0.174638584478508,1769.30117827876
0.186971787387145,1769.31117827876
0.196960019247144,1769.32117827876
0.204720779747221,1769.33117827876
0.210431902089946,1769.34117827876
0.214294468215149,1769.35117827876
0.216704297429409,1769.36117827876
0.217726513438211,1769.37117827876
0.21833410891482,1769.38117827876
0.218362035596488,1769.39117827876
0.218412493153223,1769.40117827876
0.218941984611661,1769.41117827876
0.219487823098615,1769.42117827876
0.220321720593638,1769.43117827876
0.221866654889338,1769.44117827876
0.223619926736021,1769.45117827876
0.226020857193647,1769.46117827876
0.22898862546841,1769.47117827876
0.231183280738905,1769.48117827876
0.233181662181229,1769.49117827876
0.233684813722401,1769.50117827876
0.232893323868347,1769.51117827876
0.231533920331547,1769.52117827876
0.229135050301996,1769.53117827876
0.227153252754134,1769.54117827876
0.225141839640233,1769.55117827876
0.223693557653104,1769.56117827876
0.222721022925264,1769.57117827876
0.221746428564058,1769.58117827876
0.221958410446418,1769.59117827876
0.22275885783385,1769.60117827876
0.224186905064204,1769.61117827876
0.225914783153162,1769.62117827876
0.228106769830102,1769.63117827876
0.230347167335841,1769.64117827876
0.231989008406577,1769.65117827876
0.232879581189794,1769.66117827876
0.232890202072725,1769.67117827876
0.231890334250544,1769.68117827876
0.230407225772973,1769.69117827876
0.228752327100801,1769.70117827876
0.226919870940358,1769.71117827876
0.225006884252486,1769.72117827876
0.222466397521685,1769.73117827876
0.21954308167595,1769.74117827876
0.216796610033009,1769.75117827876
0.213183188005976,1769.76117827876
0.209998957322163,1769.77117827876
0.207110366849636,1769.78117827876
0.20402620392543,1769.79117827876
0.201090902209951,1769.80117827876
0.197432524351425,1769.81117827876
0.194206479167117,1769.82117827876
0.190580891658495,1769.83117827876
0.186924724409239,1769.84117827876
0.183444531590705,1769.85117827876
0.179988084639527,1769.86117827876
0.177118048907077,1769.87117827876
0.174099893800467,1769.88117827876
0.17122286358428,1769.89117827876
0.168409113940253,1769.90117827876
0.165372482746597,1769.91117827876
0.162793414520561,1769.92117827876
0.160293641257947,1769.93117827876
0.158205866926473,1769.94117827876
0.156579817262833,1769.95117827876
0.155066685945383,1769.96117827876
0.153756727953715,1769.97117827876
0.151800983614514,1769.98117827876
0.149185913577058,1769.99117827876
0.146571306744005,1770.00117827876
0.143582881366811,1770.01117827876
0.140589368769236,1770.02117827876
0.137701566372368,1770.03117827876
0.134836581226931,1770.04117827876
0.13178293501228,1770.05117827876
0.12877709370715,1770.06117827876
0.125789125356437,1770.07117827876
0.123516146666629,1770.08117827876
0.120673127799136,1770.09117827876
0.117743792526509,1770.10117827876
0.114789933717744,1770.11117827876
0.111735959905475,1770.12117827876
0.108776245215679,1770.13117827876
0.105822358913299,1770.14117827876
0.102881648528599,1770.15117827876
0.100704996906121,1770.16117827876
0.0978880892890525,1770.17117827876
0.0949792577643852,1770.18117827876
0.0920849339896944,1770.19117827876
0.0893074642829779,1770.20117827876
0.0865689240588767,1770.21117827876
0.083355837766182,1770.22117827876
0.0808523148549463,1770.23117827876
0.0782968390002927,1770.24117827876
0.075529236789447,1770.25117827876
0.0727106111243739,1770.26117827876
0.0694838028021124,1770.27117827876
0.0659972711737341,1770.28117827876
0.0622512334442066,1770.29117827876
0.0587922323860564,1770.30117827876
0.055512132898537,1770.31117827876
0.0527739201599609,1770.32117827876
0.0507906545608558,1770.33117827876
0.050028593474036,1770.34117827876
0.0515358424807335,1770.35117827876
0.056074645088617,1770.36117827876
0.0645870568484179,1770.37117827876
0.0767519546623583,1770.38117827876
0.0916278975104386,1770.39117827876
0.108846451581442,1770.40117827876
0.126949892649183,1770.41117827876
0.145063423916503,1770.42117827876
0.162129792827741,1770.43117827876
0.177582307903625,1770.44117827876
0.190538669092156,1770.45117827876
0.201306470754544,1770.46117827876
0.209674599428879,1770.47117827876
0.216084236673572,1770.48117827876
0.220321880397483,1770.49117827876
0.223139218756293,1770.50117827876
0.225335055684186,1770.51117827876
0.226075683060781,1770.52117827876
0.227024077400616,1770.53117827876
0.227429874505708,1770.54117827876
0.227594984821825,1770.55117827876
0.228654855748967,1770.56117827876
0.230029365867175,1770.57117827876
0.232196450650611,1770.58117827876
0.235046816309755,1770.59117827876
0.23738288104102,1770.60117827876
0.240154261810744,1770.61117827876
0.242484542495525,1770.62117827876
0.244264220729564,1770.63117827876
0.245443810589681,1770.64117827876
0.245908393432868,1770.65117827876
0.245383001278372,1770.66117827876
0.243771334918239,1770.67117827876
0.241325188197232,1770.68117827876
0.238511478518935,1770.69117827876
0.23623580435354,1770.70117827876
0.234676210259317,1770.71117827876
0.233579955041013,1770.72117827876
0.233197635732841,1770.73117827876
0.233236541662967,1770.74117827876
0.233033275693592,1770.75117827876
0.232846923174284,1770.76117827876
0.232673129677968,1770.77117827876
0.2331608741688,1770.78117827876
0.233376124079641,1770.79117827876
0.234636189757982,1770.80117827876
0.235467405242809,1770.81117827876
0.236192964190183,1770.82117827876
0.236529974262641,1770.83117827876
0.236281434345138,1770.84117827876
0.235569329043332,1770.85117827876
0.234889677551834,1770.86117827876
0.233288219740794,1770.87117827876
0.231105971758535,1770.88117827876
0.228723496913191,1770.89117827876
0.225952632989514,1770.90117827876
0.222909939260374,1770.91117827876
0.219301085098096,1770.92117827876
0.215850498126565,1770.93117827876
0.212307446027196,1770.94117827876
0.208748025518236,1770.95117827876
0.205296585173413,1770.96117827876
0.201584537958103,1770.97117827876
0.198318070817888,1770.98117827876
0.195260411162451,1770.99117827876
0.192518429036939,1771.00117827876
0.189729204796445,1771.01117827876
0.186601523873872,1771.02117827876
0.183109197063434,1771.03117827876
0.179561715238167,1771.04117827876
0.176154493173208,1771.05117827876
0.17330411808126,1771.06117827876
0.170616082813743,1771.07117827876
0.168141307573186,1771.08117827876
0.165325926528525,1771.09117827876
0.162469101914213,1771.10117827876
0.159525741286143,1771.11117827876
0.156548329572008,1771.12117827876
0.153979278897443,1771.13117827876
0.15139008294049,1771.14117827876
0.149001014763285,1771.15117827876
0.146725026776222,1771.16117827876
0.144114166795117,1771.17117827876
0.141444279458643,1771.18117827876
0.138736884386163,1771.19117827876
0.136360906052151,1771.20117827876
0.133706918029062,1771.21117827876
0.130951060298973,1771.22117827876
0.128594045038347,1771.23117827876
0.125984901236156,1771.24117827876
0.123517583192451,1771.25117827876
0.120761488979555,1771.26117827876
0.118578279962039,1771.27117827876
0.116317059861904,1771.28117827876
0.113663983991223,1771.29117827876
0.11089962624865,1771.30117827876
0.107671255445714,1771.31117827876
0.104147015097446,1771.32117827876
0.100366448708285,1771.33117827876
0.096505964410504,1771.34117827876
0.0923756528876354,1771.35117827876
0.0883094637235209,1771.36117827876
0.0845215314996284,1771.37117827876
0.0809109370089171,1771.38117827876
0.0770682099863379,1771.39117827876
0.0734948286698025,1771.40117827876
0.0699489060382412,1771.41117827876
0.0667369624342295,1771.42117827876
0.0640914989367576,1771.43117827876
0.061403994549627,1771.44117827876
0.0588339767931399,1771.45117827876
0.0563122334373289,1771.46117827876
0.0532664770683982,1771.47117827876
0.0501328823363786,1771.48117827876
0.0471693664982876,1771.49117827876
0.0442858873673496,1771.50117827876
0.042124287112247,1771.51117827876
0.0412072073850718,1771.52117827876
0.0423249886503184,1771.53117827876
0.0459404545286581,1771.54117827876
0.0536539002114788,1771.55117827876
0.0655566405848591,1771.56117827876
0.0813933533182666,1771.57117827876
0.0996715900436852,1771.58117827876
0.119361313060751,1771.59117827876
0.139320247561572,1771.60117827876
0.15825917018355,1771.61117827876
0.174560511132519,1771.62117827876
0.188681395582423,1771.63117827876
0.200229858900216,1771.64117827876
0.209408461899766,1771.65117827876
0.216161135795516,1771.66117827876
0.221268574554174,1771.67117827876
0.224691354555828,1771.68117827876
0.226599714932789,1771.69117827876
0.227401132580639,1771.70117827876
0.227806783026499,1771.71117827876
0.227772633034611,1771.72117827876
0.228134185657047,1771.73117827876
0.228947701889103,1771.74117827876
0.230557392932326,1771.75117827876
0.232756646576203,1771.76117827876
0.235503123379316,1771.77117827876
0.238345071626878,1771.78117827876
0.241202283589349,1771.79117827876
0.24375824640956,1771.80117827876
0.246154126021845,1771.81117827876
0.247754858586439,1771.82117827876
0.248450129585309,1771.83117827876
0.248372758541964,1771.84117827876
0.247618530175725,1771.85117827876
0.246236727118235,1771.86117827876
0.244432776878523,1771.87117827876
0.242445890972319,1771.88117827876
0.240107236995495,1771.89117827876
0.238309739479754,1771.90117827876
0.236777127645935,1771.91117827876
0.236363791051109,1771.92117827876
0.236211920762333,1771.93117827876
0.236312273087734,1771.94117827876
0.236818255631759,1771.95117827876
0.238166546818547,1771.96117827876
0.239850987002938,1771.97117827876
0.241432659734349,1771.98117827876
0.243132736217779,1771.99117827876
0.24443561731804,1772.00117827876
0.245239527091869,1772.01117827876
0.245721130685312,1772.02117827876
0.245517598217346,1772.03117827876
0.24518545584218,1772.04117827876
0.243828913819804,1772.05117827876
0.241384922191325,1772.06117827876
0.23851050915845,1772.07117827876
0.234697504190721,1772.08117827876
0.230564000797247,1772.09117827876
0.226731936277081,1772.10117827876
0.222866115754866,1772.11117827876
0.219922810833846,1772.12117827876
0.217074425227365,1772.13117827876
0.214607467582594,1772.14117827876
0.211763248267218,1772.15117827876
0.208673359614862,1772.16117827876
0.205419126444001,1772.17117827876
0.202356484222987,1772.18117827876
0.198987836955029,1772.19117827876
0.196000317125972,1772.20117827876
0.192925118680166,1772.21117827876
0.18982756401135,1772.22117827876
0.187596960229414,1772.23117827876
0.184829739306387,1772.24117827876
0.181867692985979,1772.25117827876
0.178630364957596,1772.26117827876
0.175294461647093,1772.27117827876
0.171638037859343,1772.28117827876
0.168381204145793,1772.29117827876
0.165146839182009,1772.30117827876
0.162572199095032,1772.31117827876
0.160261304253211,1772.32117827876
0.158588112264946,1772.33117827876
0.156872185373776,1772.34117827876
0.154812348679489,1772.35117827876
0.153084915229697,1772.36117827876
0.150814663565881,1772.37117827876
0.148141702856051,1772.38117827876
0.144798342619291,1772.39117827876
0.141580943774707,1772.40117827876
0.13826146563115,1772.41117827876
0.134816873758586,1772.42117827876
0.131310699535258,1772.43117827876
0.128299036085744,1772.44117827876
0.125091111004231,1772.45117827876
0.121640725214481,1772.46117827876
0.118298155433364,1772.47117827876
0.115071967052714,1772.48117827876
0.111765446777945,1772.49117827876
0.109272024335016,1772.50117827876
0.106315117994969,1772.51117827876
0.103105526821544,1772.52117827876
0.0999343918070661,1772.53117827876
0.0967682028471858,1772.54117827876
0.0935172156429962,1772.55117827876
0.0902231664566076,1772.56117827876
0.0869568241298502,1772.57117827876
0.0837939015492424,1772.58117827876
0.081231019360394,1772.59117827876
0.0783179485843918,1772.60117827876
0.0747558192390725,1772.61117827876
0.0709364541082606,1772.62117827876
0.066734112119543,1772.63117827876
0.0628404191645332,1772.64117827876
0.059846529479502,1772.65117827876
0.0588386594320534,1772.66117827876
0.0603387252666139,1772.67117827876
0.0660061185858964,1772.68117827876
0.0757325081474496,1772.69117827876
0.0889598982885637,1772.70117827876
0.105605148213186,1772.71117827876
0.124206299173826,1772.72117827876
0.143300376914039,1772.73117827876
0.161885187461644,1772.74117827876
0.179142450304709,1772.75117827876
0.194331118856974,1772.76117827876
0.206925146777152,1772.77117827876
0.217024819544792,1772.78117827876
0.22404350069812,1772.79117827876
0.22896140974603,1772.80117827876
0.23196333331495,1772.81117827876
0.234042259135017,1772.82117827876
0.235506594303907,1772.83117827876
0.236411919549241,1772.84117827876
0.23688263211874,1772.85117827876
0.237251675357923,1772.86117827876
0.237578267432812,1772.87117827876
0.238091789317986,1772.88117827876
0.238934495077242,1772.89117827876
0.239991562455303,1772.90117827876
0.241751922230922,1772.91117827876
0.243389090605966,1772.92117827876
0.245252363397355,1772.93117827876
0.246902091463656,1772.94117827876
0.247616838563297,1772.95117827876
0.247694398362483,1772.96117827876
0.246715140256998,1772.97117827876
0.244815564530198,1772.98117827876
0.2425275569908,1772.99117827876
0.239803008307212,1773.00117827876
0.237143335866047,1773.01117827876
0.235273673676652,1773.02117827876
0.234388846728665,1773.03117827876
0.23424447273598,1773.04117827876
0.234792028801878,1773.05117827876
0.235771420530626,1773.06117827876
0.237116451402702,1773.07117827876
0.23861564882343,1773.08117827876
0.240177702687085,1773.09117827876
0.241738620795703,1773.10117827876
0.243138381875808,1773.11117827876
0.244321449700462,1773.12117827876
0.244747047105752,1773.13117827876
0.244775273310288,1773.14117827876
0.244230571881927,1773.15117827876
0.243191703913024,1773.16117827876
0.240920766754084,1773.17117827876
0.238289919431486,1773.18117827876
0.235683018670688,1773.19117827876
0.233057421847547,1773.20117827876
0.230401586567389,1773.21117827876
0.227548083895115,1773.22117827876
0.224516449962693,1773.23117827876
0.22138587852798,1773.24117827876
0.217954008526292,1773.25117827876
0.214139945020596,1773.26117827876
0.210272358528365,1773.27117827876
0.206389002968983,1773.28117827876
0.202621989081136,1773.29117827876
0.198864129743783,1773.30117827876
0.195294320520321,1773.31117827876
0.191792073443062,1773.32117827876
0.18837551356013,1773.33117827876
0.185394548852078,1773.34117827876
0.182383794462507,1773.35117827876
0.179665592407257,1773.36117827876
0.176859382559509,1773.37117827876
0.173645835339663,1773.38117827876
0.170395423187089,1773.39117827876
0.166844259561918,1773.40117827876
0.164097383237068,1773.41117827876
0.161726216094355,1773.42117827876
0.1589885025091,1773.43117827876
0.156614736877162,1773.44117827876
0.153769869871879,1773.45117827876
0.151164891810067,1773.46117827876
0.148991483102982,1773.47117827876
0.147106112152995,1773.48117827876
0.145091467955387,1773.49117827876
0.143304255770662,1773.50117827876
0.141120187864528,1773.51117827876
0.138821267748811,1773.52117827876
0.136811948156646,1773.53117827876
0.134558873053501,1773.54117827876
0.131490524181975,1773.55117827876
0.128162103086973,1773.56117827876
0.124595539864854,1773.57117827876
0.120481581993027,1773.58117827876
0.116917363055284,1773.59117827876
0.11337744252259,1773.60117827876
0.11047411299335,1773.61117827876
0.107998218024373,1773.62117827876
0.10517763493461,1773.63117827876
0.102075637030344,1773.64117827876
0.098358052007183,1773.65117827876
0.0946089075015088,1773.66117827876
0.0909949956569835,1773.67117827876
0.0879659123473863,1773.68117827876
0.0853886920466163,1773.69117827876
0.0828943959975852,1773.70117827876
0.0807570242064325,1773.71117827876
0.078161148297429,1773.72117827876
0.0747808586715351,1773.73117827876
0.0720229843513006,1773.74117827876
0.0685042339683297,1773.75117827876
0.0651467034593706,1773.76117827876
0.0628491570291775,1773.77117827876
0.0612386742602015,1773.78117827876
0.0625427567282308,1773.79117827876
0.066615765247693,1773.80117827876
0.0754725480568433,1773.81117827876
0.0879264272541355,1773.82117827876
0.104062558475715,1773.83117827876
0.122430997662518,1773.84117827876
0.142401410877227,1773.85117827876
0.162578595608044,1773.86117827876
0.181614125601648,1773.87117827876
0.198895852741648,1773.88117827876
0.214067723546079,1773.89117827876
0.226181434119931,1773.90117827876
0.236177364652533,1773.91117827876
0.243536756672915,1773.92117827876
0.249035352881218,1773.93117827876
0.252975930468191,1773.94117827876
0.256092137281054,1773.95117827876
0.258740180593402,1773.96117827876
0.260917399865649,1773.97117827876
0.262123442468706,1773.98117827876
0.263449929482664,1773.99117827876
0.26577872761832,1774.00117827876
0.268401191414053,1774.01117827876
0.271151303146917,1774.02117827876
0.274708842120824,1774.03117827876
0.278080255877269,1774.04117827876
0.281570630483123,1774.05117827876
0.284557791020264,1774.06117827876
0.286665016040178,1774.07117827876
0.288510110666921,1774.08117827876
0.289296111069718,1774.09117827876
0.288955208196099,1774.10117827876
0.287847487117884,1774.11117827876
0.286145818988634,1774.12117827876
0.284271265826339,1774.13117827876
0.282588829003378,1774.14117827876
0.280956825368296,1774.15117827876
0.27957663387905,1774.16117827876
0.278441351177321,1774.17117827876
0.277384731244943,1774.18117827876
0.276793515498275,1774.19117827876
0.276455575250586,1774.20117827876
0.276128814398121,1774.21117827876
0.276733387479573,1774.22117827876
0.277467101553573,1774.23117827876
0.278460032820701,1774.24117827876
0.279584070145489,1774.25117827876
0.280323076546363,1774.26117827876
0.280590094233282,1774.27117827876
0.280139900199837,1774.28117827876
0.279402746413865,1774.29117827876
0.278260526696286,1774.30117827876
0.276592508240145,1774.31117827876
0.274521440130624,1774.32117827876
0.271548806082695,1774.33117827876
0.268732440525776,1774.34117827876
0.26596917039355,1774.35117827876
0.263229681014253,1774.36117827876
0.260808920551014,1774.37117827876
0.25814607876858,1774.38117827876
0.255738081833022,1774.39117827876
0.252562571953242,1774.40117827876
0.249139607335871,1774.41117827876
0.245211515042249,1774.42117827876
0.240912572012445,1774.43117827876
0.23691145033952,1774.44117827876
0.23326842072637,1774.45117827876
0.2302140594586,1774.46117827876
0.227455712571735,1774.47117827876
0.224159123264606,1774.48117827876
0.220368698635987,1774.49117827876
0.21664385898376,1774.50117827876
0.21280745788728,1774.51117827876
0.209163925490894,1774.52117827876
0.205978010671395,1774.53117827876
0.202846234817698,1774.54117827876
0.199890428080841,1774.55117827876
0.196934684491334,1774.56117827876
0.193851649764286,1774.57117827876
0.190529074844604,1774.58117827876
0.187714334017513,1774.59117827876
0.184885875432593,1774.60117827876
0.182000486802348,1774.61117827876
0.179507838233481,1774.62117827876
0.176976421183779,1774.63117827876
0.174280509286393,1774.64117827876
0.171199980340606,1774.65117827876
0.167956262510597,1774.66117827876
0.164579908848479,1774.67117827876
0.160661755013648,1774.68117827876
0.156414855631276,1774.69117827876
0.152399991153618,1774.70117827876
0.148564362097546,1774.71117827876
0.145270390440078,1774.72117827876
0.142147015838587,1774.73117827876
0.139056882385634,1774.74117827876
0.135912230506626,1774.75117827876
0.132459847144279,1774.76117827876
0.129263244983314,1774.77117827876
0.125609069347986,1774.78117827876
0.121986778230752,1774.79117827876
0.118015952505733,1774.80117827876
0.113671647394725,1774.81117827876
0.109524287890337,1774.82117827876
0.105117992660133,1774.83117827876
0.101096848713927,1774.84117827876
0.0968455475422418,1774.85117827876
0.0928597092497276,1774.86117827876
0.0888415161492969,1774.87117827876
0.0854233378900189,1774.88117827876
0.0823126696574334,1774.89117827876
0.0795574010167947,1774.90117827876
0.0765282494929401,1774.91117827876
0.0733165489221664,1774.92117827876
0.0701348250583684,1774.93117827876
0.0661327344589107,1774.94117827876
0.0620666391597287,1774.95117827876
0.058190415100517,1774.96117827876
0.0543622416630507,1774.97117827876
0.0513926732411793,1774.98117827876
0.0483342049251159,1774.99117827876
0.0456987255498785,1775.00117827876
0.0443139905968906,1775.01117827876
0.0451934890925217,1775.02117827876
0.0497564954443521,1775.03117827876
0.0585601095125978,1775.04117827876
0.0724897483521194,1775.05117827876
0.0900056029987486,1775.06117827876
0.110008506542377,1775.07117827876
0.131334587283198,1775.08117827876
0.152092123553732,1775.09117827876
0.172199503178679,1775.10117827876
0.190369685767755,1775.11117827876
0.206352155589848,1775.12117827876
0.219971247930245,1775.13117827876
0.230477090052911,1775.14117827876
0.238426341336157,1775.15117827876
0.243876361482058,1775.16117827876
0.247186681660839,1775.17117827876
0.249666191942235,1775.18117827876
0.2512317062546,1775.19117827876
0.252380233147252,1775.20117827876
0.253578207328901,1775.21117827876
0.255108307159855,1775.22117827876
0.257123627731044,1775.23117827876
0.259563462479852,1775.24117827876
0.262715145668223,1775.25117827876
0.265880901421266,1775.26117827876
0.269057978314545,1775.27117827876
0.272422155761729,1775.28117827876
0.275714657707527,1775.29117827876
0.278501505324888,1775.30117827876
0.280314302101452,1775.31117827876
0.281012187438747,1775.32117827876
0.280707527371701,1775.33117827876
0.279520349268895,1775.34117827876
0.277247197095241,1775.35117827876
0.275092807481383,1775.36117827876
0.272991084586958,1775.37117827876
0.271161071521228,1775.38117827876
0.269404982173958,1775.39117827876
0.267875290509599,1775.40117827876
0.266891953546043,1775.41117827876
0.266283839202961,1775.42117827876
0.266016230058344,1775.43117827876
0.265875353066284,1775.44117827876
0.26656050368714,1775.45117827876
0.267581365573086,1775.46117827876
0.268463542329737,1775.47117827876
0.269365144309054,1775.48117827876
0.269848966518569,1775.49117827876
0.270744367158868,1775.50117827876
0.271463338472161,1775.51117827876
0.271912172426634,1775.52117827876
0.272223929873635,1775.53117827876
0.2715192128554,1775.54117827876
0.270411212848983,1775.55117827876
0.268119508675873,1775.56117827876
0.265490554577997,1775.57117827876
0.262668706591281,1775.58117827876
0.259187365609058,1775.59117827876
0.255874447100708,1775.60117827876
0.251794131560833,1775.61117827876
0.247696336459297,1775.62117827876
0.243732507168059,1775.63117827876
0.240642447840954,1775.64117827876
0.237151498952573,1775.65117827876
0.233642465996785,1775.66117827876
0.230063033044261,1775.67117827876
0.226452643441586,1775.68117827876
0.222729172338303,1775.69117827876
0.219642639849992,1775.70117827876
0.216516644079771,1775.71117827876
0.213229631647469,1775.72117827876
0.209915379698986,1775.73117827876
0.206574719098293,1775.74117827876
0.203691985816977,1775.75117827876
0.200509947328448,1775.76117827876
0.197396785696202,1775.77117827876
0.194804093460714,1775.78117827876
0.191373396053438,1775.79117827876
0.188019540625454,1775.80117827876
0.184561641813689,1775.81117827876
0.180549958675504,1775.82117827876
0.17714173976319,1775.83117827876
0.173102224113355,1775.84117827876
0.168987092358796,1775.85117827876
0.16513022048583,1775.86117827876
0.161557816825693,1775.87117827876
0.158353213777392,1775.88117827876
0.154805408647921,1775.89117827876
0.151523541460087,1775.90117827876
0.148813156263281,1775.91117827876
0.145852205861099,1775.92117827876
0.143167663365598,1775.93117827876
0.140364210616103,1775.94117827876
0.138293860592184,1775.95117827876
0.135820407941863,1775.96117827876
0.132908978936363,1775.97117827876
0.130079283998688,1775.98117827876
0.126519205272054,1775.99117827876
0.122761070700333,1776.00117827876
0.119002994184835,1776.01117827876
0.115359624114774,1776.02117827876
0.112089886881934,1776.03117827876
0.108199883955977,1776.04117827876
0.10403259952768,1776.05117827876
0.0996657820163238,1776.06117827876
0.0954890482386441,1776.07117827876
0.0917671218961074,1776.08117827876
0.0884776718239944,1776.09117827876
0.0854978721839981,1776.10117827876
0.0823164556737334,1776.11117827876
0.0791548507236,1776.12117827876
0.0757458353813125,1776.13117827876
0.0728062997070098,1776.14117827876
0.0694525230001508,1776.15117827876
0.0661354174453823,1776.16117827876
0.0627061134884066,1776.17117827876
0.0589277586614903,1776.18117827876
0.0553163111642446,1776.19117827876
0.0522032413685913,1776.20117827876
0.0491187427439134,1776.21117827876
0.0473992702432986,1776.22117827876
0.0474648397071121,1776.23117827876
0.0504568609699289,1776.24117827876
0.0571689108120136,1776.25117827876
0.0675971885650313,1776.26117827876
0.082274901606867,1776.27117827876
0.0999949868182653,1776.28117827876
0.120282432405536,1776.29117827876
0.141538507154992,1776.30117827876
0.162448194751618,1776.31117827876
0.18153492984696,1776.32117827876
0.197895177844603,1776.33117827876
0.211061657013147,1776.34117827876
0.221381304069796,1776.35117827876
0.229099768448428,1776.36117827876
0.234824205738991,1776.37117827876
0.238818197484113,1776.38117827876
0.240895416429542,1776.39117827876
0.241801835817131,1776.40117827876
0.241699997473006,1776.41117827876
0.241565654862984,1776.42117827876
0.241643708081729,1776.43117827876
0.241776780600541,1776.44117827876
0.24241502216649,1776.45117827876
0.243320430456543,1776.46117827876
0.244540520268457,1776.47117827876
0.245840339278958,1776.48117827876
0.246913354209991,1776.49117827876
0.247773880624812,1776.50117827876
0.248668575701516,1776.51117827876
0.249343674522203,1776.52117827876
0.249346076543351,1776.53117827876
0.248672097849864,1776.54117827876
0.247559086943561,1776.55117827876
0.245385835906619,1776.56117827876
0.243133269860931,1776.57117827876
0.24088237085716,1776.58117827876
0.238854414137649,1776.59117827876
0.237016090552717,1776.60117827876
0.235864424780455,1776.61117827876
0.235494815754339,1776.62117827876
0.23606543675877,1776.63117827876
0.237058290933837,1776.64117827876
0.23811662390941,1776.65117827876
0.239548486690357,1776.66117827876
0.240637419328959,1776.67117827876
0.241559006412899,1776.68117827876
0.242832283881612,1776.69117827876
0.243603215564009,1776.70117827876
0.243927893790836,1776.71117827876
0.243944638488518,1776.72117827876
0.243128198789704,1776.73117827876
0.242100996467269,1776.74117827876
0.239947341545174,1776.75117827876
0.237890645534798,1776.76117827876
0.235309534983036,1776.77117827876
0.232134944043021,1776.78117827876
0.228404878733105,1776.79117827876
0.224662196252179,1776.80117827876
0.220799382460764,1776.81117827876
0.217198614973501,1776.82117827876
0.214036078987266,1776.83117827876
0.211104026530094,1776.84117827876
0.208819193893534,1776.85117827876
0.206210029321332,1776.86117827876
0.202941373178554,1776.87117827876
0.200230345705803,1776.88117827876
0.196496255516872,1776.89117827876
0.193070863582674,1776.90117827876
0.189603711311773,1776.91117827876
0.186498091294066,1776.92117827876
0.18339368038912,1776.93117827876
0.180248627690045,1776.94117827876
0.176713516791786,1776.95117827876
0.173064041510903,1776.96117827876
0.170098750873178,1776.97117827876
0.167435330975405,1776.98117827876
0.164954850012539,1776.99117827876
0.162671533807985,1777.00117827876
0.160218671422706,1777.01117827876
0.157301714576979,1777.02117827876
0.154086792803147,1777.03117827876
0.150806182516301,1777.04117827876
0.147399626336267,1777.05117827876
0.144201527068253,1777.06117827876
0.141493025239687,1777.07117827876
0.138746741017944,1777.08117827876
0.135830941372331,1777.09117827876
0.133061499753934,1777.10117827876
0.12978847573713,1777.11117827876
0.126514469453937,1777.12117827876
0.122916774207282,1777.13117827876
0.119718483963633,1777.14117827876
0.116165905040112,1777.15117827876
0.112596285950597,1777.16117827876
0.109413135625502,1777.17117827876
0.10592106847287,1777.18117827876
0.102354273016791,1777.19117827876
0.0990667354277256,1777.20117827876
0.096120735859968,1777.21117827876
0.0926485028289272,1777.22117827876
0.0890263001823159,1777.23117827876
0.0851615923149807,1777.24117827876
0.0812787559547753,1777.25117827876
0.0773149212687552,1777.26117827876
0.0734331081737665,1777.27117827876
0.0696861811230221,1777.28117827876
0.066068821873009,1777.29117827876
0.06228324015269,1777.30117827876
0.0586056199294888,1777.31117827876
0.0550069701827311,1777.32117827876
0.0515806503778705,1777.33117827876
0.047489262235708,1777.34117827876
0.0435958153044041,1777.35117827876
0.0394119417758182,1777.36117827876
0.0350335470931382,1777.37117827876
0.0314464285902117,1777.38117827876
0.0283605654644854,1777.39117827876
0.0266342208958936,1777.40117827876
0.026183785798842,1777.41117827876
0.0289205387495429,1777.42117827876
0.0355935921582343,1777.43117827876
0.0471034823450325,1777.44117827876
0.0628672140793831,1777.45117827876
0.0824972618450886,1777.46117827876
0.104149212183626,1777.47117827876
0.126519274373771,1777.48117827876
0.148646026375383,1777.49117827876
0.169314006960082,1777.50117827876
0.187038283440661,1777.51117827876
0.202573297426638,1777.52117827876
0.214835103074877,1777.53117827876
0.224581189697411,1777.54117827876
0.232285365887635,1777.55117827876
0.237959607410339,1777.56117827876
0.242073139341631,1777.57117827876
0.245410138094831,1777.58117827876
0.247909622799981,1777.59117827876
0.250364466023819,1777.60117827876
0.252761235912804,1777.61117827876
0.255875417994976,1777.62117827876
0.258945016348872,1777.63117827876
0.262207575191934,1777.64117827876
0.265991725278845,1777.65117827876
0.26940976330448,1777.66117827876
0.273016405427973,1777.67117827876
0.276511563835268,1777.68117827876
0.279791806424864,1777.69117827876
0.282057690194061,1777.70117827876
0.283638825110904,1777.71117827876
0.284282890974106,1777.72117827876
0.283580252313253,1777.73117827876
0.282143803738761,1777.74117827876
0.27961889309362,1777.75117827876
0.276831767252317,1777.76117827876
0.273719367705121,1777.77117827876
0.271065022210507,1777.78117827876
0.268786298726378,1777.79117827876
0.267283283601258,1777.80117827876
0.266529943666287,1777.81117827876
0.266724734231248,1777.82117827876
0.266892691674107,1777.83117827876
0.26733399949912,1777.84117827876
0.267422320279327,1777.85117827876
0.267694900716562,1777.86117827876
0.267584131970279,1777.87117827876
0.267781425330077,1777.88117827876
0.267578810863487,1777.89117827876
0.267603934161941,1777.90117827876
0.267293209448028,1777.91117827876
0.266785345308154,1777.92117827876
0.265178112206177,1777.93117827876
0.263112083798327,1777.94117827876
0.260210928020574,1777.95117827876
0.256947473613907,1777.96117827876
0.252940611955357,1777.97117827876
0.248711271995518,1777.98117827876
0.244207916353221,1777.99117827876
0.240717126405036,1778.00117827876
0.238011838905768,1778.01117827876
0.236719975509599,1778.02117827876
0.236495945598656,1778.03117827876
0.238220828826087,1778.04117827876
0.241924315614307,1778.05117827876
0.249107891864208,1778.06117827876
0.260074691206057,1778.07117827876
0.273574972137995,1778.08117827876
0.289061547703377,1778.09117827876
0.305827409435648,1778.10117827876
0.324673008533884,1778.11117827876
0.345504082992127,1778.12117827876
0.367145968674408,1778.13117827876
0.387133434114686,1778.14117827876
0.404521668504861,1778.15117827876
0.41863326496736,1778.16117827876
0.429529136192461,1778.17117827876
0.438306746088592,1778.18117827876
0.444893295733097,1778.19117827876
0.449866423013919,1778.20117827876
0.453291525196458,1778.21117827876
0.455376247523926,1778.22117827876
0.455519422245232,1778.23117827876
0.45375090679604,1778.24117827876
0.450150840135482,1778.25117827876
0.443972779624218,1778.26117827876
0.435611682012504,1778.27117827876
0.425357529631064,1778.28117827876
0.413419463756759,1778.29117827876
0.400199836932979,1778.30117827876
0.385243355505845,1778.31117827876
0.370218831358235,1778.32117827876
0.354062104387004,1778.33117827876
0.33772894860735,1778.34117827876
0.322193180080873,1778.35117827876
0.306900373292888,1778.36117827876
0.292370100861397,1778.37117827876
0.278390589685034,1778.38117827876
0.265114917673956,1778.39117827876
0.252760690480245,1778.40117827876
0.240975017172106,1778.41117827876
0.230039892587049,1778.42117827876
0.21961016897186,1778.43117827876
0.209695036033728,1778.44117827876
0.200262147734591,1778.45117827876
0.191443688089378,1778.46117827876
0.183744585950389,1778.47117827876
0.176216835488473,1778.48117827876
0.169321511501916,1778.49117827876
0.162289851227304,1778.50117827876
0.154991519560337,1778.51117827876
0.148166991282124,1778.52117827876
0.141522494883347,1778.53117827876
0.134633466999688,1778.54117827876
0.127965968489033,1778.55117827876
0.120817044832362,1778.56117827876
0.114032922463301,1778.57117827876
0.109075300169162,1778.58117827876
0.106281522798713,1778.59117827876
0.106695521485938,1778.60117827876
0.111102292780536,1778.61117827876
0.120274108722257,1778.62117827876
0.133895451001516,1778.63117827876
0.151228520453945,1778.64117827876
0.170402804521262,1778.65117827876
0.190048203272339,1778.66117827876
0.209007186869579,1778.67117827876
0.226446648358495,1778.68117827876
0.241493791210651,1778.69117827876
0.254000412848306,1778.70117827876
0.26405174769895,1778.71117827876
0.271777274797724,1778.72117827876
0.277221954406935,1778.73117827876
0.279964842388669,1778.74117827876
0.28097901999032,1778.75117827876
0.279554269308188,1778.76117827876
0.277672425164097,1778.77117827876
0.275444917796171,1778.78117827876
0.273653136973868,1778.79117827876
0.272334430963312,1778.80117827876
0.271294894151215,1778.81117827876
0.271082316608815,1778.82117827876
0.271090808927409,1778.83117827876
0.271963380266333,1778.84117827876
0.27309027587976,1778.85117827876
0.274391413337258,1778.86117827876
0.274810849290268,1778.87117827876
0.274802021534306,1778.88117827876
0.274251168642,1778.89117827876
0.272777793943523,1778.90117827876
0.270725539608343,1778.91117827876
0.267496187394222,1778.92117827876
0.26353918093837,1778.93117827876
0.259667971404281,1778.94117827876
0.256181506184841,1778.95117827876
0.252875869297517,1778.96117827876
0.250122212915843,1778.97117827876
0.247907108579668,1778.98117827876
0.246307158044757,1778.99117827876
0.245021311308076,1779.00117827876
0.244817865469825,1779.01117827876
0.244976116790988,1779.02117827876
0.245084632155267,1779.03117827876
0.245417675436143,1779.04117827876
0.245639271127697,1779.05117827876
0.245342190920604,1779.06117827876
0.244928746047226,1779.07117827876
0.243768851621428,1779.08117827876
0.242462653896257,1779.09117827876
0.241174580100031,1779.10117827876
0.239532514017515,1779.11117827876
0.23764765019234,1779.12117827876
0.235152640845895,1779.13117827876
0.232028756416974,1779.14117827876
0.228787945808669,1779.15117827876
0.224857307583921,1779.16117827876
0.220681889820924,1779.17117827876
0.21596842818085,1779.18117827876
0.211337510914167,1779.19117827876
0.207103509460328,1779.20117827876
0.203197642124819,1779.21117827876
0.199529313704058,1779.22117827876
0.196085410681879,1779.23117827876
0.192581297035772,1779.24117827876
0.188780989246674,1779.25117827876
0.184727216499623,1779.26117827876
0.180502942230776,1779.27117827876
0.176313907603744,1779.28117827876
0.172271082243272,1779.29117827876
0.168718574503164,1779.30117827876
0.165148197309785,1779.31117827876
0.162182267101165,1779.32117827876
0.159376611297674,1779.33117827876
0.156892096074244,1779.34117827876
0.154150708031222,1779.35117827876
0.150818113786384,1779.36117827876
0.147340211291736,1779.37117827876
0.143350239777653,1779.38117827876
0.139714548206277,1779.39117827876
0.136039160642436,1779.40117827876
0.132684497601552,1779.41117827876
0.12945207173124,1779.42117827876
0.125965470962425,1779.43117827876
0.122463642847263,1779.44117827876
0.119009099092506,1779.45117827876
0.115468832081816,1779.46117827876
0.112009622324067,1779.47117827876
0.108830348155923,1779.48117827876
0.105252180257282,1779.49117827876
0.101831503137211,1779.50117827876
0.0988196405762992,1779.51117827876
0.095450092331775,1779.52117827876
0.092354161096544,1779.53117827876
0.0887262289834584,1779.54117827876
0.0855678653682355,1779.55117827876
0.0821853185008952,1779.56117827876
0.0782336346476917,1779.57117827876
0.0742342511349742,1779.58117827876
0.0697186316179898,1779.59117827876
0.0653695006788804,1779.60117827876
0.0613578294610413,1779.61117827876
0.0572740525717007,1779.62117827876
0.0537612512187837,1779.63117827876
0.050072830655623,1779.64117827876
0.0468149318709305,1779.65117827876
0.0429006957696581,1779.66117827876
0.0390590949642445,1779.67117827876
0.0354571958420038,1779.68117827876
0.0315614453605357,1779.69117827876
0.0274260351816455,1779.70117827876
0.0239299171758761,1779.71117827876
0.0209326674286102,1779.72117827876
0.0197417127093464,1779.73117827876
0.0211060944791795,1779.74117827876
0.0257990869871691,1779.75117827876
0.0347606931668634,1779.76117827876
0.0476828032899637,1779.77117827876
0.0641246931277109,1779.78117827876
0.0833221686897287,1779.79117827876
0.104407387239837,1779.80117827876
0.125441968613517,1779.81117827876
0.145649969882033,1779.82117827876
0.163380558009373,1779.83117827876
0.178113555901064,1779.84117827876
0.189459124301832,1779.85117827876
0.198056026821684,1779.86117827876
0.203719414155702,1779.87117827876
0.207181187331363,1779.88117827876
0.208869719952722,1779.89117827876
0.209440224642848,1779.90117827876
0.209151402887852,1779.91117827876
0.208413317695484,1779.92117827876
0.207520053522957,1779.93117827876
0.206502301349004,1779.94117827876
0.205654076867475,1779.95117827876
0.205146683931923,1779.96117827876
0.204787209734216,1779.97117827876
0.204749043865003,1779.98117827876
0.204715328995621,1779.99117827876
0.205455676513503,1780.00117827876
0.205908626333769,1780.01117827876
0.205915222229135,1780.02117827876
0.20530612023212,1780.03117827876
0.203726047218894,1780.04117827876
0.201776008016282,1780.05117827876
0.199368210243612,1780.06117827876
0.197605387903548,1780.07117827876
0.195428833725769,1780.08117827876
0.19439979871972,1780.09117827876
0.193837027571008,1780.10117827876
0.193464682668142,1780.11117827876
0.193469519802668,1780.12117827876
0.193732932999194,1780.13117827876
0.19436525827663,1780.14117827876
0.195914196700852,1780.15117827876
0.197760187481151,1780.16117827876
0.199346490996747,1780.17117827876
0.20067131869557,1780.18117827876
0.201623447011549,1780.19117827876
0.202106610168053,1780.20117827876
0.202629237937146,1780.21117827876
0.202543595113803,1780.22117827876
0.202066535864689,1780.23117827876
0.201262049906244,1780.24117827876
0.199173581758927,1780.25117827876
0.196593023084238,1780.26117827876
0.193298079696868,1780.27117827876
0.189537842370431,1780.28117827876
0.185935461292072,1780.29117827876
0.182378750347465,1780.30117827876
0.178395613380798,1780.31117827876
0.174420539925269,1780.32117827876
0.170678442330275,1780.33117827876
0.167079060938314,1780.34117827876
0.163713870611684,1780.35117827876
0.160731587555145,1780.36117827876
0.157339646926968,1780.37117827876
0.153752294169593,1780.38117827876
0.150196678069755,1780.39117827876
0.146161451833631,1780.40117827876
0.142531563097364,1780.41117827876
0.139191063271339,1780.42117827876
0.136083605447923,1780.43117827876
0.133372211938216,1780.44117827876
0.130388416262937,1780.45117827876
0.127328166834396,1780.46117827876
0.124223539137432,1780.47117827876
0.12126171841885,1780.48117827876
0.118573966186334,1780.49117827876
0.115840346191916,1780.50117827876
0.113245958038912,1780.51117827876
0.110816104913793,1780.52117827876
0.10867554385389,1780.53117827876
0.106791812564911,1780.54117827876
0.104113592567181,1780.55117827876
0.10141274562763,1780.56117827876
0.0979281303817499,1780.57117827876
0.0940978106904617,1780.58117827876
0.0906292871951272,1780.59117827876
0.0875392947593116,1780.60117827876
0.0850987905977129,1780.61117827876
0.0831414236980374,1780.62117827876
0.0812048627363213,1780.63117827876
0.0792523386617086,1780.64117827876
0.0765173240446777,1780.65117827876
0.0728100240982482,1780.66117827876
0.0695384720823803,1780.67117827876
0.0658363675717415,1780.68117827876
0.0616938264658693,1780.69117827876
0.0580633132350017,1780.70117827876
0.0546393610905207,1780.71117827876
0.0509981157729924,1780.72117827876
0.0473647908807612,1780.73117827876
0.0432140209204549,1780.74117827876
0.0388980058891373,1780.75117827876
0.035048109843406,1780.76117827876
0.0327494570958849,1780.77117827876
0.0329070725551001,1780.78117827876
0.0366893956826538,1780.79117827876
0.0453316406245912,1780.80117827876
0.0582575273349252,1780.81117827876
0.0749277750495654,1780.82117827876
0.0947948583310782,1780.83117827876
0.115655467087963,1780.84117827876
0.136649541097385,1780.85117827876
0.157175377085,1780.86117827876
0.175745408209051,1780.87117827876
0.192083213597189,1780.88117827876
0.205722429569542,1780.89117827876
0.216502354382978,1780.90117827876
0.224668488493154,1780.91117827876
0.230341621113823,1780.92117827876
0.234170450539594,1780.93117827876
0.23625356576363,1780.94117827876
0.237245911325134,1780.95117827876
0.237871370501992,1780.96117827876
0.237738791049076,1780.97117827876
0.237647933322713,1780.98117827876
0.237765276346289,1780.99117827876
0.238551049140724,1781.00117827876
0.24009699381991,1781.01117827876
0.242115512554275,1781.02117827876
0.244841790714032,1781.03117827876
0.247891869497487,1781.04117827876
0.251395613085768,1781.05117827876
0.254752033271371,1781.06117827876
0.257183576355667,1781.07117827876
0.258895680775056,1781.08117827876
0.258968928929752,1781.09117827876
0.257911519692326,1781.10117827876
0.255596011285372,1781.11117827876
0.25264229871141,1781.12117827876
0.249782073236981,1781.13117827876
0.247013134329758,1781.14117827876
0.244960292017499,1781.15117827876
0.243510469386406,1781.16117827876
0.242239021425613,1781.17117827876
0.241441054366383,1781.18117827876
0.241075319379482,1781.19117827876
0.241114997572094,1781.20117827876
0.241959749151117,1781.21117827876
0.24235120327268,1781.22117827876
0.242822370278858,1781.23117827876
0.24293631545811,1781.24117827876
0.242498977481716,1781.25117827876
0.24198396811397,1781.26117827876
0.241015945184577,1781.27117827876
0.239787312854037,1781.28117827876
0.238437772258565,1781.29117827876
0.237297298369015,1781.30117827876
0.235179866200704,1781.31117827876
0.232138227668328,1781.32117827876
0.229036646842423,1781.33117827876
0.225260436148849,1781.34117827876
0.221774742251117,1781.35117827876
0.217302074990746,1781.36117827876
0.213384545389348,1781.37117827876
0.209438561331395,1781.38117827876
0.20544227020332,1781.39117827876
0.201634387653424,1781.40117827876
0.197442561153166,1781.41117827876
0.193853427515456,1781.42117827876
0.189846607330517,1781.43117827876
0.186315658161735,1781.44117827876
0.183010205488332,1781.45117827876
0.179992346888434,1781.46117827876
0.177243436301615,1781.47117827876
0.174442972002253,1781.48117827876
0.171595246617346,1781.49117827876
0.16802665256956,1781.50117827876
0.164564516478157,1781.51117827876
0.161230590810316,1781.52117827876
0.157862841404616,1781.53117827876
0.154534448388892,1781.54117827876
0.151228095497327,1781.55117827876
0.147508678001888,1781.56117827876
0.143833934536033,1781.57117827876
0.139690743210167,1781.58117827876
0.134927066756765,1781.59117827876
0.130489445976098,1781.60117827876
0.126831360512593,1781.61117827876
0.123678108637686,1781.62117827876
0.12089171557139,1781.63117827876
0.118863930568725,1781.64117827876
0.116376281161226,1781.65117827876
0.113457787665449,1781.66117827876
0.110000538939557,1781.67117827876
0.106464935789327,1781.68117827876
0.102737514784358,1781.69117827876
0.098793264850314,1781.70117827876
0.0949364862099644,1781.71117827876
0.0917380224605091,1781.72117827876
0.0894758142436769,1781.73117827876
0.0887960668669818,1781.74117827876
0.0909133992229521,1781.75117827876
0.096124606621746,1781.76117827876
0.105789207742327,1781.77117827876
0.119760701629151,1781.78117827876
0.136856211579209,1781.79117827876
0.156129067817595,1781.80117827876
0.176473828651549,1781.81117827876
0.196624876402172,1781.82117827876
0.215510870524178,1781.83117827876
0.232871438538088,1781.84117827876
0.247295209493049,1781.85117827876
0.258684348830505,1781.86117827876
0.267126123731372,1781.87117827876
0.273424066427911,1781.88117827876
0.277652413037861,1781.89117827876
0.280194802411755,1781.90117827876
0.281697556973885,1781.91117827876
0.283021124325114,1781.92117827876
0.284100064479281,1781.93117827876
0.285020699803199,1781.94117827876
0.286975390085676,1781.95117827876
0.289113468895967,1781.96117827876
0.292048569426623,1781.97117827876
0.295050240635072,1781.98117827876
0.297795606082505,1781.99117827876
0.300427135801099,1782.00117827876
0.303352615593008,1782.01117827876
0.306226621786019,1782.02117827876
0.308352896958296,1782.03117827876
0.309306602454699,1782.04117827876
0.308978533402324,1782.05117827876
0.307356584193344,1782.06117827876
0.304865291362421,1782.07117827876
0.301827726345305,1782.08117827876
0.298666795027149,1782.09117827876
0.295646721791285,1782.10117827876
0.29272012424408,1782.11117827876
0.290213981233911,1782.12117827876
0.288122028678463,1782.13117827876
0.286696541957741,1782.14117827876
0.285323563047106,1782.15117827876
0.284806715899191,1782.16117827876
0.285034610246043,1782.17117827876
0.285276640421141,1782.18117827876
0.285708118834033,1782.19117827876
0.285666500873924,1782.20117827876
0.285170750195969,1782.21117827876
0.283690803317254,1782.22117827876
0.281473409477867,1782.23117827876
0.279338414525013,1782.24117827876
0.276708629589465,1782.25117827876
0.274006604528956,1782.26117827876
0.270903317258223,1782.27117827876
0.26797555451015,1782.28117827876
0.264902172453885,1782.29117827876
0.261649335126397,1782.30117827876
0.257978749928388,1782.31117827876
0.253797719122765,1782.32117827876
0.249817597049772,1782.33117827876
0.245654328870092,1782.34117827876
0.241092629532141,1782.35117827876
0.237010654885905,1782.36117827876
0.232579065114554,1782.37117827876
0.228946610540008,1782.38117827876
0.225433158304002,1782.39117827876
0.221810818743013,1782.40117827876
0.219066289947651,1782.41117827876
0.215696467396942,1782.42117827876
0.212733098393269,1782.43117827876
0.209816479098284,1782.44117827876
0.207004616623704,1782.45117827876
0.204010834501406,1782.46117827876
0.200479603471912,1782.47117827876
0.197093813458114,1782.48117827876
0.193725105528449,1782.49117827876
0.190377886890948,1782.50117827876
0.187017624810243,1782.51117827876
0.183753676038005,1782.52117827876
0.180444113507402,1782.53117827876
0.176566638499562,1782.54117827876
0.172225271890733,1782.55117827876
0.168031450893916,1782.56117827876
0.163661674534472,1782.57117827876
0.159780736056882,1782.58117827876
0.15619635165669,1782.59117827876
0.152420598904367,1782.60117827876
0.148651734410318,1782.61117827876
0.143896082646559,1782.62117827876
0.139492037294186,1782.63117827876
0.135608329862004,1782.64117827876
0.133371986237123,1782.65117827876
0.133501120387903,1782.66117827876
0.136840606346171,1782.67117827876
0.144117828769144,1782.68117827876
0.155233859630572,1782.69117827876
0.170523333291637,1782.70117827876
0.18908360436033,1782.71117827876
0.209519562970491,1782.72117827876
0.230637328883007,1782.73117827876
0.251081647804926,1782.74117827876
0.269491192032766,1782.75117827876
0.285585066973858,1782.76117827876
0.298617994230213,1782.77117827876
0.308493564275909,1782.78117827876
0.315609735314243,1782.79117827876
0.320353692672969,1782.80117827876
0.323194841599952,1782.81117827876
0.324399089186081,1782.82117827876
0.325173382299529,1782.83117827876
0.324785934583407,1782.84117827876
0.324877661186494,1782.85117827876
0.325927032639676,1782.86117827876
0.327782086487955,1782.87117827876
0.330091610256561,1782.88117827876
0.332972217225272,1782.89117827876
0.336563025447754,1782.90117827876
0.340309919850613,1782.91117827876
0.343896676593056,1782.92117827876
0.34699896960424,1782.93117827876
0.349247333772676,1782.94117827876
0.350166667056971,1782.95117827876
0.35023478362212,1782.96117827876
0.348778164014494,1782.97117827876
0.346296678686066,1782.98117827876
0.343485512548016,1782.99117827876
0.339619972482709,1783.00117827876
0.335456561372283,1783.01117827876
0.331168695100394,1783.02117827876
0.326755285142027,1783.03117827876
0.322809758987695,1783.04117827876
0.319987288773174,1783.05117827876
0.318338030391177,1783.06117827876
0.317632677170946,1783.07117827876
0.317510412036683,1783.08117827876
0.31806058689872,1783.09117827876
0.318849642632876,1783.10117827876
0.318894195896313,1783.11117827876
0.318717965313783,1783.12117827876
0.318081683761946,1783.13117827876
0.316637775610295,1783.14117827876
0.315205073382649,1783.15117827876
0.313315385705967,1783.16117827876
0.310712149987288,1783.17117827876
0.308036882932178,1783.18117827876
0.304781919881193,1783.19117827876
0.30138909599315,1783.20117827876
0.297293747063269,1783.21117827876
0.292704639697561,1783.22117827876
0.288084243377648,1783.23117827876
0.283333415484796,1783.24117827876
0.278749983155084,1783.25117827876
0.274340607614131,1783.26117827876
0.270192573031957,1783.27117827876
0.266536059890995,1783.28117827876
0.262564543299088,1783.29117827876
0.258655073064934,1783.30117827876
0.254416727887897,1783.31117827876
0.250007066120445,1783.32117827876
0.245810819431459,1783.33117827876
0.241704395134731,1783.34117827876
0.23781645342311,1783.35117827876
0.23388226316203,1783.36117827876
0.229567667636199,1783.37117827876
0.224802917843841,1783.38117827876
0.220077104505719,1783.39117827876
0.21515769304631,1783.40117827876
0.210689732653032,1783.41117827876
0.206350114313715,1783.42117827876
0.202607125047151,1783.43117827876
0.199434264311606,1783.44117827876
0.196331969208086,1783.45117827876
0.193307553154046,1783.46117827876
0.189452685901465,1783.47117827876
0.185284287907159,1783.48117827876
0.180538552989881,1783.49117827876
0.175550221210656,1783.50117827876
0.171216725209533,1783.51117827876
0.167096879804637,1783.52117827876
0.164000816873877,1783.53117827876
0.162954565550773,1783.54117827876
0.164071483214924,1783.55117827876
0.168899802047738,1783.56117827876
0.177793813423574,1783.57117827876
0.190491031251882,1783.58117827876
0.206235507421932,1783.59117827876
0.224155539832977,1783.60117827876
0.243396151768189,1783.61117827876
0.261742056523631,1783.62117827876
0.278516486709444,1783.63117827876
0.293176541349051,1783.64117827876
0.304280098816278,1783.65117827876
0.312279380045625,1783.66117827876
0.318115916990764,1783.67117827876
0.321653095947337,1783.68117827876
0.323891856092224,1783.69117827876
0.324722627222831,1783.70117827876
0.325107455726821,1783.71117827876
0.324472490631875,1783.72117827876
0.324105012992181,1783.73117827876
0.323868487148959,1783.74117827876
0.323966454845515,1783.75117827876
0.324246951482372,1783.76117827876
0.324805512932119,1783.77117827876
0.326505416088531,1783.78117827876
0.327912696808501,1783.79117827876
0.329136306746053,1783.80117827876
0.329421706911022,1783.81117827876
0.328391943070307,1783.82117827876
0.326505619115426,1783.83117827876
0.32366672470811,1783.84117827876
0.319707894632431,1783.85117827876
0.314659137404162,1783.86117827876
0.309446393011991,1783.87117827876
0.30461125084088,1783.88117827876
0.3003768251706,1783.89117827876
0.29739159598863,1783.90117827876
0.295530876983114,1783.91117827876
0.295441019119348,1783.92117827876
0.295989902481765,1783.93117827876
0.297361695338558,1783.94117827876
0.299007494535537,1783.95117827876
0.299962651073664,1783.96117827876
0.300350824360361,1783.97117827876
0.300237091008835,1783.98117827876
0.29945543997285,1783.99117827876
0.298378286617968,1784.00117827876
0.296757272672854,1784.01117827876
0.294380036385998,1784.02117827876
0.291619447919619,1784.03117827876
0.288017285325363,1784.04117827876
0.284155891348605,1784.05117827876
0.280279816618427,1784.06117827876
0.275811987871282,1784.07117827876
0.271425602582746,1784.08117827876
0.266829028811344,1784.09117827876
0.261966299143458,1784.10117827876
0.256922248032534,1784.11117827876
0.251732510424455,1784.12117827876
0.247128254576448,1784.13117827876
0.242748157379647,1784.14117827876
0.238353235090197,1784.15117827876
0.233728248867442,1784.16117827876
0.22932703591647,1784.17117827876
0.225045484662384,1784.18117827876
0.220941617956606,1784.19117827876
0.216871168091617,1784.20117827876
0.212506940408619,1784.21117827876
0.208341553145786,1784.22117827876
0.204339832662582,1784.23117827876
0.200325657680009,1784.24117827876
0.19637920298334,1784.25117827876
0.192571025435328,1784.26117827876
0.189057132694015,1784.27117827876
0.185633252930949,1784.28117827876
0.182352421837186,1784.29117827876
0.17930867109893,1784.30117827876
0.17602439235265,1784.31117827876
0.172192976825719,1784.32117827876
0.168017905014947,1784.33117827876
0.163687811864116,1784.34117827876
0.159437641358994,1784.35117827876
0.1553979216573,1784.36117827876
0.151389108959115,1784.37117827876
0.147848709094475,1784.38117827876
0.144441559950761,1784.39117827876
0.140720202191488,1784.40117827876
0.136650456172598,1784.41117827876
0.132873359639005,1784.42117827876
0.129700817365387,1784.43117827876
0.128425560052553,1784.44117827876
0.129628290031109,1784.45117827876
0.135190483043545,1784.46117827876
0.145309756571164,1784.47117827876
0.160218772356982,1784.48117827876
0.178450110677028,1784.49117827876
0.199112695574342,1784.50117827876
0.219959885419011,1784.51117827876
0.240172904429089,1784.52117827876
0.257838050678724,1784.53117827876
0.272891520955027,1784.54117827876
0.284880123228634,1784.55117827876
0.293593928792955,1784.56117827876
0.299201760784212,1784.57117827876
0.302740212886597,1784.58117827876
0.305272013177656,1784.59117827876
0.306305601631749,1784.60117827876
0.306772024273185,1784.61117827876
0.30647000232742,1784.62117827876
0.306652708672089,1784.63117827876
0.307179719424625,1784.64117827876
0.308286279599737,1784.65117827876
0.309665513230373,1784.66117827876
0.311511864908551,1784.67117827876
0.313959123421494,1784.68117827876
0.31631592174508,1784.69117827876
0.318708340543849,1784.70117827876
0.320718915344942,1784.71117827876
0.321630441609909,1784.72117827876
0.321104971876595,1784.73117827876
0.319288409427515,1784.74117827876
0.316571892469723,1784.75117827876
0.313394461416591,1784.76117827876
0.310057448460417,1784.77117827876
0.306964086058212,1784.78117827876
0.304279584381635,1784.79117827876
0.301734022466288,1784.80117827876
0.29961864702554,1784.81117827876
0.297676930216792,1784.82117827876
0.296517589309919,1784.83117827876
0.296003900900704,1784.84117827876
0.295707923414106,1784.85117827876
0.296292448809299,1784.86117827876
0.297540219593055,1784.87117827876
0.298821317582868,1784.88117827876
0.300000839377745,1784.89117827876
0.299912714159183,1784.90117827876
0.299257089680266,1784.91117827876
0.297435033765479,1784.92117827876
0.29495563423857,1784.93117827876
0.291785837932916,1784.94117827876
0.288604330332144,1784.95117827876
0.285038829976437,1784.96117827876
0.281108948516769,1784.97117827876
0.276954669140979,1784.98117827876
0.272472805189714,1784.99117827876
0.268187744519259,1785.00117827876
0.264312757568912,1785.01117827876
0.260730404152484,1785.02117827876
0.257080147838006,1785.03117827876
0.252997420120536,1785.04117827876
0.248780310963585,1785.05117827876
0.244561643913724,1785.06117827876
0.239704910435803,1785.07117827876
0.235565040640973,1785.08117827876
0.231209472966982,1785.09117827876
0.227364617359641,1785.10117827876
0.223435366744416,1785.11117827876
0.219436129316463,1785.12117827876
0.214915363582337,1785.13117827876
0.210566741320853,1785.14117827876
0.206423023059982,1785.15117827876
0.202205674197379,1785.16117827876
0.19819677428219,1785.17117827876
0.194116177101152,1785.18117827876
0.189772769739536,1785.19117827876
0.185358105980149,1785.20117827876
0.180588098379158,1785.21117827876
0.176022008748857,1785.22117827876
0.171204036766159,1785.23117827876
0.166464650751271,1785.24117827876
0.162250662762568,1785.25117827876
0.158125297914749,1785.26117827876
0.153933142031599,1785.27117827876
0.149975128280023,1785.28117827876
0.146270556728872,1785.29117827876
0.142844542940275,1785.30117827876
0.13924672728935,1785.31117827876
0.135889885980998,1785.32117827876
0.132286793248533,1785.33117827876
0.127938146634196,1785.34117827876
0.123501956511242,1785.35117827876
0.118888697250619,1785.36117827876
0.114463416824393,1785.37117827876
0.109930465677862,1785.38117827876
0.105330435719494,1785.39117827876
0.100365030953123,1785.40117827876
0.0952996889166442,1785.41117827876
0.0909599129609028,1785.42117827876
0.0863025501953024,1785.43117827876
0.0819198925830594,1785.44117827876
0.0780886466252341,1785.45117827876
0.0733404981231828,1785.46117827876
0.0683663136754384,1785.47117827876
0.0629227296178315,1785.48117827876
0.0572316965314696,1785.49117827876
0.0518137231796776,1785.50117827876
0.0463522257844839,1785.51117827876
0.0412105857841826,1785.52117827876
0.0374052791447426,1785.53117827876
0.0365731415825722,1785.54117827876
0.0397083841141588,1785.55117827876
0.0476616981622786,1785.56117827876
0.060980750515043,1785.57117827876
0.07863838068694,1785.58117827876
0.0996853720590286,1785.59117827876
0.122548683471819,1785.60117827876
0.14513618232777,1785.61117827876
0.166332409939821,1785.62117827876
0.184928625544859,1785.63117827876
0.200756615790466,1785.64117827876
0.212525104605697,1785.65117827876
0.22118236640808,1785.66117827876
0.227265000670711,1785.67117827876
0.23096641688099,1785.68117827876
0.232971865443101,1785.69117827876
0.233721592145474,1785.70117827876
0.233543043769835,1785.71117827876
0.233612484425492,1785.72117827876
0.233681130682785,1785.73117827876
0.234634093814779,1785.74117827876
0.236113595979627,1785.75117827876
0.238640060118694,1785.76117827876
0.241477931353423,1785.77117827876
0.244481941329665,1785.78117827876
0.247569921701558,1785.79117827876
0.250430049230133,1785.80117827876
0.252994740927074,1785.81117827876
0.254694874573835,1785.82117827876
0.255107636992176,1785.83117827876
0.25447340022483,1785.84117827876
0.252440245171889,1785.85117827876
0.250111255665355,1785.86117827876
0.246709932362004,1785.87117827876
0.242864487030068,1785.88117827876
0.238882561065055,1785.89117827876
0.23558193595854,1785.90117827876
0.232601517241981,1785.91117827876
0.230629031857683,1785.92117827876
0.229127930673468,1785.93117827876
0.228062452281929,1785.94117827876
0.228020532753993,1785.95117827876
0.227983061630906,1785.96117827876
0.22898087169937,1785.97117827876
0.230097420928594,1785.98117827876
0.230768793965219,1785.99117827876
0.230864241100655,1786.00117827876
0.230400271872517,1786.01117827876
0.22894041579097,1786.02117827876
0.226709750588709,1786.03117827876
0.224612757809374,1786.04117827876
0.221921887764167,1786.05117827876
0.219718134021451,1786.06117827876
0.217560509541168,1786.07117827876
0.21489861011605,1786.08117827876
0.211880024836929,1786.09117827876
0.208130123055294,1786.10117827876
0.203673568120939,1786.11117827876
0.199450062685457,1786.12117827876
0.195237968814115,1786.13117827876
0.190977165033324,1786.14117827876
0.187141796581973,1786.15117827876
0.182678504162702,1786.16117827876
0.178679250633016,1786.17117827876
0.174550751990573,1786.18117827876
0.170641089148954,1786.19117827876
0.166518523442956,1786.20117827876
0.162230716408173,1786.21117827876
0.15850544527808,1786.22117827876
0.154593619240182,1786.23117827876
0.150771261906651,1786.24117827876
0.147184948831564,1786.25117827876
0.143369538068449,1786.26117827876
0.139662005380724,1786.27117827876
0.136200309405973,1786.28117827876
0.132735987694066,1786.29117827876
0.129000676671477,1786.30117827876
0.125211443840005,1786.31117827876
0.121477032181309,1786.32117827876
0.117341365258429,1786.33117827876
0.113352253256959,1786.34117827876
0.108955993414237,1786.35117827876
0.104522013516231,1786.36117827876
0.0999914573901195,1786.37117827876
0.0959918113784501,1786.38117827876
0.0920443638109514,1786.39117827876
0.0881741816221899,1786.40117827876
0.0842537127509532,1786.41117827876
0.0806617503282106,1786.42117827876
0.0767334276070157,1786.43117827876
0.0726801549544061,1786.44117827876
0.068568912258842,1786.45117827876
0.0644851553873376,1786.46117827876
0.060077547049086,1786.47117827876
0.0554463098787553,1786.48117827876
0.0510323692018929,1786.49117827876
0.0465991892941269,1786.50117827876
0.0419059017259703,1786.51117827876
0.037032104987957,1786.52117827876
0.0320663982072135,1786.53117827876
0.0267062535590333,1786.54117827876
0.021360397527059,1786.55117827876
0.0161594475593025,1786.56117827876
0.0112371726350207,1786.57117827876
0.00693772868759806,1786.58117827876
0.00331144422852647,1786.59117827876
-0.000162638844999689,1786.60117827876
-0.00403976509884099,1786.61117827876
-0.00827788262724587,1786.62117827876
-0.0127088042959322,1786.63117827876
-0.0172956158485176,1786.64117827876
-0.0215273960487332,1786.65117827876
-0.0254828961147392,1786.66117827876
-0.0295561383597746,1786.67117827876
-0.0332177242038249,1786.68117827876
-0.0368009905901044,1786.69117827876
-0.0411414352616864,1786.70117827876
-0.0454522748124303,1786.71117827876
-0.0494474818889251,1786.72117827876
-0.0535602549574235,1786.73117827876
-0.0571063437258083,1786.74117827876
-0.0598982438765658,1786.75117827876
-0.0602933674383913,1786.76117827876
-0.0576374889947526,1786.77117827876
-0.0508139316153057,1786.78117827876
-0.0390448550316498,1786.79117827876
-0.0226527013883308,1786.80117827876
-0.00257046594035474,1786.81117827876
0.019746190770494,1786.82117827876
0.0419992643347476,1786.83117827876
0.062657757549113,1786.84117827876
0.0803150134976856,1786.85117827876
0.0952689773264589,1786.86117827876
0.106697515035807,1786.87117827876
0.114799418486098,1786.88117827876
0.120279646115286,1786.89117827876
0.12342510191753,1786.90117827876
0.125193848553776,1786.91117827876
0.125680279178764,1786.92117827876
0.125725310637896,1786.93117827876
0.12491184260557,1786.94117827876
0.124076875908339,1786.95117827876
0.123097675575078,1786.96117827876
0.122227848871707,1786.97117827876
0.12245762571517,1786.98117827876
0.123508288439368,1786.99117827876
0.125307575497447,1787.00117827876
0.127161914216388,1787.01117827876
0.129059547223351,1787.02117827876
0.130365277453836,1787.03117827876
0.130717134491183,1787.04117827876
0.129900305624104,1787.05117827876
0.128144029749314,1787.06117827876
0.125451566963287,1787.07117827876
0.122296768953253,1787.08117827876
0.119033120715449,1787.09117827876
0.115583476080976,1787.10117827876
0.112716496802397,1787.11117827876
0.110595493770832,1787.12117827876
0.109197075265577,1787.13117827876
0.109387480789213,1787.14117827876
0.109830716033169,1787.15117827876
0.110654800868609,1787.16117827876
0.111899024455192,1787.17117827876
0.112859994224669,1787.18117827876
0.114244426404206,1787.19117827876
0.115870755197654,1787.20117827876
0.117205286021443,1787.21117827876
0.117412489535174,1787.22117827876
0.117286320404371,1787.23117827876
0.11588722739733,1787.24117827876
0.114195136398884,1787.25117827876
0.111433307997336,1787.26117827876
0.109026281351173,1787.27117827876
0.106322566219532,1787.28117827876
0.103030307819999,1787.29117827876
0.100042682670427,1787.30117827876
0.0965571530153701,1787.31117827876
0.0930038792190069,1787.32117827876
0.0882285174408208,1787.33117827876
0.0838363730227446,1787.34117827876
0.0800347292211141,1787.35117827876
0.0761480056868943,1787.36117827876
0.0729437459152919,1787.37117827876
0.0699283391139702,1787.38117827876
0.0670064780850022,1787.39117827876
0.0638724712200425,1787.40117827876
0.0609626234418679,1787.41117827876
0.0576928672356456,1787.42117827876
0.0546143072722129,1787.43117827876
0.0520049829582783,1787.44117827876
0.0494935783166546,1787.45117827876
0.0472281030200444,1787.46117827876
0.0446966158378745,1787.47117827876
0.0419884809947416,1787.48117827876
0.0387528167300221,1787.49117827876
0.0356998287649892,1787.50117827876
0.032875414523206,1787.51117827876
0.0301304453072686,1787.52117827876
0.0277013957817233,1787.53117827876
0.0252492667543482,1787.54117827876
0.0228454251951317,1787.55117827876
0.0204087812027434,1787.56117827876
0.0174775760984359,1787.57117827876
0.014828531968631,1787.58117827876
0.0118643100486049,1787.59117827876
0.00844457546003781,1787.60117827876
0.00540732925568902,1787.61117827876
0.00257061293138227,1787.62117827876
-0.000523659378031814,1787.63117827876
-0.0031102086844586,1787.64117827876
-0.00597363329104033,1787.65117827876
-0.00834310088563173,1787.66117827876
-0.0109090955436242,1787.67117827876
-0.0136134292286299,1787.68117827876
-0.0164590913360207,1787.69117827876
-0.0194279340412527,1787.70117827876
-0.0228896593834493,1787.71117827876
-0.0261586827894557,1787.72117827876
-0.0297525184471098,1787.73117827876
-0.0334529035847687,1787.74117827876
-0.0374331030160856,1787.75117827876
-0.0417148202192014,1787.76117827876
-0.0456769157171526,1787.77117827876
-0.0502484798060274,1787.78117827876
-0.05526981397795,1787.79117827876
-0.0602304727560012,1787.80117827876
-0.0648117165460167,1787.81117827876
-0.0689764938664283,1787.82117827876
-0.0730651198417485,1787.83117827876
-0.0767841252740754,1787.84117827876
-0.0806856081754152,1787.85117827876
-0.0845083379131457,1787.86117827876
-0.0871569906707764,1787.87117827876
-0.087950224179082,1787.88117827876
-0.0859962369218338,1787.89117827876
-0.0801522583546404,1787.90117827876
-0.0698528478431276,1787.91117827876
-0.0544833600214115,1787.92117827876
-0.0353132023136516,1787.93117827876
-0.0136391311979183,1787.94117827876
0.00895031413386619,1787.95117827876
0.0305689143568249,1787.96117827876
0.0505263259160265,1787.97117827876
0.0674159825306293,1787.98117827876
0.0811244964677419,1787.99117827876
0.0913530406182926,1788.00117827876
0.09867778681967,1788.01117827876
0.104090262597756,1788.02117827876
0.106703072660931,1788.03117827876
0.108407376414864,1788.04117827876
0.10846809641,1788.05117827876
0.107641797541779,1788.06117827876
0.106164428182605,1788.07117827876
0.10489485624245,1788.08117827876
0.10444360772004,1788.09117827876
0.104735358453704,1788.10117827876
0.106073270614498,1788.11117827876
0.107976433853512,1788.12117827876
0.110654428632276,1788.13117827876
0.11362964572357,1788.14117827876
0.116660419965616,1788.15117827876
0.119462933814199,1788.16117827876
0.121472187168425,1788.17117827876
0.122382155399661,1788.18117827876
0.122033335673164,1788.19117827876
0.12063022251477,1788.20117827876
0.118440626694607,1788.21117827876
0.115499835891009,1788.22117827876
0.112704114831232,1788.23117827876
0.110596436857892,1788.24117827876
0.108943346739637,1788.25117827876
0.107439483345368,1788.26117827876
0.106338576874381,1788.27117827876
0.105498272957269,1788.28117827876
0.104682989459391,1788.29117827876
0.104643034485927,1788.30117827876
0.105313751618569,1788.31117827876
0.106093150648696,1788.32117827876
0.107049143507472,1788.33117827876
0.107472355048862,1788.34117827876
0.107672096279391,1788.35117827876
0.107512401127509,1788.36117827876
0.106673444404993,1788.37117827876
0.105508022383049,1788.38117827876
0.103317559969177,1788.39117827876
0.100823474434408,1788.40117827876
0.097428273103311,1788.41117827876
0.0941368108694011,1788.42117827876
0.0903105570497422,1788.43117827876
0.0868766072336003,1788.44117827876
0.0834177367820263,1788.45117827876
0.0798729588733088,1788.46117827876
0.0763712051054027,1788.47117827876
0.0724239474412674,1788.48117827876
0.0691226054914148,1788.49117827876
0.0652186080831163,1788.50117827876
0.061372987094233,1788.51117827876
0.0576838417817952,1788.52117827876
0.0542262712110105,1788.53117827876
0.0505788806145171,1788.54117827876
0.0473721297352473,1788.55117827876
0.0443226837730589,1788.56117827876
0.0412499005894976,1788.57117827876
0.0387742058553292,1788.58117827876
0.0360293114334704,1788.59117827876
0.0336713371579363,1788.60117827876
0.0308933272137948,1788.61117827876
0.027723800999538,1788.62117827876
0.0245096982037553,1788.63117827876
0.020765142946267,1788.64117827876
0.0169764880099494,1788.65117827876
0.0129693851864274,1788.66117827876
0.00917593739760853,1788.67117827876
0.00559823823410359,1788.68117827876
0.00154229389655772,1788.69117827876
-0.00210776575051275,1788.70117827876
-0.00605089728753084,1788.71117827876
-0.00971016911812001,1788.72117827876
-0.0133604559932297,1788.73117827876
-0.0172648093682424,1788.74117827876
-0.02088034972869,1788.75117827876
-0.0244881050795067,1788.76117827876
-0.0278064534913491,1788.77117827876
-0.0308638157534116,1788.78117827876
-0.0342666725042871,1788.79117827876
-0.0377861210043437,1788.80117827876
-0.0411824517138758,1788.81117827876
-0.0447605213703315,1788.82117827876
-0.048086241980157,1788.83117827876
-0.052094306340441,1788.84117827876
-0.0561396571196351,1788.85117827876
-0.0599615532323451,1788.86117827876
-0.0645438978332718,1788.87117827876
-0.0685225315247499,1788.88117827876
-0.0725170898266948,1788.89117827876
-0.0765857961354524,1788.90117827876
-0.0800839788451004,1788.91117827876
-0.0829665449961204,1788.92117827876
-0.0864050588891863,1788.93117827876
-0.0897810269119006,1788.94117827876
-0.0933875592361876,1788.95117827876
-0.0975914289377203,1788.96117827876
-0.101973505516388,1788.97117827876
-0.106394484225902,1788.98117827876
-0.111175998523536,1788.99117827876
-0.114976960882502,1789.00117827876
-0.117928843860479,1789.01117827876
-0.119308592189298,1789.02117827876
-0.117459737428632,1789.03117827876
-0.112111671829351,1789.04117827876
-0.102386399227161,1789.05117827876
-0.0875536806452188,1789.06117827876
-0.0684533547472823,1789.07117827876
-0.0463359947382339,1789.08117827876
-0.0230120083503981,1789.09117827876
-0.000169831646346281,1789.10117827876
0.0209256893132343,1789.11117827876
0.03877837886896,1789.12117827876
0.0533005671551203,1789.13117827876
0.0644596940683797,1789.14117827876
0.072491014905617,1789.15117827876
0.078040940444937,1789.16117827876
0.082055142329603,1789.17117827876
0.0844699053833181,1789.18117827876
0.085206997996396,1789.19117827876
0.0851056015059499,1789.20117827876
0.0846474408848898,1789.21117827876
0.0838291152871098,1789.22117827876
0.0841368588102114,1789.23117827876
0.0844167601938401,1789.24117827876
0.0859782359153894,1789.25117827876
0.0880323700532437,1789.26117827876
0.0907571036949701,1789.27117827876
0.0936970702256905,1789.28117827876
0.0969220418425205,1789.29117827876
0.0991511237060207,1789.30117827876
0.100850126468538,1789.31117827876
0.101739609103448,1789.32117827876
0.101279882710815,1789.33117827876
0.0999332026578755,1789.34117827876
0.0974876878670917,1789.35117827876
0.0947608200109602,1789.36117827876
0.0916474806237878,1789.37117827876
0.0887294007757813,1789.38117827876
0.0862570571220413,1789.39117827876
0.0844451471056929,1789.40117827876
0.0839385996622802,1789.41117827876
0.0837518914598363,1789.42117827876
0.0838130194651678,1789.43117827876
0.0840597827519812,1789.44117827876
0.0850457930034696,1789.45117827876
0.0860489304782515,1789.46117827876
0.0869104711605957,1789.47117827876
0.0872348499458858,1789.48117827876
0.0873160926257092,1789.49117827876
0.0869862559512843,1789.50117827876
0.0870255611565914,1789.51117827876
0.0867889574586034,1789.52117827876
0.086359788612061,1789.53117827876
0.0854070756896022,1789.54117827876
0.0837534783441148,1789.55117827876
0.0815871248645606,1789.56117827876
0.078770677704441,1789.57117827876
0.075315632650339,1789.58117827876
0.0721958324645569,1789.59117827876
0.0685139290456522,1789.60117827876
0.0652061094537664,1789.61117827876
0.0616913068825564,1789.62117827876
0.0574400769754033,1789.63117827876
0.0537183538981415,1789.64117827876
0.0496683970422713,1789.65117827876
0.0457062247054423,1789.66117827876
0.0420040951634241,1789.67117827876
0.0387195952877684,1789.68117827876
0.0354627710745206,1789.69117827876
0.0325949105942995,1789.70117827876
0.0299122613098945,1789.71117827876
0.0264695897449975,1789.72117827876
0.0235886429815033,1789.73117827876
0.020164146519896,1789.74117827876
0.0169090310241936,1789.75117827876
0.0137228563969478,1789.76117827876
0.0103586212461822,1789.77117827876
0.00738093942625088,1789.78117827876
0.00414502544221048,1789.79117827876
0.00114629161514644,1789.80117827876
-0.00236368977577187,1789.81117827876
-0.00592866966741765,1789.82117827876
-0.00919977077567085,1789.83117827876
-0.0124157634623326,1789.84117827876
-0.0153438862013123,1789.85117827876
-0.0182613029690254,1789.86117827876
-0.0211037979437994,1789.87117827876
-0.0239491072748429,1789.88117827876
-0.0271246784051606,1789.89117827876
-0.0303222084502223,1789.90117827876
-0.0337756518691716,1789.91117827876
-0.0375443448416396,1789.92117827876
-0.0414158247905119,1789.93117827876
-0.0451179832397132,1789.94117827876
-0.048372810314911,1789.95117827876
-0.051165259697727,1789.96117827876
-0.0539326202106796,1789.97117827876
-0.0571051009524901,1789.98117827876
-0.0604093453399115,1789.99117827876
-0.0640714277258732,1790.00117827876
-0.0681035546141227,1790.01117827876
-0.0722909136991382,1790.02117827876
-0.0765601477784858,1790.03117827876
-0.081043902963868,1790.04117827876
-0.0851644985901546,1790.05117827876
-0.0890802797578504,1790.06117827876
-0.092671012202206,1790.07117827876
-0.0956669889266867,1790.08117827876
-0.0985580490262091,1790.09117827876
-0.101620268541851,1790.10117827876
-0.104960559151419,1790.11117827876
-0.108587949863379,1790.12117827876
-0.112208789068817,1790.13117827876
-0.115541006709137,1790.14117827876
-0.118622026447206,1790.15117827876
-0.12174468196368,1790.16117827876
-0.124628610342544,1790.17117827876
-0.127906695304216,1790.18117827876
-0.131442171117925,1790.19117827876
-0.135092603962777,1790.20117827876
-0.138753627396091,1790.21117827876
-0.141992513582706,1790.22117827876
-0.143197505853371,1790.23117827876
-0.141832791241536,1790.24117827876
-0.135979720317161,1790.25117827876
-0.125297488024796,1790.26117827876
-0.110060216929851,1790.27117827876
-0.0907141400484911,1790.28117827876
-0.0685862115116369,1790.29117827876
-0.0456064324415469,1790.30117827876
-0.0233994042935934,1790.31117827876
-0.00363495147578094,1790.32117827876
0.0133652668037823,1790.33117827876
0.0268284778519607,1790.34117827876
0.0372462634043681,1790.35117827876
0.0443540913105393,1790.36117827876
0.0485471021940724,1790.37117827876
0.0502839077371408,1790.38117827876
0.05075201765823,1790.39117827876
0.0502408757267873,1790.40117827876
0.0491627443855736,1790.41117827876
0.0478808749878741,1790.42117827876
0.047212572592706,1790.43117827876
0.0463267316215249,1790.44117827876
0.0454307007490648,1790.45117827876
0.0449752067494359,1790.46117827876
0.0450247234514169,1790.47117827876
0.0453175853761949,1790.48117827876
0.0460793516734473,1790.49117827876
0.0467518032824136,1790.50117827876
0.0471061504725556,1790.51117827876
0.0472386290741546,1790.52117827876
0.0474288751926917,1790.53117827876
0.0466239449835909,1790.54117827876
0.0451317144212952,1790.55117827876
0.0425777254056327,1790.56117827876
0.0394068805188673,1790.57117827876
0.0366530058302583,1790.58117827876
0.0342040484014674,1790.59117827876
0.0325183845100266,1790.60117827876
0.0316639706311088,1790.61117827876
0.032292798346368,1790.62117827876
0.0335549667046156,1790.63117827876
0.0347433792303344,1790.64117827876
0.0360693094329318,1790.65117827876
0.0373055310449908,1790.66117827876
0.0378342968167712,1790.67117827876
0.0387849288565223,1790.68117827876
0.0398411673038064,1790.69117827876
0.0404221302427343,1790.70117827876
0.0406874174909523,1790.71117827876
0.0403636363553295,1790.72117827876
0.0390292272339947,1790.73117827876
0.0375227873341592,1790.74117827876
0.0357652822130196,1790.75117827876
0.0335166824176542,1790.76117827876
0.0302884888179217,1790.77117827876
0.0268153390004018,1790.78117827876
0.0229657258288547,1790.79117827876
0.019263871376317,1790.80117827876
0.0157205010603069,1790.81117827876
0.0124304156179848,1790.82117827876
0.00918184134076824,1790.83117827876
0.00585889441396568,1790.84117827876
0.00246473773507387,1790.85117827876
-0.000950885818141011,1790.86117827876
-0.00439484315675454,1790.87117827876
-0.0083476793468059,1790.88117827876
-0.0125843954117147,1790.89117827876
-0.0164591351397944,1790.90117827876
-0.0201301089480457,1790.91117827876
-0.0227616188171661,1790.92117827876
-0.0254040961998783,1790.93117827876
-0.0272938412240535,1790.94117827876
-0.0298276912419859,1790.95117827876
-0.0323211122703287,1790.96117827876
-0.0351295654460158,1790.97117827876
-0.0386460232399391,1790.98117827876
-0.0420200585002861,1790.99117827876
-0.0455873494526519,1791.00117827876
-0.0492351103859497,1791.01117827876
-0.0523767546252143,1791.02117827876
-0.055341653606296,1791.03117827876
-0.0581665344807681,1791.04117827876
-0.0612540776736962,1791.05117827876
-0.0641794105623391,1791.06117827876
-0.0672856052338439,1791.07117827876
-0.0701614229857967,1791.08117827876
-0.0729659137720475,1791.09117827876
-0.0756555205840349,1791.10117827876
-0.078333396998903,1791.11117827876
-0.081309968006347,1791.12117827876
-0.0841081245845953,1791.13117827876
-0.0873371250975389,1791.14117827876
-0.0909021173042901,1791.15117827876
-0.0943261832511021,1791.16117827876
-0.0981545088622113,1791.17117827876
-0.101517432566925,1791.18117827876
-0.104626355498654,1791.19117827876
-0.107423770777845,1791.20117827876
-0.110582574768291,1791.21117827876
-0.113695925555594,1791.22117827876
-0.116914521952017,1791.23117827876
-0.120216773726314,1791.24117827876
-0.123254350254422,1791.25117827876
-0.126380617665311,1791.26117827876
-0.129217321122668,1791.27117827876
-0.132094175785194,1791.28117827876
-0.135053512889366,1791.29117827876
-0.138516808678572,1791.30117827876
-0.142590424248982,1791.31117827876
-0.146766613778008,1791.32117827876
-0.150412100764345,1791.33117827876
-0.153746148764948,1791.34117827876
-0.156250593727262,1791.35117827876
-0.157550120514176,1791.36117827876
-0.15707616053153,1791.37117827876
-0.153713054384581,1791.38117827876
-0.146899988729926,1791.39117827876
-0.136161275139594,1791.40117827876
-0.121434504985378,1791.41117827876
-0.103006200766802,1791.42117827876
-0.0819772875263229,1791.43117827876
-0.0603792599685007,1791.44117827876
-0.0391870262478138,1791.45117827876
-0.0202932358465361,1791.46117827876
-0.00447553162775166,1791.47117827876
0.00721806348807946,1791.48117827876
0.0159973403881865,1791.49117827876
0.0220016987144025,1791.50117827876
0.0254605383899811,1791.51117827876
0.0273238538602709,1791.52117827876
0.0269297150055958,1791.53117827876
0.0254211138920507,1791.54117827876
0.0234695211571612,1791.55117827876
0.0213167480692516,1791.56117827876
0.0194533966724558,1791.57117827876
0.0179264448312389,1791.58117827876
0.0178974607642236,1791.59117827876
0.0184382423650327,1791.60117827876
0.019518317246054,1791.61117827876
0.0208536670965715,1791.62117827876
0.0219459115088014,1791.63117827876
0.0223094452116292,1791.64117827876
0.0224187819791112,1791.65117827876
0.0217175459151979,1791.66117827876
0.0207464798594737,1791.67117827876
0.0190552403957744,1791.68117827876
0.0169886976206792,1791.69117827876
0.0141681359254206,1791.70117827876
0.0113502586501573,1791.71117827876
0.00901810968774052,1791.72117827876
0.00695947451477373,1791.73117827876
0.00570081045634295,1791.74117827876
0.00481940165044243,1791.75117827876
0.00445815908293489,1791.76117827876
0.00460129229992485,1791.77117827876
0.00458177442363002,1791.78117827876
0.00562252719335413,1791.79117827876
0.00658989109751732,1791.80117827876
0.00762474375843237,1791.81117827876
0.00862618852283616,1791.82117827876
0.00919147541018001,1791.83117827876
0.00980847649095799,1791.84117827876
0.00986670647935709,1791.85117827876
0.00937439746448175,1791.86117827876
0.00852498074635269,1791.87117827876
0.00645387782615979,1791.88117827876
0.00369369042585823,1791.89117827876
0.000400051730767053,1791.90117827876
-0.00347820867091224,1791.91117827876
-0.00708035078626931,1791.92117827876
-0.0104733340742174,1791.93117827876
-0.0145151740478137,1791.94117827876
-0.0181482472479633,1791.95117827876
-0.0221613631804627,1791.96117827876
-0.0256873453131728,1791.97117827876
-0.0288989043218606,1791.98117827876
-0.0320079120467748,1791.99117827876
-0.0350841734160812,1792.00117827876
-0.0380304904127607,1792.01117827876
-0.0411600212103411,1792.02117827876
-0.0444863197186364,1792.03117827876
-0.0483350051111939,1792.04117827876
-0.0518789381842249,1792.05117827876
-0.0552938559772867,1792.06117827876
-0.0583132822458499,1792.07117827876
-0.0610782700973218,1792.08117827876
-0.0628538935618855,1792.09117827876
-0.064858819256641,1792.10117827876
-0.0666530927078721,1792.11117827876
-0.0687731840120184,1792.12117827876
-0.0712548144005437,1792.13117827876
-0.074094644151547,1792.14117827876
-0.076683423131277,1792.15117827876
-0.079531390672639,1792.16117827876
-0.0826702077957247,1792.17117827876
-0.0860266823714965,1792.18117827876
-0.0891546220203946,1792.19117827876
-0.091991223779789,1792.20117827876
-0.0945270675365653,1792.21117827876
-0.0967845687608744,1792.22117827876
-0.099161810905983,1792.23117827876
-0.100943888389363,1792.24117827876
-0.103026133119921,1792.25117827876
-0.105599802518028,1792.26117827876
-0.108549860392651,1792.27117827876
-0.112075794960693,1792.28117827876
-0.116302990690206,1792.29117827876
-0.120393981045205,1792.30117827876
-0.124958912082045,1792.31117827876
-0.1294005155366,1792.32117827876
-0.133554684885306,1792.33117827876
-0.137769214996864,1792.34117827876
-0.141484678260676,1792.35117827876
-0.144572336977712,1792.36117827876
-0.147598558270063,1792.37117827876
-0.150818836070955,1792.38117827876
-0.153580010458741,1792.39117827876
-0.15639596843768,1792.40117827876
-0.158741662294959,1792.41117827876
-0.161222712800187,1792.42117827876
-0.163913869786165,1792.43117827876
-0.166799321153504,1792.44117827876
-0.170472510137866,1792.45117827876
-0.173718403097941,1792.46117827876
-0.177319067990208,1792.47117827876
-0.180851431923866,1792.48117827876
-0.184017473821945,1792.49117827876
-0.187310558864039,1792.50117827876
-0.190082855861058,1792.51117827876
-0.192260438376124,1792.52117827876
-0.192503075052563,1792.53117827876
-0.190280551432829,1792.54117827876
-0.184242924108294,1792.55117827876
-0.173904521504572,1792.56117827876
-0.159203753756795,1792.57117827876
-0.140864984689161,1792.58117827876
-0.120139382144398,1792.59117827876
-0.0990694373007564,1792.60117827876
-0.0789139434663733,1792.61117827876
-0.0608402925374272,1792.62117827876
-0.0461465885368356,1792.63117827876
-0.0346531310277357,1792.64117827876
-0.0262470473045468,1792.65117827876
-0.0201941465430542,1792.66117827876
-0.0166956860281124,1792.67117827876
-0.0143728136921198,1792.68117827876
-0.013686538470731,1792.69117827876
-0.0139326778651763,1792.70117827876
-0.0142493030556838,1792.71117827876
-0.0147230490399532,1792.72117827876
-0.0152051936773763,1792.73117827876
-0.0154508081385773,1792.74117827876
-0.0154787789703915,1792.75117827876
-0.0155601669976779,1792.76117827876
-0.0153878520141005,1792.77117827876
-0.0145605377633966,1792.78117827876
-0.0132321307442025,1792.79117827876
-0.0113501868828822,1792.80117827876
-0.00936663126720213,1792.81117827876
-0.00779002944055846,1792.82117827876
-0.00739574796704577,1792.83117827876
-0.00771830873023645,1792.84117827876
-0.00899399668757326,1792.85117827876
-0.0105099072151424,1792.86117827876
-0.0124897037935746,1792.87117827876
-0.0146568649992992,1792.88117827876
-0.0173817995349144,1792.89117827876
