PPG,time
-0.0130475934252047,2491.55714950479
-0.0316316033869607,2491.56714950479
-0.0359123787754899,2491.57714950479
-0.0446587008098643,2491.58714950479
-0.0508092320803513,2491.59714950479
-0.0585100969944214,2491.60714950479
-0.0645058368355722,2491.61714950479
-0.070915415745744,2491.62714950479
-0.0769349915314098,2491.63714950479
-0.0828939442746608,2491.64714950479
-0.0881432224676325,2491.65714950479
-0.0938926042782361,2491.66714950479
-0.0999903704077191,2491.67714950479
-0.106524414133122,2491.68714950479
-0.113799685941821,2491.69714950479
-0.121469814557701,2491.70714950479
-0.128373144008779,2491.71714950479
-0.134942601399283,2491.72714950479
-0.138974287680626,2491.73714950479
-0.138865940160238,2491.74714950479
-0.131074881458256,2491.75714950479
-0.112508896509627,2491.76714950479
-0.0804660841975448,2491.77714950479
-0.034202845450011,2491.78714950479
0.0234346182532193,2491.79714950479
0.090095176557375,2491.80714950479
0.160928152794897,2491.81714950479
0.230959700353966,2491.82714950479
0.295889965747594,2491.83714950479
0.352476120416234,2491.84714950479
0.397785912223047,2491.85714950479
0.430987534595088,2491.86714950479
0.451978613786458,2491.87714950479
0.462050784805674,2491.88714950479
0.462232073082119,2491.89714950479
0.455282574284635,2491.90714950479
0.443116550259669,2491.91714950479
0.426761326947946,2491.92714950479
0.408719818163276,2491.93714950479
0.389431930189036,2491.94714950479
0.369998181743827,2491.95714950479
0.352081560973052,2491.96714950479
0.335533458104388,2491.97714950479
0.320898756416484,2491.98714950479
0.307564711049451,2491.99714950479
0.295590931738819,2492.00714950479
0.284469097796281,2492.01714950479
0.27284591486542,2492.02714950479
0.261032744989282,2492.03714950479
0.248693339065587,2492.04714950479
0.236140701839227,2492.05714950479
0.223403966119237,2492.06714950479
0.211100925981726,2492.07714950479
0.199330336936735,2492.08714950479
0.188380682077274,2492.09714950479
0.178777564791927,2492.10714950479
0.170382018182686,2492.11714950479
0.164180138968777,2492.12714950479
0.160142928616901,2492.13714950479
0.157708631461509,2492.14714950479
0.157068500476952,2492.15714950479
0.157070026218263,2492.16714950479
0.156950567819536,2492.17714950479
0.156301496383003,2492.18714950479
0.154765437513654,2492.19714950479
0.153270186126883,2492.20714950479
0.150549961024252,2492.21714950479
0.146672068144774,2492.22714950479
0.141441495466207,2492.23714950479
0.134672336995754,2492.24714950479
0.126863470782408,2492.25714950479
0.117755560613776,2492.26714950479
0.107870337190822,2492.27714950479
0.097324269661101,2492.28714950479
0.0859898512308591,2492.29714950479
0.0743963937701199,2492.30714950479
0.0628616448211454,2492.31714950479
0.0516972749105088,2492.32714950479
0.0405428161207227,2492.33714950479
0.0295388133908783,2492.34714950479
0.018180505142828,2492.35714950479
0.0071064721083573,2492.36714950479
-0.00365385375575108,2492.37714950479
-0.0143104572158478,2492.38714950479
-0.0245198842494244,2492.39714950479
-0.0347566127872041,2492.40714950479
-0.0445437939989208,2492.41714950479
-0.0541126637854638,2492.42714950479
-0.0631936683026091,2492.43714950479
-0.071925748573694,2492.44714950479
-0.0808404305313454,2492.45714950479
-0.0891784371349298,2492.46714950479
-0.0976178485667769,2492.47714950479
-0.105664424697426,2492.48714950479
-0.113455589688825,2492.49714950479
-0.120939807012126,2492.50714950479
-0.127867564963271,2492.51714950479
-0.13444231543078,2492.52714950479
-0.140080217475215,2492.53714950479
-0.145879958572655,2492.54714950479
-0.151504974915793,2492.55714950479
-0.157252390726158,2492.56714950479
-0.16328357613985,2492.57714950479
-0.169476248276154,2492.58714950479
-0.175357888492069,2492.59714950479
-0.18078421711946,2492.60714950479
-0.186510143434381,2492.61714950479
-0.192305980443595,2492.62714950479
-0.198992691833945,2492.63714950479
-0.20509255969217,2492.64714950479
-0.211277847031502,2492.65714950479
-0.217452706898927,2492.66714950479
-0.223114385572943,2492.67714950479
-0.228515026470184,2492.68714950479
-0.234399745443199,2492.69714950479
-0.240221757778212,2492.70714950479
-0.246076821945291,2492.71714950479
-0.250194077240738,2492.72714950479
-0.251569970247311,2492.73714950479
-0.247388944711052,2492.74714950479
-0.23533745111635,2492.75714950479
-0.212048837138252,2492.76714950479
-0.177339991782363,2492.77714950479
-0.130200845355601,2492.78714950479
-0.0728650539349372,2492.79714950479
-0.00950642045314072,2492.80714950479
0.0558703509913809,2492.81714950479
0.119174908962527,2492.82714950479
0.176878408900199,2492.83714950479
0.226580106863248,2492.84714950479
0.26546850873322,2492.85714950479
0.292894642307705,2492.86714950479
0.309708275225264,2492.87714950479
0.316740007665001,2492.88714950479
0.315864420260822,2492.89714950479
0.308522147257223,2492.90714950479
0.297102096186731,2492.91714950479
0.282676045525305,2492.92714950479
0.267046867661447,2492.93714950479
0.250750401628338,2492.94714950479
0.235019681442946,2492.95714950479
0.220236060498348,2492.96714950479
0.207250330000487,2492.97714950479
0.19559388471112,2492.98714950479
0.185292929691356,2492.99714950479
0.176331412016624,2493.00714950479
0.167146306096558,2493.01714950479
0.158052878146368,2493.02714950479
0.148026244332721,2493.03714950479
0.137209194380194,2493.04714950479
0.124218934347284,2493.05714950479
0.110718835023678,2493.06714950479
0.0974714480401734,2493.07714950479
0.0856611501401955,2493.08714950479
0.0759039887039076,2493.09714950479
0.0679118245935876,2493.10714950479
0.0617872223542545,2493.11714950479
0.0573958981265735,2493.12714950479
0.054617010806998,2493.13714950479
0.0529329999478322,2493.14714950479
0.0520998682483935,2493.15714950479
0.0521443219413142,2493.16714950479
0.0524688588485449,2493.17714950479
0.0522291771296618,2493.18714950479
0.0510477655476959,2493.19714950479
0.0487222579018818,2493.20714950479
0.044462610992574,2493.21714950479
0.0388011657955813,2493.22714950479
0.0321769167956256,2493.23714950479
0.0243679374714204,2493.24714950479
0.0162106055830459,2493.25714950479
0.00735808309052249,2493.26714950479
-0.00194173198148725,2493.27714950479
-0.0113808717145173,2493.28714950479
-0.0218719033710124,2493.29714950479
-0.0325057709569106,2493.30714950479
-0.0433327025577835,2493.31714950479
-0.0543523083080841,2493.32714950479
-0.0650335127687631,2493.33714950479
-0.0750466296402723,2493.34714950479
-0.0844892076954894,2493.35714950479
-0.0932050045982296,2493.36714950479
-0.101714945713873,2493.37714950479
-0.10994472390293,2493.38714950479
-0.117592067297571,2493.39714950479
-0.125371853824557,2493.40714950479
-0.133812590573182,2493.41714950479
-0.141467840914935,2493.42714950479
-0.149440168587894,2493.43714950479
-0.157519753758463,2493.44714950479
-0.165660771971841,2493.45714950479
-0.174089066842849,2493.46714950479
-0.182223876693789,2493.47714950479
-0.190412312888339,2493.48714950479
-0.197566783698018,2493.49714950479
-0.204248581845888,2493.50714950479
-0.209923983398823,2493.51714950479
-0.214938377621215,2493.52714950479
-0.219579723609594,2493.53714950479
-0.224305745495363,2493.54714950479
-0.229517919642785,2493.55714950479
-0.235445931580742,2493.56714950479
-0.241260491072005,2493.57714950479
-0.247167487616116,2493.58714950479
-0.252464894863911,2493.59714950479
-0.257757199757558,2493.60714950479
-0.262471817207826,2493.61714950479
-0.266684679447644,2493.62714950479
-0.270986089935487,2493.63714950479
-0.275382776508093,2493.64714950479
-0.280053165722765,2493.65714950479
-0.284730607013568,2493.66714950479
-0.289239279898699,2493.67714950479
-0.29412690192142,2493.68714950479
-0.298824799696286,2493.69714950479
-0.302421339597731,2493.70714950479
-0.302682354923844,2493.71714950479
-0.296089401944995,2493.72714950479
-0.279973758355087,2493.73714950479
-0.252231769041314,2493.74714950479
-0.211834672019541,2493.75714950479
-0.160190524843992,2493.76714950479
-0.100187284071211,2493.77714950479
-0.0354910241258587,2493.78714950479
0.0290319200868461,2493.79714950479
0.0902370028953519,2493.80714950479
0.144483902593067,2493.81714950479
0.189640852686259,2493.82714950479
0.22422307688062,2493.83714950479
0.248831425736942,2493.84714950479
0.262865619011212,2493.85714950479
0.268536871802344,2493.86714950479
0.266897008314036,2493.87714950479
0.260258769071501,2493.88714950479
0.249932726167178,2493.89714950479
0.237361419547735,2493.90714950479
0.223564317842651,2493.91714950479
0.209688719210758,2493.92714950479
0.195892981241318,2493.93714950479
0.182180234825219,2493.94714950479
0.169748424032263,2493.95714950479
0.158579211165849,2493.96714950479
0.148488801053293,2493.97714950479
0.13936640416424,2493.98714950479
0.130517461856557,2493.99714950479
0.12058414439711,2494.00714950479
0.109360423840958,2494.01714950479
0.0972178196181632,2494.02714950479
0.0845677259666701,2494.03714950479
0.0725709421524627,2494.04714950479
0.0614338088531233,2494.05714950479
0.0523818535453919,2494.06714950479
0.0454005331796488,2494.07714950479
0.0402704708337951,2494.08714950479
0.036845537684841,2494.09714950479
0.0352087251054938,2494.10714950479
0.0343779090629209,2494.11714950479
0.0344899370770704,2494.12714950479
0.0349300764640625,2494.13714950479
0.0351556243925253,2494.14714950479
0.0351295264480622,2494.15714950479
0.0349107286355879,2494.16714950479
0.0340209192511556,2494.17714950479
0.0320197878396318,2494.18714950479
0.029099336434538,2494.19714950479
0.0250568128376533,2494.20714950479
0.019884320586003,2494.21714950479
0.0133731345727978,2494.22714950479
0.00586147961968397,2494.23714950479
-0.00241093334128102,2494.24714950479
-0.0110249351290153,2494.25714950479
-0.0207058309075987,2494.26714950479
-0.0306541431337461,2494.27714950479
-0.041341040625594,2494.28714950479
-0.0524816600430699,2494.29714950479
-0.0633419965613456,2494.30714950479
-0.0739059859094459,2494.31714950479
-0.0839811343286719,2494.32714950479
-0.0938113734647609,2494.33714950479
-0.102897113910447,2494.34714950479
-0.112099608291637,2494.35714950479
-0.121274206924856,2494.36714950479
-0.13005819280169,2494.37714950479
-0.138326271813136,2494.38714950479
-0.146280175248238,2494.39714950479
-0.153584552525408,2494.40714950479
-0.160322277801834,2494.41714950479
-0.167025832620299,2494.42714950479
-0.173508718150943,2494.43714950479
-0.179996152327156,2494.44714950479
-0.186814848869034,2494.45714950479
-0.192652396420739,2494.46714950479
-0.199325577160111,2494.47714950479
-0.205592388199327,2494.48714950479
-0.211814466762197,2494.49714950479
-0.218107890058945,2494.50714950479
-0.224029265923245,2494.51714950479
-0.229572519548055,2494.52714950479
-0.234202144257662,2494.53714950479
-0.238741225435701,2494.54714950479
-0.24314361814865,2494.55714950479
-0.247387641904616,2494.56714950479
-0.252213700516074,2494.57714950479
-0.257447262487885,2494.58714950479
-0.262540806552072,2494.59714950479
-0.26747738228819,2494.60714950479
-0.271810585019277,2494.61714950479
-0.276374648620355,2494.62714950479
-0.281413196681498,2494.63714950479
-0.286781237577104,2494.64714950479
-0.292124989489565,2494.65714950479
-0.297339592452578,2494.66714950479
-0.302429209060328,2494.67714950479
-0.307481559379313,2494.68714950479
-0.312470872097776,2494.69714950479
-0.317453998319791,2494.70714950479
-0.320841531703781,2494.71714950479
-0.320417764343538,2494.72714950479
-0.314571254234231,2494.73714950479
-0.299654516953968,2494.74714950479
-0.273926078493591,2494.75714950479
-0.235924198178471,2494.76714950479
-0.185767366502876,2494.77714950479
-0.126599599800741,2494.78714950479
-0.0608183766976963,2494.79714950479
0.00632383766271544,2494.80714950479
0.0713656509699276,2494.81714950479
0.130316998866562,2494.82714950479
0.18095333312521,2494.83714950479
0.221365615138226,2494.84714950479
0.249965323449007,2494.85714950479
0.26757234481024,2494.86714950479
0.275542087138318,2494.87714950479
0.275826644668591,2494.88714950479
0.269908820640432,2494.89714950479
0.259533048877999,2494.90714950479
0.246594298712976,2494.91714950479
0.231433296541216,2494.92714950479
0.215444184102881,2494.93714950479
0.199741519893741,2494.94714950479
0.184781050660849,2494.95714950479
0.171661810768137,2494.96714950479
0.159751508659608,2494.97714950479
0.14869754440207,2494.98714950479
0.138781787431308,2494.99714950479
0.128585109942692,2495.00714950479
0.11826209674773,2495.01714950479
0.107223731995533,2495.02714950479
0.0953142906199752,2495.03714950479
0.0832006287266272,2495.04714950479
0.0717268182587354,2495.05714950479
0.061166636174426,2495.06714950479
0.0517257210068099,2495.07714950479
0.0443308623036071,2495.08714950479
0.0391618996595431,2495.09714950479
0.0360069377349436,2495.10714950479
0.0350375631869123,2495.11714950479
0.0356000681570774,2495.12714950479
0.0376634731063593,2495.13714950479
0.0403260415719452,2495.14714950479
0.0431634860068399,2495.15714950479
0.045676838465188,2495.16714950479
0.0476036797802992,2495.17714950479
0.0490451123483857,2495.18714950479
0.0488849366214537,2495.19714950479
0.0466902229489177,2495.20714950479
0.0434129307185399,2495.21714950479
0.0379971864646154,2495.22714950479
0.0318447310324883,2495.23714950479
0.0250686150562698,2495.24714950479
0.0170182637697124,2495.25714950479
0.00874458443888159,2495.26714950479
-2.00492801895163e-05,2495.27714950479
-0.00915134146559897,2495.28714950479
-0.0189911664643387,2495.29714950479
-0.029154810558686,2495.30714950479
-0.0392862829087441,2495.31714950479
-0.049098348815979,2495.32714950479
-0.0591414266084598,2495.33714950479
-0.0686651582400714,2495.34714950479
-0.0780244214675392,2495.35714950479
-0.0863367341013927,2495.36714950479
-0.0937580431896007,2495.37714950479
-0.10105320334767,2495.38714950479
-0.107700515487892,2495.39714950479
-0.11434743739313,2495.40714950479
-0.121056778209062,2495.41714950479
-0.128218289058474,2495.42714950479
-0.134818637778748,2495.43714950479
-0.140403572513633,2495.44714950479
-0.145472552845848,2495.45714950479
-0.150226942050456,2495.46714950479
-0.153844799849489,2495.47714950479
-0.157423023636706,2495.48714950479
-0.161156676761217,2495.49714950479
-0.16554024627893,2495.50714950479
-0.169716682777285,2495.51714950479
-0.174029609781761,2495.52714950479
-0.178342017650317,2495.53714950479
-0.183287398055839,2495.54714950479
-0.187577558459706,2495.55714950479
-0.191503384705114,2495.56714950479
-0.195117965414051,2495.57714950479
-0.198618031796379,2495.58714950479
-0.202265994517496,2495.59714950479
-0.206326263398073,2495.60714950479
-0.21081534300399,2495.61714950479
-0.215620610375771,2495.62714950479
-0.220267931410669,2495.63714950479
-0.224843051461534,2495.64714950479
-0.228709569882956,2495.65714950479
-0.231001857498336,2495.66714950479
-0.229634635337982,2495.67714950479
-0.222062196524475,2495.68714950479
-0.205222637165279,2495.69714950479
-0.176476241487188,2495.70714950479
-0.134986493557739,2495.71714950479
-0.0820375672830909,2495.72714950479
-0.0198995324987733,2495.73714950479
0.0470260419930389,2495.74714950479
0.114590144010489,2495.75714950479
0.178531270280842,2495.76714950479
0.23518605483567,2495.77714950479
0.283056909122481,2495.78714950479
0.319735372438221,2495.79714950479
0.345529009607437,2495.80714950479
0.360773858868846,2495.81714950479
0.36669503042557,2495.82714950479
0.364889850901948,2495.83714950479
0.357245965083617,2495.84714950479
0.345344433590218,2495.85714950479
0.330379566362786,2495.86714950479
0.314511949705153,2495.87714950479
0.297970564372089,2495.88714950479
0.281719430071817,2495.89714950479
0.266345303359441,2495.90714950479
0.252445309906384,2495.91714950479
0.24065856804141,2495.92714950479
0.229345848764873,2495.93714950479
0.218847256838658,2495.94714950479
0.207714742791925,2495.95714950479
0.195035170387687,2495.96714950479
0.181711408980305,2495.97714950479
0.168385121808598,2495.98714950479
0.155348241662521,2495.99714950479
0.144416234506464,2496.00714950479
0.135657292024691,2496.01714950479
0.129336202309739,2496.02714950479
0.126039476982734,2496.03714950479
0.125283414823409,2496.04714950479
0.12632483782432,2496.05714950479
0.129520483304562,2496.06714950479
0.133502812847895,2496.07714950479
0.137647051962286,2496.08714950479
0.141941095403863,2496.09714950479
0.145348335649547,2496.10714950479
0.14777419887488,2496.11714950479
0.148256193581125,2496.12714950479
0.147132082632128,2496.13714950479
0.14450585829493,2496.14714950479
0.140407499302551,2496.15714950479
0.135254419759579,2496.16714950479
0.129331059326589,2496.17714950479
0.121889440544063,2496.18714950479
0.113574871826157,2496.19714950479
0.104744139622615,2496.20714950479
0.0958853059814521,2496.21714950479
0.0864950695883303,2496.22714950479
0.0773553258580129,2496.23714950479
0.068131229753815,2496.24714950479
0.0588331280813626,2496.25714950479
0.0502284002040854,2496.26714950479
0.0416111065225395,2496.27714950479
0.0334120122708711,2496.28714950479
0.0257004471514527,2496.29714950479
0.0187874684444767,2496.30714950479
0.0116205376460311,2496.31714950479
0.00447079125494889,2496.32714950479
-0.00254246657678416,2496.33714950479
-0.00992747302151845,2496.34714950479
-0.0176116935620546,2496.35714950479
-0.0248153927676135,2496.36714950479
-0.0314892064110876,2496.37714950479
-0.0370549750479159,2496.38714950479
-0.0419914403754691,2496.39714950479
-0.0467640867174322,2496.40714950479
-0.0515012333431287,2496.41714950479
-0.0564145298958602,2496.42714950479
-0.0612287739964218,2496.43714950479
-0.06650061752019,2496.44714950479
-0.0718743815586943,2496.45714950479
-0.0775649109690734,2496.46714950479
-0.0830690559483465,2496.47714950479
-0.0885340400591283,2496.48714950479
-0.0938812229631691,2496.49714950479
-0.0990420945662276,2496.50714950479
-0.103901124349499,2496.51714950479
-0.108847520177264,2496.52714950479
-0.113636610210339,2496.53714950479
-0.118269336436614,2496.54714950479
-0.122726148913154,2496.55714950479
-0.126861602116303,2496.56714950479
-0.131472106340277,2496.57714950479
-0.136425118238316,2496.58714950479
-0.141545065790864,2496.59714950479
-0.146533516105935,2496.60714950479
-0.149814445070046,2496.61714950479
-0.149832481353921,2496.62714950479
-0.143171410500055,2496.63714950479
-0.126307070944447,2496.64714950479
-0.096283951592796,2496.65714950479
-0.0523515982720714,2496.66714950479
0.00483594330493775,2496.67714950479
0.0725482880600361,2496.68714950479
0.146631801109394,2496.69714950479
0.223461193831565,2496.70714950479
0.296759329833168,2496.71714950479
0.362714700199361,2496.72714950479
0.417994752983866,2496.73714950479
0.461204731351319,2496.74714950479
0.491388715420316,2496.75714950479
0.509727226103231,2496.76714950479
0.517075465833836,2496.77714950479
0.515802384950453,2496.78714950479
0.508462371652081,2496.79714950479
0.496302194370592,2496.80714950479
0.481176163723452,2496.81714950479
0.465424936733162,2496.82714950479
0.449233507293322,2496.83714950479
0.433911904577918,2496.84714950479
0.419471692337523,2496.85714950479
0.406684849515991,2496.86714950479
0.396129091809796,2496.87714950479
0.386575545285066,2496.88714950479
0.379070028500225,2496.89714950479
0.372301411276159,2496.90714950479
0.3647833069651,2496.91714950479
0.355814890624983,2496.92714950479
0.345328348817814,2496.93714950479
0.332811680499696,2496.94714950479
0.31997549690347,2496.95714950479
0.306753409719359,2496.96714950479
0.294928791071074,2496.97714950479
0.285428226192841,2496.98714950479
0.278429581978762,2496.99714950479
0.27339732282818,2497.00714950479
0.269650818417143,2497.01714950479
0.267960747643339,2497.02714950479
0.267331728413181,2497.03714950479
0.267598369871952,2497.04714950479
0.267962122796143,2497.05714950479
0.268752944663787,2497.06714950479
0.26872934116968,2497.07714950479
0.268114884158386,2497.08714950479
0.266083393775575,2497.09714950479
0.262918651829113,2497.10714950479
0.258403419107272,2497.11714950479
0.252875641088962,2497.12714950479
0.24629382430027,2497.13714950479
0.238514700775314,2497.14714950479
0.229705330328128,2497.15714950479
0.219894117359633,2497.16714950479
0.209756436485315,2497.17714950479
0.198644540793299,2497.18714950479
0.187814062263529,2497.19714950479
0.176494653452502,2497.20714950479
0.164442138472627,2497.21714950479
0.152570565983348,2497.22714950479
0.140933995842008,2497.23714950479
0.129725672565379,2497.24714950479
0.118679123692266,2497.25714950479
0.108451785704716,2497.26714950479
0.0984180274570882,2497.27714950479
0.0887154600895772,2497.28714950479
0.0794116535496243,2497.29714950479
0.0704665228727822,2497.30714950479
0.0616712102332223,2497.31714950479
0.0530601469637954,2497.32714950479
0.0448884770929931,2497.33714950479
0.0365881590573117,2497.34714950479
0.0287923643436502,2497.35714950479
0.0215604293510911,2497.36714950479
0.0154884285906508,2497.37714950479
0.00997017223183942,2497.38714950479
0.00451434104259695,2497.39714950479
-0.000837552233345694,2497.40714950479
-0.00655430792748894,2497.41714950479
-0.0120394054021126,2497.42714950479
-0.0181799593976393,2497.43714950479
-0.0237582432026685,2497.44714950479
-0.028873437526837,2497.45714950479
-0.0344851691515599,2497.46714950479
-0.0392344024691725,2497.47714950479
-0.0445301284375828,2497.48714950479
-0.0497195362310262,2497.49714950479
-0.0550891715088958,2497.50714950479
-0.060098367382169,2497.51714950479
-0.0651646931246133,2497.52714950479
-0.0697327327183616,2497.53714950479
-0.0741151011611622,2497.54714950479
-0.078797277594252,2497.55714950479
-0.0835627279523487,2497.56714950479
-0.0884864689591614,2497.57714950479
-0.0938173770320387,2497.58714950479
-0.0989434575070846,2497.59714950479
-0.10309133934784,2497.60714950479
-0.104029193318018,2497.61714950479
-0.0987835440382406,2497.62714950479
-0.0841455575980991,2497.63714950479
-0.0560811569162355,2497.64714950479
-0.0132791813178156,2497.65714950479
0.0441690603577516,2497.66714950479
0.113352417681356,2497.67714950479
0.19059795126055,2497.68714950479
0.270444179703016,2497.69714950479
0.347073171509129,2497.70714950479
0.416087652406151,2497.71714950479
0.473472487172044,2497.72714950479
0.517836815125062,2497.73714950479
0.548550145624938,2497.74714950479
0.566289262625672,2497.75714950479
0.572776557705128,2497.76714950479
0.569658472214174,2497.77714950479
0.559644153214097,2497.78714950479
0.544258300632574,2497.79714950479
0.526117569915178,2497.80714950479
0.506412162761029,2497.81714950479
0.486442484153096,2497.82714950479
0.467637875556616,2497.83714950479
0.450731360069987,2497.84714950479
0.435404092563086,2497.85714950479
0.421939813275758,2497.86714950479
0.410038578655743,2497.87714950479
0.399335780911858,2497.88714950479
0.389281596772144,2497.89714950479
0.379127033426436,2497.90714950479
0.368338000618448,2497.91714950479
0.356413243661088,2497.92714950479
0.344073757143072,2497.93714950479
0.331327596727554,2497.94714950479
0.318819435720393,2497.95714950479
0.307187058107811,2497.96714950479
0.297767232145306,2497.97714950479
0.290187370728619,2497.98714950479
0.28500254563102,2497.99714950479
0.281472869610576,2498.00714950479
0.279618954512912,2498.01714950479
0.279433406267845,2498.02714950479
0.280075345376607,2498.03714950479
0.281053974827638,2498.04714950479
0.282356711428572,2498.05714950479
0.283085210964113,2498.06714950479
0.283205796070566,2498.07714950479
0.281845409173689,2498.08714950479
0.278964046749222,2498.09714950479
0.274307419485478,2498.10714950479
0.267688647821031,2498.11714950479
0.260109627710707,2498.12714950479
0.251294063365509,2498.13714950479
0.241522241754404,2498.14714950479
0.23131117815178,2498.15714950479
0.221130190180686,2498.16714950479
0.210692984739311,2498.17714950479
0.199675449481672,2498.18714950479
0.188720873783498,2498.19714950479
0.177597107795729,2498.20714950479
0.165767881093526,2498.21714950479
0.153873740345241,2498.22714950479
0.141730875721641,2498.23714950479
0.130307709755683,2498.24714950479
0.119641430603372,2498.25714950479
0.109443401801147,2498.26714950479
0.100532611695632,2498.27714950479
0.0918419457795983,2498.28714950479
0.0832002315478242,2498.29714950479
0.0750299327723094,2498.30714950479
0.066826990637105,2498.31714950479
0.0588681956263027,2498.32714950479
0.0516603756893486,2498.33714950479
0.0449111995510794,2498.34714950479
0.038281529947498,2498.35714950479
0.031581042209063,2498.36714950479
0.0244710304721907,2498.37714950479
0.0175229835249478,2498.38714950479
0.0102142964234379,2498.39714950479
0.00335974184186007,2498.40714950479
-0.00305341886382114,2498.41714950479
-0.00895190425785006,2498.42714950479
-0.0145576741891962,2498.43714950479
-0.0201066424219664,2498.44714950479
-0.0257583860914535,2498.45714950479
-0.0312527867997688,2498.46714950479
-0.0366854045548481,2498.47714950479
-0.0424507221774162,2498.48714950479
-0.0474421891934081,2498.49714950479
-0.0528050540338198,2498.50714950479
-0.0586283020818179,2498.51714950479
-0.064182697439954,2498.52714950479
-0.0693101402998064,2498.53714950479
-0.074633939867898,2498.54714950479
-0.0797335423162695,2498.55714950479
-0.0844217987730811,2498.56714950479
-0.0892387702073449,2498.57714950479
-0.0942283347251798,2498.58714950479
-0.0997565250753357,2498.59714950479
-0.105429494415562,2498.60714950479
-0.110736252855359,2498.61714950479
-0.11532253933315,2498.62714950479
-0.117339381803199,2498.63714950479
-0.114111215580938,2498.64714950479
-0.102358670045169,2498.65714950479
-0.0778675860026896,2498.66714950479
-0.0386646140791304,2498.67714950479
0.0161937061859288,2498.68714950479
0.0844999928841764,2498.69714950479
0.162876350640476,2498.70714950479
0.246690630379696,2498.71714950479
0.329136935606044,2498.72714950479
0.405353873421343,2498.73714950479
0.470670398620978,2498.74714950479
0.522839406879517,2498.75714950479
0.560419125218066,2498.76714950479
0.583475563771524,2498.77714950479
0.593402263032631,2498.78714950479
0.592636152588308,2498.79714950479
0.583450202960755,2498.80714950479
0.568634748398071,2498.81714950479
0.54994915484913,2498.82714950479
0.529373272868693,2498.83714950479
0.508671351392783,2498.84714950479
0.488026389514655,2498.85714950479
0.468339233797955,2498.86714950479
0.450147360268617,2498.87714950479
0.434090637106831,2498.88714950479
0.419977457917787,2498.89714950479
0.407914158202472,2498.90714950479
0.397092743920054,2498.91714950479
0.385976321413534,2498.92714950479
0.374910759336797,2498.93714950479
0.362864262385673,2498.94714950479
0.350166658009747,2498.95714950479
0.336605139830351,2498.96714950479
0.323846822781189,2498.97714950479
0.31213061178725,2498.98714950479
0.302814900074959,2498.99714950479
0.295844156343295,2499.00714950479
0.29124657224622,2499.01714950479
0.288488629609421,2499.02714950479
0.287469252490611,2499.03714950479
0.287046741915424,2499.04714950479
0.288242469366584,2499.05714950479
0.28946203273935,2499.06714950479
0.291340632923503,2499.07714950479
0.293640796390176,2499.08714950479
0.294793206136173,2499.09714950479
0.29464037003178,2499.10714950479
0.291966124395975,2499.11714950479
0.286897456841698,2499.12714950479
0.279483455563556,2499.13714950479
0.270814063053179,2499.14714950479
0.261321457764134,2499.15714950479
0.251183647774188,2499.16714950479
0.240201641784745,2499.17714950479
0.228658483378511,2499.18714950479
0.2167033625707,2499.19714950479
0.204864776949648,2499.20714950479
0.192603931944309,2499.21714950479
0.179636049842782,2499.22714950479
0.166827192319235,2499.23714950479
0.153698407455113,2499.24714950479
0.141615828953014,2499.25714950479
0.129481769182805,2499.26714950479
0.118019133120105,2499.27714950479
0.107574276431126,2499.28714950479
0.0978194981894098,2499.29714950479
0.0890730429140677,2499.30714950479
0.0809333709695181,2499.31714950479
0.0734534782668545,2499.32714950479
0.065675899654921,2499.33714950479
0.0574663398173961,2499.34714950479
0.0490500859790589,2499.35714950479
0.0400626524807968,2499.36714950479
0.0314979359701908,2499.37714950479
0.02381502164752,2499.38714950479
0.0168235869531651,2499.39714950479
0.0101864407578494,2499.40714950479
0.0039049381854711,2499.41714950479
-0.00219972312725461,2499.42714950479
-0.00869821002120722,2499.43714950479
-0.0150785097541599,2499.44714950479
-0.0211037501002324,2499.45714950479
-0.0273976374114036,2499.46714950479
-0.0333441342718227,2499.47714950479
-0.0399229490758488,2499.48714950479
-0.0463776583418733,2499.49714950479
-0.052664446925367,2499.50714950479
-0.05874248380479,2499.51714950479
-0.064877601806728,2499.52714950479
-0.0709408645053381,2499.53714950479
-0.077083718821841,2499.54714950479
-0.0826434709302894,2499.55714950479
-0.0885999398405272,2499.56714950479
-0.0946789202579594,2499.57714950479
-0.100840047469695,2499.58714950479
-0.107201873297033,2499.59714950479
-0.113343392987821,2499.60714950479
-0.119063513854161,2499.61714950479
-0.124990728444127,2499.62714950479
-0.13086955254819,2499.63714950479
-0.134861448513139,2499.64714950479
-0.135730235571994,2499.65714950479
-0.129594963443852,2499.66714950479
-0.11295338211978,2499.67714950479
-0.0817563816850165,2499.68714950479
-0.0354577106894998,2499.69714950479
0.0251932127727043,2499.70714950479
0.0967856737231491,2499.71714950479
0.174473403521008,2499.72714950479
0.252805879719482,2499.73714950479
0.325953341039527,2499.74714950479
0.390105085663504,2499.75714950479
0.442147402384946,2499.76714950479
0.481241791937237,2499.77714950479
0.506622557959761,2499.78714950479
0.519563857224519,2499.79714950479
0.520907340657112,2499.80714950479
0.5128919214131,2499.81714950479
0.498068829046188,2499.82714950479
0.477811249747801,2499.83714950479
0.45476625110326,2499.84714950479
0.430136750797725,2499.85714950479
0.405904727305684,2499.86714950479
0.382381193921317,2499.87714950479
0.360458748643489,2499.88714950479
0.340311360227297,2499.89714950479
0.32220243777232,2499.90714950479
0.305265651592619,2499.91714950479
0.290311612452829,2499.92714950479
0.275845515874071,2499.93714950479
0.262186508611461,2499.94714950479
0.248179137512538,2499.95714950479
0.233232351673728,2499.96714950479
0.218348743243713,2499.97714950479
0.203507413967501,2499.98714950479
0.189713231408335,2499.99714950479
0.177901689691391,2500.00714950479
0.168503268364854,2500.01714950479
0.161703352568184,2500.02714950479
0.15781584098176,2500.03714950479
0.155870570150318,2500.04714950479
0.156084024493943,2500.05714950479
0.158085586583103,2500.06714950479
0.161339240486185,2500.07714950479
0.165032707675222,2500.08714950479
0.168591898621225,2500.09714950479
0.170608316842589,2500.10714950479
0.171423325655513,2500.11714950479
0.169238935954367,2500.12714950479
0.164490233879318,2500.13714950479
0.157498610751359,2500.14714950479
0.14902253978458,2500.15714950479
0.139563114762088,2500.16714950479
0.128965882812931,2500.17714950479
0.117872173181245,2500.18714950479
0.106660592935894,2500.19714950479
0.0947755690023841,2500.20714950479
0.0823567468362973,2500.21714950479
0.0697606362730644,2500.22714950479
0.0571549107479205,2500.23714950479
0.0446750990878635,2500.24714950479
0.0321483134565186,2500.25714950479
0.0202012051065084,2500.26714950479
0.00833354256359385,2500.27714950479
-0.00348819406340817,2500.28714950479
-0.0152909481830796,2500.29714950479
-0.0263545278736954,2500.30714950479
-0.0365179013019946,2500.31714950479
-0.0459202907729491,2500.32714950479
-0.0546654158658068,2500.33714950479
-0.0626759554636213,2500.34714950479
-0.0707586821480599,2500.35714950479
-0.078423041509586,2500.36714950479
-0.0857792130913422,2500.37714950479
-0.0928587356274307,2500.38714950479
-0.0995353726586541,2500.39714950479
-0.106261248240065,2500.40714950479
-0.113282630956691,2500.41714950479
-0.120252599746007,2500.42714950479
-0.127186271135783,2500.43714950479
-0.13420633495343,2500.44714950479
-0.140702733773741,2500.45714950479
-0.147216275469453,2500.46714950479
-0.153563181625514,2500.47714950479
-0.160018907861301,2500.48714950479
-0.166739043954239,2500.49714950479
-0.173980623391884,2500.50714950479
-0.181415929301149,2500.51714950479
-0.188599696909871,2500.52714950479
-0.195594570385955,2500.53714950479
-0.201314651187655,2500.54714950479
-0.205752938168066,2500.55714950479
-0.205176088889701,2500.56714950479
-0.197780828738779,2500.57714950479
-0.179818873004525,2500.58714950479
-0.149592323167612,2500.59714950479
-0.106551367680185,2500.60714950479
-0.0512479137548108,2500.61714950479
0.0115041899837575,2500.62714950479
0.0778049815123617,2500.63714950479
0.142123237727682,2500.64714950479
0.201352007849928,2500.65714950479
0.251780612730227,2500.66714950479
0.291256860439192,2500.67714950479
0.31990368092038,2500.68714950479
0.33701287236889,2500.69714950479
0.344652169134171,2500.70714950479
0.344090990248245,2500.71714950479
0.336449034066323,2500.72714950479
0.324283316999171,2500.73714950479
0.308975883117411,2500.74714950479
0.291821519652732,2500.75714950479
0.274179268110672,2500.76714950479
0.256743732092333,2500.77714950479
0.239959700174262,2500.78714950479
0.224214979070373,2500.79714950479
0.209917358888009,2500.80714950479
0.196875648125584,2500.81714950479
0.184335889229094,2500.82714950479
0.170922095584424,2500.83714950479
0.157361180964387,2500.84714950479
0.143175687688514,2500.85714950479
0.129330828187899,2500.86714950479
0.115352797216061,2500.87714950479
0.10302264246669,2500.88714950479
0.0922894246670179,2500.89714950479
0.0848500367286322,2500.90714950479
0.0802824695132095,2500.91714950479
0.078409540314367,2500.92714950479
0.0782869356659957,2500.93714950479
0.0796448569310167,2500.94714950479
0.0817138711863646,2500.95714950479
0.0846813782326911,2500.96714950479
0.0875983660100787,2500.97714950479
0.0903072356696055,2500.98714950479
0.0917178355487915,2500.99714950479
0.0917242841194782,2501.00714950479
0.0903065972499663,2501.01714950479
0.0878179328843241,2501.02714950479
0.0841568650546419,2501.03714950479
0.0789887771161963,2501.04714950479
0.0724356102968075,2501.05714950479
0.0646395901807562,2501.06714950479
0.0567872740782055,2501.07714950479
0.0479012775763178,2501.08714950479
0.0394100995785307,2501.09714950479
0.031184778150607,2501.10714950479
0.0221623101871083,2501.11714950479
0.0129628292394295,2501.12714950479
0.0032846873047393,2501.13714950479
-0.00644579956081674,2501.14714950479
-0.0167071075865444,2501.15714950479
-0.0264874471485045,2501.16714950479
-0.0353039140318688,2501.17714950479
-0.043957658716283,2501.18714950479
-0.0527418990762446,2501.19714950479
-0.0609938121375149,2501.20714950479
-0.0694249297882437,2501.21714950479
-0.0771630015898132,2501.22714950479
-0.0845552640789633,2501.23714950479
-0.0910155678677175,2501.24714950479
-0.0972595790271789,2501.25714950479
-0.103134858728889,2501.26714950479
-0.108316437133212,2501.27714950479
-0.11417769511658,2501.28714950479
-0.119800658344617,2501.29714950479
-0.125920648596376,2501.30714950479
-0.131912370625979,2501.31714950479
-0.138297957601308,2501.32714950479
-0.144625307919245,2501.33714950479
-0.151197977965048,2501.34714950479
-0.156883525023716,2501.35714950479
-0.162639997828606,2501.36714950479
-0.168250761143795,2501.37714950479
-0.173850375769661,2501.38714950479
-0.179430567962615,2501.39714950479
-0.185650374937076,2501.40714950479
-0.19184117850974,2501.41714950479
-0.198123658955065,2501.42714950479
-0.204465455658396,2501.43714950479
-0.210759457714878,2501.44714950479
-0.216541469988165,2501.45714950479
-0.219607297767398,2501.46714950479
-0.218079806077998,2501.47714950479
-0.209004268584561,2501.48714950479
-0.189842443542901,2501.49714950479
-0.158573253062661,2501.50714950479
-0.115609918063961,2501.51714950479
-0.0622897778046895,2501.52714950479
-0.00240612671657737,2501.53714950479
0.0596491948652649,2501.54714950479
0.119860332847182,2501.55714950479
0.175328184335981,2501.56714950479
0.222925415354652,2501.57714950479
0.261178924760235,2501.58714950479
0.288717356553336,2501.59714950479
0.30640582613102,2501.60714950479
0.315036084221358,2501.61714950479
0.31610400272483,2501.62714950479
0.311049329542421,2501.63714950479
0.302395989964326,2501.64714950479
0.290315189241898,2501.65714950479
0.276688057255711,2501.66714950479
0.26313280272921,2501.67714950479
0.250256130532118,2501.68714950479
0.237890736622579,2501.69714950479
0.226728792420968,2501.70714950479
0.216884697467148,2501.71714950479
0.208222137811026,2501.72714950479
0.200085856953646,2501.73714950479
0.192651971058926,2501.74714950479
0.184878057034841,2501.75714950479
0.17640995491582,2501.76714950479
0.166522822769647,2501.77714950479
0.155447812980921,2501.78714950479
0.143681596952938,2501.79714950479
0.132027517917338,2501.80714950479
0.120509480794757,2501.81714950479
0.110406102296249,2501.82714950479
0.10119955732486,2501.83714950479
0.0932502056387583,2501.84714950479
0.0860187483173635,2501.85714950479
0.0801215101252955,2501.86714950479
0.0756730273273788,2501.87714950479
0.0720529629889104,2501.88714950479
0.0703202137414167,2501.89714950479
0.0692051668833226,2501.90714950479
0.0677364644268263,2501.91714950479
0.0657769846112863,2501.92714950479
0.0624643472952096,2501.93714950479
0.058473590410268,2501.94714950479
0.0535882203854476,2501.95714950479
0.047914647590294,2501.96714950479
0.0416378660802159,2501.97714950479
0.0338129635323445,2501.98714950479
0.0252962336149177,2501.99714950479
0.0156838012437131,2502.00714950479
0.00537489332113061,2502.01714950479
-0.00568155257128385,2502.02714950479
-0.0173909169655092,2502.03714950479
-0.0286619642673555,2502.04714950479
-0.0394976718035879,2502.05714950479
-0.0496482399027822,2502.06714950479
-0.0597030904687889,2502.07714950479
-0.0692599693195195,2502.08714950479
-0.0791623387169696,2502.09714950479
-0.0886225926285017,2502.10714950479
-0.0978605568227036,2502.11714950479
-0.106977826219174,2502.12714950479
-0.116496213093927,2502.13714950479
-0.125886814317755,2502.14714950479
-0.134635237518864,2502.15714950479
-0.143046139703933,2502.16714950479
-0.150786930496243,2502.17714950479
-0.158504209874738,2502.18714950479
-0.165942573436308,2502.19714950479
-0.173596432506393,2502.20714950479
-0.18122832907525,2502.21714950479
-0.188446207045391,2502.22714950479
-0.195651880560366,2502.23714950479
-0.202136806970332,2502.24714950479
-0.208018172458834,2502.25714950479
-0.214128631795564,2502.26714950479
-0.220009855030919,2502.27714950479
-0.225514504083246,2502.28714950479
-0.231088334330863,2502.29714950479
-0.236867253604777,2502.30714950479
-0.24270579272149,2502.31714950479
-0.248347698160247,2502.32714950479
-0.253946774917424,2502.33714950479
-0.259572547756443,2502.34714950479
-0.264971669368345,2502.35714950479
-0.270140773554015,2502.36714950479
-0.27581840501153,2502.37714950479
-0.281541118303101,2502.38714950479
-0.287689621451995,2502.39714950479
-0.294444375325612,2502.40714950479
-0.30068223394828,2502.41714950479
-0.305799853287498,2502.42714950479
-0.308369175703724,2502.43714950479
-0.306276780521856,2502.44714950479
-0.296998335690064,2502.45714950479
-0.278174740376259,2502.46714950479
-0.248637119044113,2502.47714950479
-0.209048517647716,2502.48714950479
-0.160950879622913,2502.49714950479
-0.107254713641711,2502.50714950479
-0.0511954834756996,2502.51714950479
0.00330940690125547,2502.52714950479
0.0527775611522115,2502.53714950479
0.0954763979427506,2502.54714950479
0.129194055521671,2502.55714950479
0.154291467991984,2502.56714950479
0.17024710766124,2502.57714950479
0.178281794859394,2502.58714950479
0.179846699504772,2502.59714950479
0.176510359553358,2502.60714950479
0.169526173021792,2502.61714950479
0.16092668620813,2502.62714950479
0.150729897474099,2502.63714950479
0.140292924834473,2502.64714950479
0.129689797191301,2502.65714950479
0.119173771840285,2502.66714950479
0.108999407979697,2502.67714950479
0.099512703043141,2502.68714950479
0.0908403868400631,2502.69714950479
0.0821924168992899,2502.70714950479
0.0741433479717426,2502.71714950479
0.065302090513655,2502.72714950479
0.0555873673436327,2502.73714950479
0.0451056608635688,2502.74714950479
0.0344381695625906,2502.75714950479
0.0229055421843699,2502.76714950479
0.0112062705766463,2502.77714950479
-4.28406994232191e-05,2502.78714950479
-0.0100216891254099,2502.79714950479
-0.0184894801285348,2502.80714950479
-0.0258908629100063,2502.81714950479
-0.0317584600094315,2502.82714950479
-0.0362445520633208,2502.83714950479
-0.0398601145818979,2502.84714950479
-0.0430789090896538,2502.85714950479
-0.0464783881680841,2502.86714950479
-0.0498580819198316,2502.87714950479
-0.0535840151722398,2502.88714950479
-0.0572159992209322,2502.89714950479
-0.0609165679864865,2502.90714950479
-0.0652988233117799,2502.91714950479
-0.0708549271280784,2502.92714950479
-0.078058036333295,2502.93714950479
-0.0866494329527821,2502.94714950479
-0.0955088991795618,2502.95714950479
-0.104666133512232,2502.96714950479
-0.114186390743966,2502.97714950479
-0.124003802488752,2502.98714950479
-0.134026111344419,2502.99714950479
-0.144181539361699,2503.00714950479
-0.154671555084149,2503.01714950479
-0.165153980407786,2503.02714950479
-0.176497199687985,2503.03714950479
-0.187411901214857,2503.04714950479
-0.198955172756565,2503.05714950479
-0.209924986185957,2503.06714950479
-0.220665223945497,2503.07714950479
-0.231017659767743,2503.08714950479
-0.241232232114943,2503.09714950479
-0.250773479756807,2503.10714950479
-0.260140268174929,2503.11714950479
-0.269486336187448,2503.12714950479
-0.279180872088535,2503.13714950479
-0.289045759609596,2503.14714950479
-0.298439903728263,2503.15714950479
-0.307227266692397,2503.16714950479
-0.315542628428929,2503.17714950479
-0.323445665632272,2503.18714950479
-0.331092467226435,2503.19714950479
-0.338487361048016,2503.20714950479
-0.345279092126501,2503.21714950479
-0.352395080343305,2503.22714950479
-0.359620643947159,2503.23714950479
-0.366875988555893,2503.24714950479
-0.374284490951425,2503.25714950479
-0.381494285748502,2503.26714950479
-0.388210327424609,2503.27714950479
-0.394746347192097,2503.28714950479
-0.400786796035086,2503.29714950479
-0.407083487006505,2503.30714950479
-0.413360501304262,2503.31714950479
-0.420394156375856,2503.32714950479
-0.427274941663728,2503.33714950479
-0.434330641879812,2503.34714950479
-0.441491799978626,2503.35714950479
-0.448869770740053,2503.36714950479
-0.456068421622171,2503.37714950479
-0.462521869733145,2503.38714950479
-0.468807536462905,2503.39714950479
-0.474825218855328,2503.40714950479
-0.481074356574992,2503.41714950479
-0.4872767427172,2503.42714950479
-0.492555294841401,2503.43714950479
-0.494942273118755,2503.44714950479
-0.493528679406084,2503.45714950479
-0.485648225048016,2503.46714950479
-0.470151566856218,2503.47714950479
-0.44605930352893,2503.48714950479
-0.414167423993132,2503.49714950479
-0.37622457631723,2503.50714950479
-0.335216265440041,2503.51714950479
-0.293426962379074,2503.52714950479
-0.254031721180376,2503.53714950479
-0.21866567574105,2503.54714950479
-0.18858293386723,2503.55714950479
-0.164933504798188,2503.56714950479
-0.14765331212139,2503.57714950479
-0.136671058066738,2503.58714950479
-0.13094098212216,2503.59714950479
-0.130005023009993,2503.60714950479
-0.132652226205383,2503.61714950479
-0.137702335904848,2503.62714950479
-0.144542845673699,2503.63714950479
-0.151835412735686,2503.64714950479
-0.159314531168963,2503.65714950479
-0.166868744333108,2503.66714950479
-0.174052878645646,2503.67714950479
-0.181532965861249,2503.68714950479
-0.18886779287254,2503.69714950479
-0.196037463370239,2503.70714950479
-0.20282503774352,2503.71714950479
-0.209976877658141,2503.72714950479
-0.217561432873885,2503.73714950479
-0.226004666501148,2503.74714950479
-0.235472997736065,2503.75714950479
-0.244669191725999,2503.76714950479
-0.254256803368329,2503.77714950479
-0.263043704596861,2503.78714950479
-0.271185875350057,2503.79714950479
-0.277919733502275,2503.80714950479
-0.283292939323932,2503.81714950479
-0.286937307707893,2503.82714950479
-0.289508121646002,2503.83714950479
-0.291367379383349,2503.84714950479
-0.292166028300723,2503.85714950479
-0.292951524186996,2503.86714950479
-0.294240765944815,2503.87714950479
-0.295455623685944,2503.88714950479
-0.297305599599038,2503.89714950479
-0.300321414116341,2503.90714950479
-0.303309753459616,2503.91714950479
-0.307395025768279,2503.92714950479
-0.311465244235713,2503.93714950479
-0.315853398341207,2503.94714950479
-0.321318479939356,2503.95714950479
-0.327346883075874,2503.96714950479
-0.333940057726426,2503.97714950479
-0.340722326954762,2503.98714950479
-0.34763101182552,2503.99714950479
-0.355673857114213,2504.00714950479
-0.363794286458227,2504.01714950479
-0.372461892046027,2504.02714950479
-0.381132597059138,2504.03714950479
-0.390139861617073,2504.04714950479
-0.398880976175676,2504.05714950479
-0.407316135216787,2504.06714950479
-0.415151838741624,2504.07714950479
-0.421718968967556,2504.08714950479
-0.428447187105188,2504.09714950479
-0.435291721826291,2504.10714950479
-0.441816272144515,2504.11714950479
-0.447693960774008,2504.12714950479
-0.453140400742977,2504.13714950479
-0.457876620973705,2504.14714950479
-0.462001407743378,2504.15714950479
-0.46597120198327,2504.16714950479
-0.469979509047938,2504.17714950479
-0.474124060760065,2504.18714950479
-0.478628358352136,2504.19714950479
-0.483069729056795,2504.20714950479
-0.487694973217232,2504.21714950479
-0.492669216348164,2504.22714950479
-0.497393235961141,2504.23714950479
-0.502187191119875,2504.24714950479
-0.506732842842197,2504.25714950479
-0.510702871182779,2504.26714950479
-0.514373089706137,2504.27714950479
-0.518344965287029,2504.28714950479
-0.52252437826536,2504.29714950479
-0.527071674084927,2504.30714950479
-0.530783049212771,2504.31714950479
-0.534751387012458,2504.32714950479
-0.538975688435135,2504.33714950479
-0.543035334932443,2504.34714950479
-0.547215324259069,2504.35714950479
-0.551776184582133,2504.36714950479
-0.555723620863288,2504.37714950479
-0.56025935461609,2504.38714950479
-0.564834242349193,2504.39714950479
-0.569268832757622,2504.40714950479
-0.573116362053495,2504.41714950479
-0.575763251790117,2504.42714950479
-0.57557938816281,2504.43714950479
-0.571646171694666,2504.44714950479
-0.562205602595961,2504.45714950479
-0.546709030354193,2504.46714950479
-0.524871144150497,2504.47714950479
-0.497458734845963,2504.48714950479
-0.466645142509537,2504.49714950479
-0.433783421305751,2504.50714950479
-0.400843125844314,2504.51714950479
-0.369973659028437,2504.52714950479
-0.343186872478542,2504.53714950479
-0.321111361591681,2504.54714950479
-0.305452212020455,2504.55714950479
-0.29457002347073,2504.56714950479
-0.288775732635583,2504.57714950479
-0.286654086555617,2504.58714950479
-0.287359391458565,2504.59714950479
-0.290447895929128,2504.60714950479
-0.294255385755128,2504.61714950479
-0.298350507683669,2504.62714950479
-0.302763683396496,2504.63714950479
-0.30678098620911,2504.64714950479
-0.310144252654874,2504.65714950479
-0.313535123728535,2504.66714950479
-0.317154407710754,2504.67714950479
-0.320448180130411,2504.68714950479
-0.323842405279305,2504.69714950479
-0.327667529286256,2504.70714950479
-0.331311030138361,2504.71714950479
-0.33586677084548,2504.72714950479
-0.34118266095029,2504.73714950479
-0.346814325602857,2504.74714950479
-0.352215650393875,2504.75714950479
-0.356991685285727,2504.76714950479
-0.360830511124181,2504.77714950479
-0.363517869733692,2504.78714950479
-0.365581584177134,2504.79714950479
-0.366778316052828,2504.80714950479
-0.367455375011881,2504.81714950479
-0.367838418594303,2504.82714950479
-0.367757646145428,2504.83714950479
-0.367354243444641,2504.84714950479
-0.366938635578503,2504.85714950479
-0.366435701749009,2504.86714950479
-0.366053357139763,2504.87714950479
-0.366020646451147,2504.88714950479
-0.366289531143102,2504.89714950479
-0.366444161142082,2504.90714950479
-0.366848534421846,2504.91714950479
-0.367990788749439,2504.92714950479
-0.369604263082433,2504.93714950479
-0.371662472798801,2504.94714950479
-0.374650268355284,2504.95714950479
-0.378055642269479,2504.96714950479
-0.381299156892393,2504.97714950479
-0.384970379473453,2504.98714950479
-0.388236878493434,2504.99714950479
-0.391668536810261,2505.00714950479
-0.394218658599286,2505.01714950479
-0.397159545346219,2505.02714950479
-0.399906836190037,2505.03714950479
-0.402704590452126,2505.04714950479
-0.405740754114175,2505.05714950479
-0.408922405100388,2505.06714950479
-0.412135096464134,2505.07714950479
-0.415001582306379,2505.08714950479
-0.417543278587682,2505.09714950479
-0.419607508325309,2505.10714950479
-0.421102660480549,2505.11714950479
-0.422404270983537,2505.12714950479
-0.42373427445052,2505.13714950479
-0.425452228555472,2505.14714950479
-0.427958797432529,2505.15714950479
-0.431016561769686,2505.16714950479
-0.434642753836222,2505.17714950479
-0.438445911388462,2505.18714950479
-0.441407991643826,2505.19714950479
-0.44377089703325,2505.20714950479
-0.445967489919613,2505.21714950479
-0.44781060210873,2505.22714950479
-0.45026838119697,2505.23714950479
-0.452603302078277,2505.24714950479
-0.455454995922988,2505.25714950479
-0.458240637646661,2505.26714950479
-0.460684906994207,2505.27714950479
-0.463416010600537,2505.28714950479
-0.465833393308543,2505.29714950479
-0.468044508929712,2505.30714950479
-0.470477251225829,2505.31714950479
-0.472906272608285,2505.32714950479
-0.476354765006541,2505.33714950479
-0.480066701518871,2505.34714950479
-0.482688519528129,2505.35714950479
-0.484094773178456,2505.36714950479
-0.483169044718055,2505.37714950479
-0.477881318626305,2505.38714950479
-0.46722977670502,2505.39714950479
-0.451394180786989,2505.40714950479
-0.430061272346669,2505.41714950479
-0.404419240201984,2505.42714950479
-0.375784826675248,2505.43714950479
-0.346557045571416,2505.44714950479
-0.318093674998872,2505.45714950479
-0.291902085683666,2505.46714950479
-0.268802390524544,2505.47714950479
-0.249493087263187,2505.48714950479
-0.234583860140306,2505.49714950479
-0.223442482179947,2505.50714950479
-0.21627457912049,2505.51714950479
-0.212667108052583,2505.52714950479
-0.211432203039068,2505.53714950479
-0.211340993526541,2505.54714950479
-0.212442550927068,2505.55714950479
-0.213896989212564,2505.56714950479
-0.21606406272494,2505.57714950479
-0.218530986154418,2505.58714950479
-0.220740390730405,2505.59714950479
-0.222239711777022,2505.60714950479
-0.223627524364696,2505.61714950479
-0.223995998832099,2505.62714950479
-0.224000787466922,2505.63714950479
-0.223835299306273,2505.64714950479
-0.224423233580559,2505.65714950479
-0.22622765957671,2505.66714950479
-0.229167870452784,2505.67714950479
-0.233422321792081,2505.68714950479
-0.238076113574121,2505.69714950479
-0.243387248329681,2505.70714950479
-0.248620989622447,2505.71714950479
-0.253451491544342,2505.72714950479
-0.257294298380753,2505.73714950479
-0.260183078668919,2505.74714950479
-0.262092018529846,2505.75714950479
-0.263116834779208,2505.76714950479
-0.263232285035816,2505.77714950479
-0.263003832694252,2505.78714950479
-0.262481046453048,2505.79714950479
-0.261836594069518,2505.80714950479
-0.262162484246678,2505.81714950479
-0.262591948502802,2505.82714950479
-0.264421076715474,2505.83714950479
-0.2672028232271,2505.84714950479
-0.270611080030169,2505.85714950479
-0.274235717295346,2505.86714950479
-0.277590684322599,2505.87714950479
-0.281637413782638,2505.88714950479
-0.285533734267257,2505.89714950479
-0.289777312552779,2505.90714950479
-0.294494262518267,2505.91714950479
-0.299180752623061,2505.92714950479
-0.304087892497158,2505.93714950479
-0.308891786729595,2505.94714950479
-0.313655359466762,2505.95714950479
-0.318411687973495,2505.96714950479
-0.322764874407748,2505.97714950479
-0.327373075753158,2505.98714950479
-0.332048052691869,2505.99714950479
-0.336701497133875,2506.00714950479
-0.341136036929731,2506.01714950479
-0.345216572421054,2506.02714950479
-0.348779288055022,2506.03714950479
-0.352753429493624,2506.04714950479
-0.356388493652976,2506.05714950479
-0.360171521166324,2506.06714950479
-0.363616644169574,2506.07714950479
-0.36686360005654,2506.08714950479
-0.369603914799411,2506.09714950479
-0.371959525820741,2506.10714950479
-0.374606821293102,2506.11714950479
-0.377412624754094,2506.12714950479
-0.380604550919452,2506.13714950479
-0.383801367529649,2506.14714950479
-0.386817645870844,2506.15714950479
-0.389532707474284,2506.16714950479
-0.392038373664073,2506.17714950479
-0.394454130772302,2506.18714950479
-0.396414479021023,2506.19714950479
-0.398732052715815,2506.20714950479
-0.40115768979514,2506.21714950479
-0.403600591331966,2506.22714950479
-0.406071465531038,2506.23714950479
-0.408392641890503,2506.24714950479
-0.410406957783845,2506.25714950479
-0.412569412245178,2506.26714950479
-0.414437678320132,2506.27714950479
-0.41638354033631,2506.28714950479
-0.417970450194687,2506.29714950479
-0.419412732269468,2506.30714950479
-0.421274263570097,2506.31714950479
-0.422936388216326,2506.32714950479
-0.424556310891343,2506.33714950479
-0.426274887687484,2506.34714950479
-0.427945202380089,2506.35714950479
-0.42938428587524,2506.36714950479
-0.431301823743546,2506.37714950479
-0.433317514212843,2506.38714950479
-0.436089211293292,2506.39714950479
-0.438708664279154,2506.40714950479
-0.440921456084461,2506.41714950479
-0.442044573060343,2506.42714950479
-0.441507920520934,2506.43714950479
-0.438379583821551,2506.44714950479
-0.431253688477685,2506.45714950479
-0.41955190433404,2506.46714950479
-0.402159009651735,2506.47714950479
-0.379003525065796,2506.48714950479
-0.351100766258633,2506.49714950479
-0.320327127472143,2506.50714950479
-0.288151912801969,2506.51714950479
-0.25691387037048,2506.52714950479
-0.228219976582729,2506.53714950479
-0.203731622326962,2506.54714950479
-0.18360001084512,2506.55714950479
-0.167728347596271,2506.56714950479
-0.156157746829873,2506.57714950479
-0.147597374241955,2506.58714950479
-0.1416253284159,2506.59714950479
-0.138019811872561,2506.60714950479
-0.135908427723261,2506.61714950479
-0.13548485526293,2506.62714950479
-0.135649601464586,2506.63714950479
-0.136140667318532,2506.64714950479
-0.136744143603839,2506.65714950479
-0.137702036854403,2506.66714950479
-0.138503409897223,2506.67714950479
-0.139019911216116,2506.68714950479
-0.139129553001258,2506.69714950479
-0.13934960035916,2506.70714950479
-0.139393460149069,2506.71714950479
-0.140433553702968,2506.72714950479
-0.142374848737408,2506.73714950479
-0.145313829314986,2506.74714950479
-0.149532536434017,2506.75714950479
-0.153668560601089,2506.76714950479
-0.15818605354109,2506.77714950479
-0.161994654279983,2506.78714950479
-0.164945729795691,2506.79714950479
-0.167462480626593,2506.80714950479
-0.170077389585664,2506.81714950479
-0.172264640775258,2506.82714950479
-0.174379525669691,2506.83714950479
-0.176279276316835,2506.84714950479
-0.178112115212087,2506.85714950479
-0.179401624727519,2506.86714950479
-0.181357242504136,2506.87714950479
-0.182762258972138,2506.88714950479
-0.18379710535903,2506.89714950479
-0.185533827273255,2506.90714950479
-0.18739773071686,2506.91714950479
-0.190024663633746,2506.92714950479
-0.192973384253465,2506.93714950479
-0.196392740695702,2506.94714950479
-0.199949619671091,2506.95714950479
-0.204071947193316,2506.96714950479
-0.208207167125827,2506.97714950479
-0.21315984756639,2506.98714950479
-0.218573129875923,2506.99714950479
-0.224021817013401,2507.00714950479
-0.229415948962653,2507.01714950479
-0.234328225969993,2507.02714950479
-0.238871135388688,2507.03714950479
-0.243226113056708,2507.04714950479
-0.247841858717948,2507.05714950479
-0.2529545430826,2507.06714950479
-0.258486197494107,2507.07714950479
-0.264207959632732,2507.08714950479
-0.2693693752491,2507.09714950479
-0.274397516975216,2507.10714950479
-0.278307483194957,2507.11714950479
-0.281694258574746,2507.12714950479
-0.28513633407196,2507.13714950479
-0.288467283433651,2507.14714950479
-0.292300859316809,2507.15714950479
-0.295916682359088,2507.16714950479
-0.299530417141384,2507.17714950479
-0.302873187665952,2507.18714950479
-0.305843507758242,2507.19714950479
-0.309257501653036,2507.20714950479
-0.312366604617835,2507.21714950479
-0.315937480143187,2507.22714950479
-0.319036158636735,2507.23714950479
-0.322210371033777,2507.24714950479
-0.324716073102973,2507.25714950479
-0.326899899015734,2507.26714950479
-0.329671565712394,2507.27714950479
-0.331293872496558,2507.28714950479
-0.333327258400162,2507.29714950479
-0.335078887864284,2507.30714950479
-0.336682695890436,2507.31714950479
-0.338662970080854,2507.32714950479
-0.340306338945428,2507.33714950479
-0.342286220591471,2507.34714950479
-0.344884964691456,2507.35714950479
-0.347740031106426,2507.36714950479
-0.351192864182951,2507.37714950479
-0.35395224142717,2507.38714950479
-0.356835648044408,2507.39714950479
-0.359763478654629,2507.40714950479
-0.362581621176142,2507.41714950479
-0.36510177458286,2507.42714950479
-0.367708916201469,2507.43714950479
-0.369988440423889,2507.44714950479
-0.371971053728529,2507.45714950479
-0.374333750659215,2507.46714950479
-0.375976853263408,2507.47714950479
-0.377346307365157,2507.48714950479
-0.378118396126552,2507.49714950479
-0.378580196849644,2507.50714950479
-0.377811798415991,2507.51714950479
-0.374747037627975,2507.52714950479
-0.36790093559871,2507.53714950479
-0.35588769522547,2507.54714950479
-0.337826274234658,2507.55714950479
-0.313673662690573,2507.56714950479
-0.284486131956709,2507.57714950479
-0.251164424739239,2507.58714950479
-0.216117158531981,2507.59714950479
-0.181604636273404,2507.60714950479
-0.149666718359772,2507.61714950479
-0.121242057621529,2507.62714950479
-0.0974473808136144,2507.63714950479
-0.0786176540498452,2507.64714950479
-0.0645194363466051,2507.65714950479
-0.0551043014206648,2507.66714950479
-0.0495752123523153,2507.67714950479
-0.0473341475101083,2507.68714950479
-0.0471449979424533,2507.69714950479
-0.0484304153505561,2507.70714950479
-0.0496826806417744,2507.71714950479
-0.0512890371292416,2507.72714950479
-0.0532246497380601,2507.73714950479
-0.0546467903352661,2507.74714950479
-0.0561041137331796,2507.75714950479
-0.0576151206774155,2507.76714950479
-0.0595423130396547,2507.77714950479
-0.0616151380046436,2507.78714950479
-0.0644372324883715,2507.79714950479
-0.0678316452070886,2507.80714950479
-0.0715108483741984,2507.81714950479
-0.0761986887200032,2507.82714950479
-0.0816448934248849,2507.83714950479
-0.0868451707671391,2507.84714950479
-0.091618221782245,2507.85714950479
-0.0949056881404374,2507.86714950479
-0.0969183466480655,2507.87714950479
-0.0974700787355608,2507.88714950479
-0.0970253353763101,2507.89714950479
-0.0958248686086698,2507.90714950479
-0.0942486543101094,2507.91714950479
-0.0920674842655106,2507.92714950479
-0.089476587129358,2507.93714950479
-0.0869393133776414,2507.94714950479
-0.0841416140468527,2507.95714950479
-0.081267011608502,2507.96714950479
-0.0799052262819629,2507.97714950479
-0.0784623149824787,2507.98714950479
-0.0787362097082513,2507.99714950479
-0.0797933742201995,2508.00714950479
-0.0811639541358401,2508.01714950479
-0.0828484591342165,2508.02714950479
-0.085254287238638,2508.03714950479
-0.0880742913369627,2508.04714950479
-0.0915130545021472,2508.05714950479
-0.0952038831504703,2508.06714950479
-0.0987870706274483,2508.07714950479
-0.101907822975378,2508.08714950479
-0.103941023107036,2508.09714950479
-0.105372187577592,2508.10714950479
-0.107117900896521,2508.11714950479
-0.109335479481532,2508.12714950479
-0.112533517126719,2508.13714950479
-0.116056028916694,2508.14714950479
-0.12033889857798,2508.15714950479
-0.124499137564949,2508.16714950479
-0.12811023664566,2508.17714950479
-0.131213528003902,2508.18714950479
-0.134226508270062,2508.19714950479
-0.137239219606163,2508.20714950479
-0.139636732921625,2508.21714950479
-0.142613901931723,2508.22714950479
-0.144563792345149,2508.23714950479
-0.146607900398445,2508.24714950479
-0.148185223039352,2508.25714950479
-0.149387705459605,2508.26714950479
-0.150730028049097,2508.27714950479
-0.151795420231867,2508.28714950479
-0.153117129198982,2508.29714950479
-0.154645230542238,2508.30714950479
-0.157290236580468,2508.31714950479
-0.159765507996423,2508.32714950479
-0.16284468253079,2508.33714950479
-0.166576492994086,2508.34714950479
-0.169861176505813,2508.35714950479
-0.173319294347878,2508.36714950479
-0.177174299300339,2508.37714950479
-0.181025985608038,2508.38714950479
-0.185215279142757,2508.39714950479
-0.188843680677104,2508.40714950479
-0.191947414977531,2508.41714950479
-0.194326920772926,2508.42714950479
-0.196358951926144,2508.43714950479
-0.198385183747966,2508.44714950479
-0.200262868460852,2508.45714950479
-0.202299141744228,2508.46714950479
-0.203931364727584,2508.47714950479
-0.204943200504195,2508.48714950479
-0.205465855097102,2508.49714950479
-0.204915171756549,2508.50714950479
-0.202619142829746,2508.51714950479
-0.197472089346314,2508.52714950479
-0.187944823549968,2508.53714950479
-0.171546587330205,2508.54714950479
-0.148563358842673,2508.55714950479
-0.118682581015196,2508.56714950479
-0.0831063172366378,2508.57714950479
-0.0439263006306287,2508.58714950479
-0.00385374074642746,2508.59714950479
0.0350417547722135,2508.60714950479
0.0709026853525117,2508.61714950479
0.102328987758106,2508.62714950479
0.128808072139232,2508.63714950479
0.149875407873726,2508.64714950479
0.165415281627405,2508.65714950479
0.175665650516252,2508.66714950479
0.181721697767636,2508.67714950479
0.18375993223259,2508.68714950479
0.183455675469192,2508.69714950479
0.18121585589361,2508.70714950479
0.178132063813267,2508.71714950479
0.1745552814636,2508.72714950479
0.170300434574059,2508.73714950479
0.166538562836109,2508.74714950479
0.162948961719653,2508.75714950479
0.15916692159603,2508.76714950479
0.155041314210497,2508.77714950479
0.150782088512248,2508.78714950479
0.146370884915164,2508.79714950479
0.141804307418485,2508.80714950479
0.136874305164676,2508.81714950479
0.131291110269326,2508.82714950479
0.125376713344342,2508.83714950479
0.11949411738994,2508.84714950479
0.113995772365966,2508.85714950479
0.11031300792509,2508.86714950479
0.108551265398143,2508.87714950479
0.108423099711169,2508.88714950479
0.109354216097343,2508.89714950479
0.11119572112025,2508.90714950479
0.113708472242163,2508.91714950479
0.117114186837349,2508.92714950479
0.120744642972975,2508.93714950479
0.124232971167484,2508.94714950479
0.127259398687338,2508.95714950479
0.129951183706321,2508.96714950479
0.131781223544178,2508.97714950479
0.132456453077733,2508.98714950479
0.132102974000451,2508.99714950479
0.130606547636527,2509.00714950479
0.128877972110428,2509.01714950479
0.12685957627812,2509.02714950479
0.124283574126161,2509.03714950479
0.121359914014509,2509.04714950479
0.117867717521852,2509.05714950479
0.113866031116704,2509.06714950479
0.110045360440063,2509.07714950479
0.106514644729059,2509.08714950479
0.103386587276714,2509.09714950479
0.10046359598368,2509.10714950479
0.0982141978972194,2509.11714950479
0.0955619378905121,2509.12714950479
0.0926550163140988,2509.13714950479
0.089664083896483,2509.14714950479
0.0856103492799023,2509.15714950479
0.0820759476619371,2509.16714950479
0.0780984532455687,2509.17714950479
0.0743444398444562,2509.18714950479
0.0705671014958573,2509.19714950479
0.0672320803830264,2509.20714950479
0.0646274229638198,2509.21714950479
0.0620903221292006,2509.22714950479
0.0599508868498484,2509.23714950479
0.0579090450490863,2509.24714950479
0.0554525865354001,2509.25714950479
0.0524152095909987,2509.26714950479
0.0488936517349913,2509.27714950479
0.044472028036067,2509.28714950479
0.0401408815337806,2509.29714950479
0.0358887413974473,2509.30714950479
0.0318196448530252,2509.31714950479
0.0284842871443723,2509.32714950479
0.0249767333495772,2509.33714950479
0.021202585480168,2509.34714950479
0.0172016569634852,2509.35714950479
0.0133254564316855,2509.36714950479
0.00977701657143487,2509.37714950479
0.0057998947840958,2509.38714950479
0.00143758326144996,2509.39714950479
-0.00263558949674101,2509.40714950479
-0.00693116917277144,2509.41714950479
-0.0105627010022984,2509.42714950479
-0.0138257892411823,2509.43714950479
-0.0163866637706163,2509.44714950479
-0.0192320278376921,2509.45714950479
-0.0224454873153151,2509.46714950479
-0.0259931376386797,2509.47714950479
-0.0300165720281875,2509.48714950479
-0.0344284912063881,2509.49714950479
-0.0390520487114458,2509.50714950479
-0.0428599713466257,2509.51714950479
-0.0454161422947587,2509.52714950479
-0.0448365274811562,2509.53714950479
-0.0390120819537281,2509.54714950479
-0.0270169223214614,2509.55714950479
-0.00699849541641811,2509.56714950479
0.0213117188115541,2509.57714950479
0.0572249580209371,2509.58714950479
0.0994995679265155,2509.59714950479
0.146051728419699,2509.60714950479
0.194339932484725,2509.61714950479
0.242000878226047,2509.62714950479
0.285938755389434,2509.63714950479
0.32518160520183,2509.64714950479
0.357467974151112,2509.65714950479
0.382100530724433,2509.66714950479
0.399734498817314,2509.67714950479
0.410631154229958,2509.68714950479
0.415875295195876,2509.69714950479
0.416287487330755,2509.70714950479
0.413635052577418,2509.71714950479
0.408796912469907,2509.72714950479
0.402627957709821,2509.73714950479
0.396567593077773,2509.74714950479
0.390483454090583,2509.75714950479
0.384709131924652,2509.76714950479
0.380427771302754,2509.77714950479
0.376154816342021,2509.78714950479
0.372858028815879,2509.79714950479
0.369414658496812,2509.80714950479
0.365619791189379,2509.81714950479
0.361011523195204,2509.82714950479
0.355495165891976,2509.83714950479
0.348355378282339,2509.84714950479
0.340631776480305,2509.85714950479
0.332233721249458,2509.86714950479
0.324018165928967,2509.87714950479
0.316847793355634,2509.88714950479
0.310653558423284,2509.89714950479
0.305057746687686,2509.90714950479
0.299986699857849,2509.91714950479
0.295965328040683,2509.92714950479
0.292740780116426,2509.93714950479
0.29058126410167,2509.94714950479
0.288683493592865,2509.95714950479
0.287902909443247,2509.96714950479
0.287398205930919,2509.97714950479
0.287111676540797,2509.98714950479
0.286966996636249,2509.99714950479
0.285490753471907,2510.00714950479
0.282799459125631,2510.01714950479
0.279126937127475,2510.02714950479
0.274733344093324,2510.03714950479
0.269106157417121,2510.04714950479
0.263096828239057,2510.05714950479
0.255981089887042,2510.06714950479
0.248407445702557,2510.07714950479
0.240852777924508,2510.08714950479
0.232772559443513,2510.09714950479
0.225338517287615,2510.10714950479
0.217456517317369,2510.11714950479
0.209376031612286,2510.12714950479
0.201027161906268,2510.13714950479
0.192444689385253,2510.14714950479
0.183918903970561,2510.15714950479
0.175679621982236,2510.16714950479
0.167414516233143,2510.17714950479
0.159477271984795,2510.18714950479
0.151451321321064,2510.19714950479
0.14376774484531,2510.20714950479
0.136312680912287,2510.21714950479
0.128991137155373,2510.22714950479
0.122541548155572,2510.23714950479
0.116245936594214,2510.24714950479
0.109833808054486,2510.25714950479
0.104245967521472,2510.26714950479
0.0985142610237256,2510.27714950479
0.093077990491293,2510.28714950479
0.0878556657514891,2510.29714950479
0.0829214578720182,2510.30714950479
0.0778869948589005,2510.31714950479
0.0727109806654022,2510.32714950479
0.0678897210591266,2510.33714950479
0.062839065176288,2510.34714950479
0.0580731410989088,2510.35714950479
0.0529429288864371,2510.36714950479
0.04771679734326,2510.37714950479
0.0424354648019123,2510.38714950479
0.037672954857806,2510.39714950479
0.0325159433383935,2510.40714950479
0.0278046883596081,2510.41714950479
0.0230829120743293,2510.42714950479
0.0189134232478967,2510.43714950479
0.0143268982757003,2510.44714950479
0.00963043343599375,2510.45714950479
0.00466381741934266,2510.46714950479
-0.000377099223344779,2510.47714950479
-0.00568170027175297,2510.48714950479
-0.0108651180119595,2510.49714950479
-0.016440169601785,2510.50714950479
-0.0213868034117803,2510.51714950479
-0.0262518181027652,2510.52714950479
-0.0313109572598732,2510.53714950479
-0.0361294705906555,2510.54714950479
-0.0408365132108305,2510.55714950479
-0.0453993576783789,2510.56714950479
-0.0500713784913463,2510.57714950479
-0.0552564441831692,2510.58714950479
-0.0603802634727156,2510.59714950479
-0.0654543418896482,2510.60714950479
-0.0697411672430989,2510.61714950479
-0.0716009411736396,2510.62714950479
-0.0704801485988117,2510.63714950479
-0.0638145680007467,2510.64714950479
-0.0495161511188191,2510.65714950479
-0.0265278983248431,2510.66714950479
0.00554729319039918,2510.67714950479
0.0452611020561577,2510.68714950479
0.0898420581489539,2510.69714950479
0.137239134203786,2510.70714950479
0.184040211451749,2510.71714950479
0.227794323779577,2510.72714950479
0.266145330102633,2510.73714950479
0.297350334155568,2510.74714950479
0.320909621764575,2510.75714950479
0.33695882905465,2510.76714950479
0.345899030838542,2510.77714950479
0.349257278713579,2510.78714950479
0.348281973809633,2510.79714950479
0.343495563671863,2510.80714950479
0.336536635189349,2510.81714950479
0.328353734406028,2510.82714950479
0.319065222253029,2510.83714950479
0.309657907845644,2510.84714950479
0.300351144965954,2510.85714950479
0.291423360184813,2510.86714950479
0.283137323853128,2510.87714950479
0.275552145841085,2510.88714950479
0.26874501179291,2510.89714950479
0.262351017872036,2510.90714950479
0.255876149699577,2510.91714950479
0.249306085248303,2510.92714950479
0.242241504001914,2510.93714950479
0.234355486967837,2510.94714950479
0.225485209931622,2510.95714950479
0.216450445121315,2510.96714950479
0.207314173744428,2510.97714950479
0.198354540825223,2510.98714950479
0.190272731111159,2510.99714950479
0.183421936189113,2511.00714950479
0.177412800010065,2511.01714950479
0.172315964588181,2511.02714950479
0.168485526231953,2511.03714950479
0.165200465130314,2511.04714950479
0.162396549866759,2511.05714950479
0.159898003665024,2511.06714950479
0.158341098741882,2511.07714950479
0.156118398500323,2511.08714950479
0.152881941199496,2511.09714950479
0.149027114710109,2511.10714950479
0.144703527588802,2511.11714950479
0.139347115792313,2511.12714950479
0.133142719810183,2511.13714950479
0.126315339513488,2511.14714950479
0.118685249392607,2511.15714950479
0.110891155083551,2511.16714950479
0.102372935309969,2511.17714950479
0.0938629558404831,2511.18714950479
0.0845772636796134,2511.19714950479
0.0759142909336685,2511.20714950479
0.0668322103553282,2511.21714950479
0.0579662715304457,2511.22714950479
0.0490750526049054,2511.23714950479
0.0403559746118314,2511.24714950479
0.0315505598759126,2511.25714950479
0.0233162821589773,2511.26714950479
0.0145771794760446,2511.27714950479
0.0056913393223655,2511.28714950479
-0.00325502815278791,2511.29714950479
-0.0127198738022216,2511.30714950479
-0.0218145726530214,2511.31714950479
-0.0298638610304444,2511.32714950479
-0.0375299025287192,2511.33714950479
-0.0449849788460807,2511.34714950479
-0.052229890972778,2511.35714950479
-0.0592704086505948,2511.36714950479
-0.0658028371726629,2511.37714950479
-0.0719749319325029,2511.38714950479
-0.0781916751945623,2511.39714950479
-0.0838647186284823,2511.40714950479
-0.0894125693690613,2511.41714950479
-0.0951380816836981,2511.42714950479
-0.100374947523575,2511.43714950479
-0.105279807256333,2511.44714950479
-0.109603625947133,2511.45714950479
-0.114218141937377,2511.46714950479
-0.119120679151626,2511.47714950479
-0.124090810678199,2511.48714950479
-0.129388030206977,2511.49714950479
-0.135075674739264,2511.50714950479
-0.140461934584283,2511.51714950479
-0.145555686039243,2511.52714950479
-0.15050111194758,2511.53714950479
-0.154936014421488,2511.54714950479
-0.159713053069185,2511.55714950479
-0.164463948493475,2511.56714950479
-0.169342333880553,2511.57714950479
-0.174442379896104,2511.58714950479
-0.17949725127346,2511.59714950479
-0.184153592061486,2511.60714950479
-0.188460119477241,2511.61714950479
-0.192645774040015,2511.62714950479
-0.196733667544633,2511.63714950479
-0.201099879782944,2511.64714950479
-0.205823758710214,2511.65714950479
-0.210738206246475,2511.66714950479
-0.215171843413941,2511.67714950479
-0.217594981300075,2511.68714950479
-0.217248172367194,2511.69714950479
-0.212563141145468,2511.70714950479
-0.202164026590962,2511.71714950479
-0.183885436992394,2511.72714950479
-0.158470668440629,2511.73714950479
-0.126158273001195,2511.74714950479
-0.0890017500969902,2511.75714950479
-0.0485285657192822,2511.76714950479
-0.00775782634529403,2511.77714950479
0.0313552012348596,2511.78714950479
0.0665966657238237,2511.79714950479
0.0957740359227851,2511.80714950479
0.118358001880063,2511.81714950479
0.133909291814658,2511.82714950479
0.14365728445533,2511.83714950479
0.147994765129642,2511.84714950479
0.147374107496111,2511.85714950479
0.143719504443889,2511.86714950479
0.137964398132873,2511.87714950479
0.130972406692309,2511.88714950479
0.12344941477242,2511.89714950479
0.116105177054836,2511.90714950479
0.109281811928227,2511.91714950479
0.102966162425312,2511.92714950479
0.0966108842704568,2511.93714950479
0.0904530185683714,2511.94714950479
0.0838843665712377,2511.95714950479
0.0773902248184345,2511.96714950479
0.07070894510737,2511.97714950479
0.0633943757284421,2511.98714950479
0.0560314548017756,2511.99714950479
0.0487029694332127,2512.00714950479
0.0411312516304176,2512.01714950479
0.0330581020370024,2512.02714950479
0.0249830829444119,2512.03714950479
0.0170819544596042,2512.04714950479
0.0101972262211631,2512.05714950479
0.00493873335149737,2512.06714950479
0.00150941084636131,2512.07714950479
-0.000826903929028627,2512.08714950479
-0.00194199384094396,2512.09714950479
-0.00256286584242306,2512.10714950479
-0.00236130926010714,2512.11714950479
-0.00149158620091055,2512.12714950479
-0.000603875200682564,2512.13714950479
-0.000217416786207008,2512.14714950479
-0.00072945449596832,2512.15714950479
-0.00215319481381947,2512.16714950479
-0.0047318226769563,2512.17714950479
-0.00853456540938621,2512.18714950479
-0.0130865079149507,2512.19714950479
-0.0180633635935824,2512.20714950479
-0.0236483688069991,2512.21714950479
-0.0290543733193594,2512.22714950479
-0.0346111056617312,2512.23714950479
-0.0399608270687164,2512.24714950479
-0.0457675354761159,2512.25714950479
-0.0522511464967992,2512.26714950479
-0.0592489368235704,2512.27714950479
-0.0659824453151178,2512.28714950479
-0.072249529779383,2512.29714950479
-0.0769264662917973,2512.30714950479
-0.0818805981794773,2512.31714950479
-0.0865568761347479,2512.32714950479
-0.0911102360810762,2512.33714950479
-0.0962081143542298,2512.34714950479
-0.101518160288815,2512.35714950479
-0.106735515688772,2512.36714950479
-0.111705638202674,2512.37714950479
-0.115711336044769,2512.38714950479
-0.119839018497795,2512.39714950479
-0.123311941576287,2512.40714950479
-0.126780085113903,2512.41714950479
-0.130655035604898,2512.42714950479
-0.133893938551091,2512.43714950479
-0.137572130266554,2512.44714950479
-0.140250720626664,2512.45714950479
-0.14318363755379,2512.46714950479
-0.146156513354896,2512.47714950479
-0.149167903434432,2512.48714950479
-0.151785160180102,2512.49714950479
-0.154061822231043,2512.50714950479
-0.156815100494464,2512.51714950479
-0.15956384597622,2512.52714950479
-0.162720089981577,2512.53714950479
-0.165978267756288,2512.54714950479
-0.169149091217441,2512.55714950479
-0.172333414600533,2512.56714950479
-0.175576192095162,2512.57714950479
-0.178408789678565,2512.58714950479
-0.18129816577607,2512.59714950479
-0.18403661092672,2512.60714950479
-0.187188276110028,2512.61714950479
-0.190384733524442,2512.62714950479
-0.19325787056513,2512.63714950479
-0.19623905310026,2512.64714950479
-0.198814541877484,2512.65714950479
-0.201081640510206,2512.66714950479
-0.201883351213226,2512.67714950479
-0.19873529166744,2512.68714950479
-0.191207269330355,2512.69714950479
-0.176452402197244,2512.70714950479
-0.154394672400334,2512.71714950479
-0.124834875230535,2512.72714950479
-0.0893543244749791,2512.73714950479
-0.0503410777751847,2512.74714950479
-0.0110197610048779,2512.75714950479
0.0263284023093248,2512.76714950479
0.05949100622517,2512.77714950479
0.0868585804516493,2512.78714950479
0.108352631082162,2512.79714950479
0.123538139865731,2512.80714950479
0.133005469663477,2512.81714950479
0.138118670445239,2512.82714950479
0.139285508665083,2512.83714950479
0.137379285507812,2512.84714950479
0.133565775331495,2512.85714950479
0.127584496047705,2512.86714950479
0.121017520549753,2512.87714950479
0.114395473897456,2512.88714950479
0.108002112410151,2512.89714950479
0.101949216459823,2512.90714950479
0.0961590386067015,2512.91714950479
0.0899345283859273,2512.92714950479
0.0841758975177196,2512.93714950479
0.0788264356494952,2512.94714950479
0.0730081100773921,2512.95714950479
0.067029182636359,2512.96714950479
0.0607291941318828,2512.97714950479
0.054502854548922,2512.98714950479
0.0482911478699121,2512.99714950479
0.0426656561470494,2513.00714950479
0.0381833038348126,2513.01714950479
0.0354371829281755,2513.02714950479
0.033656011632413,2513.03714950479
0.0330205406007724,2513.04714950479
0.0330871629924401,2513.05714950479
0.0334718518093971,2513.06714950479
0.0340566359771452,2513.07714950479
0.0350851105392295,2513.08714950479
0.0368614648263932,2513.09714950479
0.0380721642317151,2513.10714950479
0.0390987103701691,2513.11714950479
0.0389225575347426,2513.12714950479
0.0375535841334245,2513.13714950479
0.0357398164723138,2513.14714950479
0.0327329039724724,2513.15714950479
0.0292810182455772,2513.16714950479
0.024833281421807,2513.17714950479
0.0199225241677576,2513.18714950479
0.0140533841022093,2513.19714950479
0.00828704736343608,2513.20714950479
0.00239873348196,2513.21714950479
-0.00349109008304537,2513.22714950479
-0.00897684941184095,2513.23714950479
-0.0141893775801264,2513.24714950479
-0.0193225554636897,2513.25714950479
-0.0245514038911989,2513.26714950479
-0.030104631042904,2513.27714950479
-0.0355731930980338,2513.28714950479
-0.0405728923001416,2513.29714950479
-0.0457612489857298,2513.30714950479
-0.0502848461006786,2513.31714950479
-0.0540845546645032,2513.32714950479
-0.0576406998035256,2513.33714950479
-0.0609183791010072,2513.34714950479
-0.0633225194989545,2513.35714950479
-0.0660439665119629,2513.36714950479
-0.0688647179460304,2513.37714950479
-0.0715060008812708,2513.38714950479
-0.0743938640455986,2513.39714950479
-0.0769400282062008,2513.40714950479
-0.0801337892598001,2513.41714950479
-0.0830746710782951,2513.42714950479
-0.0865400234422804,2513.43714950479
-0.0903913850579891,2513.44714950479
-0.0939646390058595,2513.45714950479
-0.0979644126401499,2513.46714950479
-0.101415921000879,2513.47714950479
-0.10510616789754,2513.48714950479
-0.108508973045225,2513.49714950479
-0.111275243654559,2513.50714950479
-0.114459616428842,2513.51714950479
-0.118092731969721,2513.52714950479
-0.121518801116113,2513.53714950479
-0.125666770088188,2513.54714950479
-0.129462356192372,2513.55714950479
-0.133055891086898,2513.56714950479
-0.136334090312896,2513.57714950479
-0.139363797301711,2513.58714950479
-0.142778460255124,2513.59714950479
-0.1456751286313,2513.60714950479
-0.148921840781031,2513.61714950479
-0.151998519729871,2513.62714950479
-0.154727055270177,2513.63714950479
-0.157594558267664,2513.64714950479
-0.159757945533671,2513.65714950479
-0.160230192492091,2513.66714950479
-0.157823960434888,2513.67714950479
-0.150357993960271,2513.68714950479
-0.136566603514359,2513.69714950479
-0.11481686165098,2513.70714950479
-0.0857514052720176,2513.71714950479
-0.0500421445229911,2513.72714950479
-0.0100198739191989,2513.73714950479
0.0320936338686296,2513.74714950479
0.0732720726556583,2513.75714950479
0.111831411094328,2513.76714950479
0.145718384808137,2513.77714950479
0.174257364555086,2513.78714950479
0.196120788799223,2513.79714950479
0.211606159729349,2513.80714950479
0.221358387635646,2513.81714950479
0.226631014059281,2513.82714950479
0.228604543737642,2513.83714950479
0.227570283181528,2513.84714950479
0.224197102820661,2513.85714950479
0.219376335011701,2513.86714950479
0.212960359816451,2513.87714950479
0.206515248705955,2513.88714950479
0.200712504903256,2513.89714950479
0.195840194431146,2513.90714950479
0.191747821083808,2513.91714950479
0.188883920035713,2513.92714950479
0.186251602648306,2513.93714950479
0.183698837602037,2513.94714950479
0.180799399646478,2513.95714950479
0.176479625177487,2513.96714950479
0.170567365782885,2513.97714950479
0.163475325292433,2513.98714950479
0.155727035181525,2513.99714950479
0.147812295166642,2514.00714950479
0.139846465768876,2514.01714950479
0.132700237451134,2514.02714950479
0.126533498565779,2514.03714950479
0.121493767372211,2514.04714950479
0.117300474662476,2514.05714950479
0.114109156130179,2514.06714950479
0.111738885920533,2514.07714950479
0.109338443768119,2514.08714950479
0.107533101092687,2514.09714950479
0.105744689647724,2514.10714950479
0.104309870386553,2514.11714950479
0.103056822309224,2514.12714950479
0.101008357693134,2514.13714950479
0.0985207818881485,2514.14714950479
0.0951158607284659,2514.15714950479
0.0915308663486248,2514.16714950479
0.0870646539303431,2514.17714950479
0.0822235144229073,2514.18714950479
0.0771601671998975,2514.19714950479
0.0714551292193397,2514.20714950479
0.065391550630334,2514.21714950479
0.0588673613248027,2514.22714950479
0.0523409334125173,2514.23714950479
0.0455505404914425,2514.24714950479
0.038611219932435,2514.25714950479
0.0317521511964621,2514.26714950479
0.0248487244384096,2514.27714950479
0.0176721569051062,2514.28714950479
0.0109407489920852,2514.29714950479
0.00452085245270488,2514.30714950479
-0.00171418106429632,2514.31714950479
-0.00810793292356603,2514.32714950479
-0.0148439171914808,2514.33714950479
-0.0223280292311519,2514.34714950479
-0.0288196709321253,2514.35714950479
-0.0348115034316531,2514.36714950479
-0.0405560808336765,2514.37714950479
-0.0454173868513956,2514.38714950479
-0.0498646549421813,2514.39714950479
-0.0535251906021498,2514.40714950479
-0.0572432108601668,2514.41714950479
-0.0611577017118166,2514.42714950479
-0.065175185370525,2514.43714950479
-0.0699661388805051,2514.44714950479
-0.0745383393791532,2514.45714950479
-0.0790407945329024,2514.46714950479
-0.0830175309720517,2514.47714950479
-0.0861108330861182,2514.48714950479
-0.0892423588639884,2514.49714950479
-0.0926086962514394,2514.50714950479
-0.0957363877689233,2514.51714950479
-0.0990110303195791,2514.52714950479
-0.102240632011103,2514.53714950479
-0.105653462110849,2514.54714950479
-0.108882980052239,2514.55714950479
-0.111883922696127,2514.56714950479
-0.115497719206826,2514.57714950479
-0.118866852172022,2514.58714950479
-0.122606131247349,2514.59714950479
-0.12568621028359,2514.60714950479
-0.128567003748276,2514.61714950479
-0.131337772990954,2514.62714950479
-0.134458848623567,2514.63714950479
-0.138053461099849,2514.64714950479
-0.141163818628976,2514.65714950479
-0.144909439450581,2514.66714950479
-0.148184362382827,2514.67714950479
-0.149950602352112,2514.68714950479
-0.14895635613427,2514.69714950479
-0.141989164245141,2514.70714950479
-0.12814922855981,2514.71714950479
-0.105977143943136,2514.72714950479
-0.0751861804023298,2514.73714950479
-0.0370769194708739,2514.74714950479
0.00586225191586765,2514.75714950479
0.0518766137489929,2514.76714950479
0.0983092130500994,2514.77714950479
0.141865315092956,2514.78714950479
0.180871188850383,2514.79714950479
0.213588704496713,2514.80714950479
0.239530170226992,2514.81714950479
0.258354949046472,2514.82714950479
0.271098628841044,2514.83714950479
0.278668574795144,2514.84714950479
0.282088664189986,2514.85714950479
0.282168341865283,2514.86714950479
0.279909610774085,2514.87714950479
0.2751913446988,2514.88714950479
0.268498202593148,2514.89714950479
0.262438541699563,2514.90714950479
0.256766981623995,2514.91714950479
0.252112597316556,2514.92714950479
0.248025376332368,2514.93714950479
0.244402718104921,2514.94714950479
0.240648408289234,2514.95714950479
0.236181333148986,2514.96714950479
0.231241329673102,2514.97714950479
0.225871624974017,2514.98714950479
0.219941691575611,2514.99714950479
0.213110308462823,2515.00714950479
0.205998965021938,2515.01714950479
0.199003934251011,2515.02714950479
0.192107939873912,2515.03714950479
0.185463632614962,2515.04714950479
0.179208670724846,2515.05714950479
0.17361227554533,2515.06714950479
0.169027496106333,2515.07714950479
0.165639755571139,2515.08714950479
0.163449922290276,2515.09714950479
0.161398915468728,2515.10714950479
0.159193189315541,2515.11714950479
0.157067525625973,2515.12714950479
0.154921964213122,2515.13714950479
0.153231011078442,2515.14714950479
0.151156370688527,2515.15714950479
0.149256145376448,2515.16714950479
0.146791979014326,2515.17714950479
0.143467969387045,2515.18714950479
0.139457974225516,2515.19714950479
0.134918450710996,2515.20714950479
0.1295161003128,2515.21714950479
0.123482559776102,2515.22714950479
0.116897924207158,2515.23714950479
0.109943365604169,2515.24714950479
0.102280784771732,2515.25714950479
0.0943100818453046,2515.26714950479
0.0860089712556213,2515.27714950479
0.0776676818992743,2515.28714950479
0.0693914718168588,2515.29714950479
0.0612442233361063,2515.30714950479
0.0533235867052265,2515.31714950479
0.0457976265211182,2515.32714950479
0.0384347469509958,2515.33714950479
0.0314420283549339,2515.34714950479
0.0250529713242993,2515.35714950479
0.019157168076948,2515.36714950479
0.0135266165406212,2515.37714950479
0.00763137555177868,2515.38714950479
0.00185563115428341,2515.39714950479
-0.00360586340456359,2515.40714950479
-0.00957124944971284,2515.41714950479
-0.0151148471478284,2515.42714950479
-0.0204385786718785,2515.43714950479
-0.0255926663131004,2515.44714950479
-0.0310155081013473,2515.45714950479
-0.0360761898786324,2515.46714950479
-0.0405292732395399,2515.47714950479
-0.0446012624872976,2515.48714950479
-0.0479077602628815,2515.49714950479
-0.0512566244558495,2515.50714950479
-0.0551008799974751,2515.51714950479
-0.0590681499228737,2515.52714950479
-0.0630068966267606,2515.53714950479
-0.0674542281190444,2515.54714950479
-0.0717624996528771,2515.55714950479
-0.0761445053620407,2515.56714950479
-0.0808739961230777,2515.57714950479
-0.0854452253096974,2515.58714950479
-0.0899340353943034,2515.59714950479
-0.0944351595102848,2515.60714950479
-0.0985341509167682,2515.61714950479
-0.102431270197354,2515.62714950479
-0.10679631124543,2515.63714950479
-0.110670619882357,2515.64714950479
-0.115175729554221,2515.65714950479
-0.119560244518093,2515.66714950479
-0.123413483676258,2515.67714950479
-0.127494592570306,2515.68714950479
-0.131000199062817,2515.69714950479
-0.133853825279711,2515.70714950479
-0.135500401468144,2515.71714950479
-0.13404058803474,2515.72714950479
-0.127455197836818,2515.73714950479
-0.113803587950987,2515.74714950479
-0.0913805345460912,2515.75714950479
-0.0596576132178828,2515.76714950479
-0.019991012473051,2515.77714950479
0.0255166106432333,2515.78714950479
0.0736061613579735,2515.79714950479
0.121320124079781,2515.80714950479
0.166696528629584,2515.81714950479
0.20745915394929,2515.82714950479
0.241831998259996,2515.83714950479
0.268911136660127,2515.84714950479
0.288809307825063,2515.85714950479
0.302429003049138,2515.86714950479
0.309237204576898,2515.87714950479
0.310990973231782,2515.88714950479
0.308664620687161,2515.89714950479
0.303806243555803,2515.90714950479
0.296955942559516,2515.91714950479
0.289285114762052,2515.92714950479
0.281678926438011,2515.93714950479
0.274003070264202,2515.94714950479
0.266428859815402,2515.95714950479
0.259613579219907,2515.96714950479
0.253059186505671,2515.97714950479
0.246782683655438,2515.98714950479
0.240656277208067,2515.99714950479
0.234292688004656,2516.00714950479
0.227160453076006,2516.01714950479
0.219569427621342,2516.02714950479
0.21137429223052,2516.03714950479
0.203075700351437,2516.04714950479
0.195103057119814,2516.05714950479
0.188107014699049,2516.06714950479
0.182349086737751,2516.07714950479
0.178002381017069,2516.08714950479
0.174950638062141,2516.09714950479
0.173128927193834,2516.10714950479
0.172645705821729,2516.11714950479
0.172684020340201,2516.12714950479
0.173593636769447,2516.13714950479
0.175098787154158,2516.14714950479
0.176720881707272,2516.15714950479
0.178306241343507,2516.16714950479
0.179054329046942,2516.17714950479
0.179246511581716,2516.18714950479
0.178353247311559,2516.19714950479
0.176277170537574,2516.20714950479
0.172835960874197,2516.21714950479
0.168668529139062,2516.22714950479
0.163429573214316,2516.23714950479
0.157771308721485,2516.24714950479
0.151537933081559,2516.25714950479
0.145177480713573,2516.26714950479
0.138246238498775,2516.27714950479
0.131019427301875,2516.28714950479
0.123840195998825,2516.29714950479
0.116370775186473,2516.30714950479
0.109395115656441,2516.31714950479
0.102833514955556,2516.32714950479
0.0965592468901855,2516.33714950479
0.0906942971157547,2516.34714950479
0.0850725561686323,2516.35714950479
0.079747465234672,2516.36714950479
0.0743784861061089,2516.37714950479
0.0694547154318047,2516.38714950479
0.064848036613123,2516.39714950479
0.0602064475305951,2516.40714950479
0.0558208050538406,2516.41714950479
0.0517415187831914,2516.42714950479
0.0476610468959973,2516.43714950479
0.043847589889726,2516.44714950479
0.040487660494219,2516.45714950479
0.0373734525346999,2516.46714950479
0.0349606842721525,2516.47714950479
0.0327262323511681,2516.48714950479
0.0306693840223855,2516.49714950479
0.0284040160217233,2516.50714950479
0.0260863140525263,2516.51714950479
0.0233186399029621,2516.52714950479
0.0207920536202491,2516.53714950479
0.0180981726929634,2516.54714950479
0.0154341418812731,2516.55714950479
0.0119264011471504,2516.56714950479
0.00760050032978905,2516.57714950479
0.00223534184415954,2516.58714950479
-0.00340655592684877,2516.59714950479
-0.00837338651369066,2516.60714950479
-0.0131109436625402,2516.61714950479
-0.0168403378802335,2516.62714950479
-0.0199526229121423,2516.63714950479
-0.0232924843295352,2516.64714950479
-0.026735334673973,2516.65714950479
-0.0304682198820432,2516.66714950479
-0.0342108035893497,2516.67714950479
-0.0378253134739822,2516.68714950479
-0.0412599568404211,2516.69714950479
-0.0449473750332196,2516.70714950479
-0.0469214938168983,2516.71714950479
-0.046552850540659,2516.72714950479
-0.0419253144118695,2516.73714950479
-0.0307655795881274,2516.74714950479
-0.0119900588643123,2516.75714950479
0.0160608031525117,2516.76714950479
0.0535822754323633,2516.77714950479
0.0984178020605739,2516.78714950479
0.148818986365689,2516.79714950479
0.201875622336688,2516.80714950479
0.253481975238899,2516.81714950479
0.30071703846363,2516.82714950479
0.341521818179373,2516.83714950479
0.374430800274335,2516.84714950479
0.398624267997319,2516.85714950479
0.414936255924813,2516.86714950479
0.423957346502224,2516.87714950479
0.426703258353519,2516.88714950479
0.424229235661552,2516.89714950479
0.418441567614058,2516.90714950479
0.409550709728046,2516.91714950479
0.399684634046925,2516.92714950479
0.389786549390448,2516.93714950479
0.380137599130586,2516.94714950479
0.371735215518776,2516.95714950479
0.364412444610533,2516.96714950479
0.357973472257677,2516.97714950479
0.35245638729719,2516.98714950479
0.347334395332098,2516.99714950479
0.342160757816061,2517.00714950479
0.335840650277963,2517.01714950479
0.328210642621631,2517.02714950479
0.319295755640239,2517.03714950479
0.310056647364793,2517.04714950479
0.30152659578995,2517.05714950479
0.293718133436241,2517.06714950479
0.287891382588566,2517.07714950479
0.283994504859077,2517.08714950479
0.28204546474836,2517.09714950479
0.281225318205561,2517.10714950479
0.282020101868408,2517.11714950479
0.283095164858017,2517.12714950479
0.284213468518644,2517.13714950479
0.285843721617959,2517.14714950479
0.287033173435993,2517.15714950479
0.288019264274441,2517.16714950479
0.288467094327159,2517.17714950479
0.288299978522491,2517.18714950479
0.287226514036541,2517.19714950479
0.285488380299367,2517.20714950479
0.282150678308999,2517.21714950479
0.277765620964785,2517.22714950479
0.271992129072888,2517.23714950479
0.265648507186805,2517.24714950479
0.258962202416608,2517.25714950479
0.252386726235756,2517.26714950479
0.245469716831989,2517.27714950479
0.238635107364659,2517.28714950479
0.231183841094078,2517.29714950479
0.224116003398069,2517.30714950479
0.217200121838785,2517.31714950479
0.210272027708304,2517.32714950479
0.20312921425656,2517.33714950479
0.196477817964418,2517.34714950479
0.190297467853169,2517.35714950479
0.184485063323223,2517.36714950479
0.179639836015165,2517.37714950479
0.174619956863027,2517.38714950479
0.169178926324564,2517.39714950479
0.163988320974849,2517.40714950479
0.159285192730166,2517.41714950479
0.15446358030397,2517.42714950479
0.149801278933047,2517.43714950479
0.14507285820492,2517.44714950479
0.140652286756722,2517.45714950479
0.136752472704227,2517.46714950479
0.1328525094417,2517.47714950479
0.129037241982198,2517.48714950479
0.12463964348979,2517.49714950479
0.119637408221101,2517.50714950479
0.11528393123785,2517.51714950479
0.110315537592316,2517.52714950479
0.105707007340278,2517.53714950479
0.101429727353044,2517.54714950479
0.0971065710231067,2517.55714950479
0.0930488639816482,2517.56714950479
0.0899200351888042,2517.57714950479
0.085786644127621,2517.58714950479
0.0817903430604261,2517.59714950479
0.0775932005548585,2517.60714950479
0.072102555841911,2517.61714950479
0.067130969848201,2517.62714950479
0.061636379640208,2517.63714950479
0.0567129243604518,2517.64714950479
0.0523165554584755,2517.65714950479
0.04820305035328,2517.66714950479
0.0439764463703625,2517.67714950479
0.0397338338059895,2517.68714950479
0.0356423011197809,2517.69714950479
0.0314699113489734,2517.70714950479
0.0273913707663108,2517.71714950479
0.0227547493831108,2517.72714950479
0.018071607387404,2517.73714950479
0.01419400336691,2517.74714950479
0.0123586616867662,2517.75714950479
0.0148738607009075,2517.76714950479
0.024095351287912,2517.77714950479
0.0420926804820396,2517.78714950479
0.0703993833100799,2517.79714950479
0.109071262118801,2517.80714950479
0.157785645985541,2517.81714950479
0.21341785722753,2517.82714950479
0.272268262155863,2517.83714950479
0.331262631132232,2517.84714950479
0.386726399859116,2517.85714950479
0.43593504404446,2517.86714950479
0.477550696620729,2517.87714950479
0.509854925036835,2517.88714950479
0.532890204213775,2517.89714950479
0.547384368609894,2517.90714950479
0.553753760691931,2517.91714950479
0.553888790354031,2517.92714950479
0.549391384446069,2517.93714950479
0.541820453215434,2517.94714950479
0.533341503386801,2517.95714950479
0.524462771679279,2517.96714950479
0.515774940114137,2517.97714950479
0.507418923268534,2517.98714950479
0.499892175922528,2517.99714950479
0.493043723248536,2518.00714950479
0.486800071824747,2518.01714950479
0.481034766162813,2518.02714950479
0.47591059809524,2518.03714950479
0.470875710160717,2518.04714950479
0.464753892149372,2518.05714950479
0.457957400437625,2518.06714950479
0.449954113581012,2518.07714950479
0.440880288644324,2518.08714950479
0.430955463061263,2518.09714950479
0.420448049629516,2518.10714950479
0.411018624699138,2518.11714950479
0.402538678904431,2518.12714950479
0.395934293907199,2518.13714950479
0.390366882211138,2518.14714950479
0.386363134836082,2518.15714950479
0.383853041879225,2518.16714950479
0.382295421863839,2518.17714950479
0.381659697066862,2518.18714950479
0.381250500037698,2518.19714950479
0.380324808174794,2518.20714950479
0.37936357230801,2518.21714950479
0.377582081053096,2518.22714950479
0.374892513213454,2518.23714950479
0.371809546062428,2518.24714950479
0.367698637227222,2518.25714950479
0.362822294777394,2518.26714950479
0.357173366858046,2518.27714950479
0.350562073818338,2518.28714950479
0.343385387240785,2518.29714950479
0.335747212487679,2518.30714950479
0.327998029901504,2518.31714950479
0.319883474981593,2518.32714950479
0.311714189315103,2518.33714950479
0.302876071138117,2518.34714950479
0.293778292150306,2518.35714950479
0.284196025115999,2518.36714950479
0.274445284171773,2518.37714950479
0.264151968507577,2518.38714950479
0.254257114913528,2518.39714950479
0.244229155952908,2518.40714950479
0.234554930289015,2518.41714950479
0.225218616980082,2518.42714950479
0.216833240937087,2518.43714950479
0.208700322588488,2518.44714950479
0.200971030833282,2518.45714950479
0.193142738473593,2518.46714950479
0.185807447746851,2518.47714950479
0.178761004377625,2518.48714950479
0.171858047292639,2518.49714950479
0.164997251657212,2518.50714950479
0.158085309965259,2518.51714950479
0.152042601641642,2518.52714950479
0.146650956882956,2518.53714950479
0.141644601870893,2518.54714950479
0.136929320689595,2518.55714950479
0.131977380375688,2518.56714950479
0.126892683529259,2518.57714950479
0.121878855581514,2518.58714950479
0.116747096052098,2518.59714950479
0.111317013968117,2518.60714950479
0.105701652935711,2518.61714950479
0.100185099872481,2518.62714950479
0.0946900612173475,2518.63714950479
0.0893033914850161,2518.64714950479
0.0843131071622518,2518.65714950479
0.0795230801645493,2518.66714950479
0.0751174714528099,2518.67714950479
0.0704747164962206,2518.68714950479
0.066264809769986,2518.69714950479
0.0615330999940803,2518.70714950479
0.056721606072631,2518.71714950479
0.0518685589080363,2518.72714950479
0.0472453765837828,2518.73714950479
0.0431089247639169,2518.74714950479
0.0385593749634853,2518.75714950479
0.0345007868470708,2518.76714950479
0.030635913651301,2518.77714950479
0.027203203027132,2518.78714950479
0.0240619058671184,2518.79714950479
0.0211093407172405,2518.80714950479
0.0191386241914954,2518.81714950479
0.0197002018782385,2518.82714950479
0.0245510068105015,2518.83714950479
0.0363710213966141,2518.84714950479
0.0572936165057781,2518.85714950479
0.0897612307150455,2518.86714950479
0.134664653751876,2518.87714950479
0.191184426026299,2518.88714950479
0.256599884501298,2518.89714950479
0.326347961103703,2518.90714950479
0.396040454895141,2518.91714950479
0.462079768975091,2518.92714950479
0.520505377080954,2518.93714950479
0.569045055781493,2518.94714950479
0.606145829351163,2518.95714950479
0.63191468877888,2518.96714950479
0.646729149719759,2518.97714950479
0.651929930336501,2518.98714950479
0.648569444860268,2518.99714950479
0.63885582877303,2519.00714950479
0.62538284734615,2519.01714950479
0.609853867291275,2519.02714950479
0.594624653678911,2519.03714950479
0.57950435495957,2519.04714950479
0.565409331292965,2519.05714950479
0.552402101986657,2519.06714950479
0.540708215908872,2519.07714950479
0.53017266748419,2519.08714950479
0.52055688510079,2519.09714950479
0.512244087375424,2519.10714950479
0.50455569399439,2519.11714950479
0.497529811359978,2519.12714950479
0.49008181300293,2519.13714950479
0.48251246295174,2519.14714950479
0.474575222471529,2519.15714950479
0.466617708524923,2519.16714950479
0.459145175798016,2519.17714950479
0.453555190421694,2519.18714950479
0.450225097815423,2519.19714950479
0.449012056519135,2519.20714950479
0.450332859978729,2519.21714950479
0.45263300972793,2519.22714950479
0.456041373825167,2519.23714950479
0.459429721677506,2519.24714950479
0.462883866069203,2519.25714950479
0.465298527250652,2519.26714950479
0.467534516710929,2519.27714950479
0.469269623731709,2519.28714950479
0.470603449761892,2519.29714950479
0.470272568097664,2519.30714950479
0.468755474232894,2519.31714950479
0.465301208681118,2519.32714950479
0.460657883295889,2519.33714950479
0.454734299157625,2519.34714950479
0.447948723829328,2519.35714950479
0.440519809233205,2519.36714950479
0.432722543355051,2519.37714950479
0.423839583028798,2519.38714950479
0.413988908125101,2519.39714950479
0.403432441221211,2519.40714950479
0.392646894077847,2519.41714950479
0.381890158527263,2519.42714950479
0.371796340012869,2519.43714950479
0.361741428635966,2519.44714950479
0.351951191405093,2519.45714950479
0.341851177364088,2519.46714950479
0.332335257098938,2519.47714950479
0.323202872719596,2519.48714950479
0.314655647426766,2519.49714950479
0.306488946966693,2519.50714950479
0.298604418773751,2519.51714950479
0.290901852986555,2519.52714950479
0.283955717809248,2519.53714950479
0.277198712995811,2519.54714950479
0.270459538391021,2519.55714950479
0.263419637431311,2519.56714950479
0.256224900333632,2519.57714950479
0.248706074348646,2519.58714950479
0.241752706897031,2519.59714950479
0.235119570284716,2519.60714950479
0.228461473510984,2519.61714950479
0.222420288366793,2519.62714950479
0.216636089916237,2519.63714950479
0.21128769581342,2519.64714950479
0.206351661418032,2519.65714950479
0.201104768493845,2519.66714950479
0.19632979656241,2519.67714950479
0.191674510130543,2519.68714950479
0.187323429917365,2519.69714950479
0.183013523074327,2519.70714950479
0.178215793690275,2519.71714950479
0.173019804099434,2519.72714950479
0.167120960199933,2519.73714950479
0.161181148342049,2519.74714950479
0.155589745661413,2519.75714950479
0.150275628517351,2519.76714950479
0.145490206478174,2519.77714950479
0.141103544382137,2519.78714950479
0.136487331791198,2519.79714950479
0.131890054831622,2519.80714950479
0.127109406702046,2519.81714950479
0.122306146182503,2519.82714950479
0.118111828120131,2519.83714950479
0.115166891778882,2519.84714950479
0.115196937088386,2519.85714950479
0.119742873596434,2519.86714950479
0.131636849539236,2519.87714950479
0.152894356322045,2519.88714950479
0.185284236814396,2519.89714950479
0.228270681957283,2519.90714950479
0.280633443082538,2519.91714950479
0.339020865953865,2519.92714950479
0.399742206078323,2519.93714950479
0.458849788310307,2519.94714950479
0.511314512625182,2519.95714950479
0.555277757245044,2519.96714950479
0.589493848029442,2519.97714950479
0.613387709224166,2519.98714950479
0.62699049585708,2519.99714950479
0.632418765027914,2520.00714950479
0.630286845708134,2520.01714950479
0.623074877095816,2520.02714950479
0.612317708966099,2520.03714950479
0.598411941459657,2520.04714950479
0.582551403765898,2520.05714950479
0.565735516622947,2520.06714950479
0.549128234862991,2520.07714950479
0.533310990984438,2520.08714950479
0.5187996534434,2520.09714950479
0.506149586492603,2520.10714950479
0.494565515251632,2520.11714950479
0.483728177034676,2520.12714950479
0.472348386951912,2520.13714950479
0.460551868385622,2520.14714950479
0.448286247521748,2520.15714950479
0.434310449397786,2520.16714950479
0.42027220083046,2520.17714950479
0.405742947846277,2520.18714950479
0.391628820377241,2520.19714950479
0.378637634110241,2520.20714950479
0.367192001411662,2520.21714950479
0.357851606755356,2520.22714950479
0.350686804440356,2520.23714950479
0.345038492478879,2520.24714950479
0.341347268502017,2520.25714950479
0.338851910247755,2520.26714950479
0.337730013807975,2520.27714950479
0.337366431119559,2520.28714950479
0.337346094960408,2520.29714950479
0.336775839902257,2520.30714950479
0.335359469936236,2520.31714950479
0.33209769580747,2520.32714950479
0.327710734900688,2520.33714950479
0.322043925894236,2520.34714950479
0.314696323558619,2520.35714950479
0.306971694965127,2520.36714950479
0.299079378072277,2520.37714950479
0.290806777939039,2520.38714950479
0.281824654079403,2520.39714950479
0.272232074109252,2520.40714950479
0.261857351299875,2520.41714950479
0.250885221338749,2520.42714950479
0.239471490301307,2520.43714950479
0.227915083938519,2520.44714950479
0.217106998352646,2520.45714950479
0.206415864891984,2520.46714950479
0.196398366206434,2520.47714950479
0.187098533656706,2520.48714950479
0.178249308081129,2520.49714950479
0.170082682298402,2520.50714950479
0.162344340002383,2520.51714950479
0.154640550551488,2520.52714950479
0.147278304695329,2520.53714950479
0.139197363660449,2520.54714950479
0.130947904216382,2520.55714950479
0.1225154332704,2520.56714950479
0.114461329296746,2520.57714950479
0.106798857929305,2520.58714950479
0.100084428350352,2520.59714950479
0.0938993940515382,2520.60714950479
0.0882534771299753,2520.61714950479
0.082378559352383,2520.62714950479
0.076172453277263,2520.63714950479
0.0695666101850831,2520.64714950479
0.0634712686506676,2520.65714950479
0.0573063703709721,2520.66714950479
0.0514388667813289,2520.67714950479
0.045703285234013,2520.68714950479
0.0400249071870291,2520.69714950479
0.0344496579664331,2520.70714950479
0.0292529927484703,2520.71714950479
0.0239426957319628,2520.72714950479
0.0190739146056008,2520.73714950479
0.0137292367219998,2520.74714950479
0.00842114106476384,2520.75714950479
0.00202835398915341,2520.76714950479
-0.00410488251017646,2520.77714950479
-0.0100093051053393,2520.78714950479
-0.0155714434928806,2520.79714950479
-0.0205185685201712,2520.80714950479
-0.0256305231645085,2520.81714950479
-0.0306606402871097,2520.82714950479
-0.0361864838779287,2520.83714950479
-0.0414795293800386,2520.84714950479
-0.0471007085045611,2520.85714950479
-0.0506617409264053,2520.86714950479
-0.050564299692825,2520.87714950479
-0.0448216806419075,2520.88714950479
-0.031042592456228,2520.89714950479
-0.00684811029351168,2520.90714950479
0.0274239539749026,2520.91714950479
0.0700745796797675,2520.92714950479
0.118958515173277,2520.93714950479
0.170957963828634,2520.94714950479
0.222845523875323,2520.95714950479
0.270713959973234,2520.96714950479
0.312142142993518,2520.97714950479
0.345690499187008,2520.98714950479
0.370249699628142,2520.99714950479
0.386036825078525,2521.00714950479
0.393910571179021,2521.01714950479
0.395255246540382,2521.02714950479
0.391157446314748,2521.03714950479
0.383254395375323,2521.04714950479
0.372687617868875,2521.05714950479
0.360116697262451,2521.06714950479
0.346563158744331,2521.07714950479
0.332487674248839,2521.08714950479
0.318848117755554,2521.09714950479
0.305581272160971,2521.10714950479
0.293099436384034,2521.11714950479
0.281118440608547,2521.12714950479
0.269429005654528,2521.13714950479
0.258227015845664,2521.14714950479
0.247310165460764,2521.15714950479
0.235263696796761,2521.16714950479
0.222682258066437,2521.17714950479
0.209423956035151,2521.18714950479
0.19554496049827,2521.19714950479
0.181839113959084,2521.20714950479
0.168487229109072,2521.21714950479
0.155875709951336,2521.22714950479
0.144826160290464,2521.23714950479
0.135795666021186,2521.24714950479
0.128251664061287,2521.25714950479
0.122413575698062,2521.26714950479
0.11797928927511,2521.27714950479
0.113966822073046,2521.28714950479
0.111205717146089,2521.29714950479
0.108320555902864,2521.30714950479
0.105294245034919,2521.31714950479
0.102555247278629,2521.32714950479
0.099580956713959,2521.33714950479
0.0960110234408705,2521.34714950479
0.0914125964152886,2521.35714950479
0.0856817471148919,2521.36714950479
0.0786366436258471,2521.37714950479
0.0701110420726889,2521.38714950479
0.0606126275066998,2521.39714950479
0.049967143010074,2521.40714950479
0.0386594037367191,2521.41714950479
0.0267601017806235,2521.42714950479
0.0144109841728129,2521.43714950479
0.00223911011734551,2521.44714950479
-0.00937708420223565,2521.45714950479
-0.0207247679485181,2521.46714950479
-0.0314791332297325,2521.47714950479
-0.0418768064832465,2521.48714950479
-0.052845627104932,2521.49714950479
-0.0635774206045368,2521.50714950479
-0.0743150532744901,2521.51714950479
-0.0851348527903626,2521.52714950479
-0.0952349947168024,2521.53714950479
-0.104555966976342,2521.54714950479
-0.11344722563319,2521.55714950479
-0.121869507463669,2521.56714950479
-0.130310666345511,2521.57714950479
-0.139065741158961,2521.58714950479
-0.148074909929469,2521.59714950479
-0.157669948546002,2521.60714950479
-0.166278276674768,2521.61714950479
-0.174257862607013,2521.62714950479
-0.181416853166328,2521.63714950479
-0.188737111959751,2521.64714950479
-0.19569411905823,2521.65714950479
-0.202724119545713,2521.66714950479
-0.209843725447087,2521.67714950479
-0.216715837356468,2521.68714950479
-0.223175511352837,2521.69714950479
-0.229680732265097,2521.70714950479
-0.235697557738238,2521.71714950479
-0.242021662563741,2521.72714950479
-0.248297245879363,2521.73714950479
-0.254835391025222,2521.74714950479
-0.261804663084421,2521.75714950479
-0.268715913416266,2521.76714950479
-0.275278541576405,2521.77714950479
-0.282011684605209,2521.78714950479
-0.288767459078267,2521.79714950479
-0.295097598540365,2521.80714950479
-0.301440290148642,2521.81714950479
-0.307216446689414,2521.82714950479
-0.313838751704284,2521.83714950479
-0.320357714941821,2521.84714950479
-0.325628359731793,2521.85714950479
-0.328051446916781,2521.86714950479
-0.32600328430866,2521.87714950479
-0.317975809521356,2521.88714950479
-0.303635507843058,2521.89714950479
-0.282056195467534,2521.90714950479
-0.254761360362683,2521.91714950479
-0.222968461231886,2521.92714950479
-0.189189714593723,2521.93714950479
-0.15534123236424,2521.94714950479
-0.123869047372914,2521.95714950479
-0.0964819557321353,2521.96714950479
-0.0748252092364855,2521.97714950479
-0.0595108695066803,2521.98714950479
-0.051049014875192,2521.99714950479
-0.0474041021187809,2522.00714950479
-0.0480234643492095,2522.01714950479
-0.0519544700510764,2522.02714950479
-0.0580306799345822,2522.03714950479
-0.0659536951104607,2522.04714950479
-0.075041700967948,2522.05714950479
-0.0847638048948041,2522.06714950479
-0.0944114551744272,2522.07714950479
-0.10403283576577,2522.08714950479
-0.113516095816567,2522.09714950479
-0.122720689084689,2522.10714950479
-0.131407370525924,2522.11714950479
-0.139597830380872,2522.12714950479
-0.148304503808688,2522.13714950479
-0.157473796712342,2522.14714950479
-0.167270433430189,2522.15714950479
-0.177012912778606,2522.16714950479
-0.186430541186088,2522.17714950479
-0.195237050791353,2522.18714950479
-0.203395329275957,2522.19714950479
-0.210392221665495,2522.20714950479
-0.216793209276748,2522.21714950479
-0.221977938116157,2522.22714950479
-0.226230111770584,2522.23714950479
-0.230105592673045,2522.24714950479
-0.233186029237119,2522.25714950479
-0.235594138789701,2522.26714950479
-0.237048787769426,2522.27714950479
-0.237702662511929,2522.28714950479
-0.23785739043104,2522.29714950479
-0.238321814501119,2522.30714950479
-0.239292688322085,2522.31714950479
-0.240737372133627,2522.32714950479
-0.242969684053098,2522.33714950479
-0.246078746415267,2522.34714950479
-0.250046478791261,2522.35714950479
-0.254592337383773,2522.36714950479
-0.259638012569869,2522.37714950479
-0.264615432120751,2522.38714950479
-0.270052587419291,2522.39714950479
-0.275099984195909,2522.40714950479
-0.280581024690202,2522.41714950479
-0.286303905106869,2522.42714950479
-0.292241494906778,2522.43714950479
-0.298367775198602,2522.44714950479
-0.303776221681417,2522.45714950479
-0.30903630041313,2522.46714950479
-0.313474805399984,2522.47714950479
-0.317729949047006,2522.48714950479
-0.321444107690354,2522.49714950479
-0.325088450153241,2522.50714950479
-0.328592677646224,2522.51714950479
-0.331541572981964,2522.52714950479
-0.334206124959528,2522.53714950479
-0.336966697190369,2522.54714950479
-0.339808289106095,2522.55714950479
-0.342604932147887,2522.56714950479
-0.344760169628907,2522.57714950479
-0.347405570013746,2522.58714950479
-0.350173957051907,2522.59714950479
-0.353461656743536,2522.60714950479
-0.356376036378688,2522.61714950479
-0.359747857927417,2522.62714950479
-0.363169938181677,2522.63714950479
-0.366082246470083,2522.64714950479
-0.369609157562995,2522.65714950479
-0.373159350017653,2522.66714950479
-0.376695607542844,2522.67714950479
-0.380986234287483,2522.68714950479
-0.384971017289535,2522.69714950479
-0.389077507605066,2522.70714950479
-0.393528678760788,2522.71714950479
-0.396798277886661,2522.72714950479
-0.399040507982607,2522.73714950479
-0.400770544148022,2522.74714950479
-0.402617522270505,2522.75714950479
-0.405089102722061,2522.76714950479
-0.408758427379049,2522.77714950479
-0.412501087167697,2522.78714950479
-0.416405457403829,2522.79714950479
-0.41850047344609,2522.80714950479
-0.418190187960229,2522.81714950479
-0.413593681592083,2522.82714950479
-0.404617164701905,2522.83714950479
-0.39044932961623,2522.84714950479
-0.371613536807049,2522.85714950479
-0.349426721093868,2522.86714950479
-0.324356508963156,2522.87714950479
-0.298659248640535,2522.88714950479
-0.272864684327752,2522.89714950479
-0.249320525448928,2522.90714950479
-0.229644798077148,2522.91714950479
-0.213958426865631,2522.92714950479
-0.202474699536503,2522.93714950479
-0.194680552905586,2522.94714950479
-0.189930164653246,2522.95714950479
-0.187343000359819,2522.96714950479
-0.186826778709072,2522.97714950479
-0.187469789764692,2522.98714950479
-0.189473600341441,2522.99714950479
-0.193086983767785,2523.00714950479
-0.197739724656658,2523.01714950479
-0.202080831022016,2523.02714950479
-0.206633188128423,2523.03714950479
-0.210589952355599,2523.04714950479
-0.214755629121559,2523.05714950479
-0.218415152272967,2523.06714950479
-0.221968457373562,2523.07714950479
-0.225607172555088,2523.08714950479
-0.228649274100833,2523.09714950479
-0.232832626857526,2523.10714950479
-0.237857700209649,2523.11714950479
-0.243586591336142,2523.12714950479
-0.249885435807696,2523.13714950479
-0.255928593974753,2523.14714950479
-0.261459392384904,2523.15714950479
-0.266279421435376,2523.16714950479
-0.2701559811461,2523.17714950479
-0.273886774594584,2523.18714950479
-0.276235100588711,2523.19714950479
-0.278482361309024,2523.20714950479
-0.279910645486785,2523.21714950479
-0.281162451386991,2523.22714950479
-0.282421664885532,2523.23714950479
-0.283452157196789,2523.24714950479
-0.285005311663461,2523.25714950479
-0.286793311982775,2523.26714950479
-0.288857648209093,2523.27714950479
-0.291727998875087,2523.28714950479
-0.295003934461635,2523.29714950479
-0.298307125426776,2523.30714950479
-0.301629975694696,2523.31714950479
-0.305920179888432,2523.32714950479
-0.310374814297178,2523.33714950479
-0.315996885526582,2523.34714950479
-0.321389013985115,2523.35714950479
-0.326629470375285,2523.36714950479
-0.332136857023171,2523.37714950479
-0.336975122452817,2523.38714950479
-0.341845835002212,2523.39714950479
-0.346874549819778,2523.40714950479
-0.351934350977107,2523.41714950479
-0.357322756886506,2523.42714950479
-0.36283067484127,2523.43714950479
-0.367872905336715,2523.44714950479
-0.372210182971676,2523.45714950479
-0.376421479118085,2523.46714950479
-0.37985631431827,2523.47714950479
-0.383396460276017,2523.48714950479
-0.387473523522656,2523.49714950479
-0.391719632600894,2523.50714950479
-0.396123355649165,2523.51714950479
-0.400074110604367,2523.52714950479
-0.403577471442138,2523.53714950479
-0.406595856482452,2523.54714950479
-0.40905465833771,2523.55714950479
-0.411678366853562,2523.56714950479
-0.413986349494541,2523.57714950479
-0.416414735375116,2523.58714950479
-0.418637451327946,2523.59714950479
-0.421070649062118,2523.60714950479
-0.42354120457849,2523.61714950479
-0.425729836901117,2523.62714950479
-0.428081884582546,2523.63714950479
-0.431242593849366,2523.64714950479
-0.435066912293125,2523.65714950479
-0.43874851976154,2523.66714950479
-0.442960547274384,2523.67714950479
-0.446129637819789,2523.68714950479
-0.449168626389263,2523.69714950479
-0.451659281626869,2523.70714950479
-0.454449018838742,2523.71714950479
-0.457392709435851,2523.72714950479
-0.46037309635288,2523.73714950479
-0.463508229780807,2523.74714950479
-0.465998175631492,2523.75714950479
-0.467361320491851,2523.76714950479
-0.467242990509176,2523.77714950479
-0.464291821346441,2523.78714950479
-0.457390242893342,2523.79714950479
-0.446352899836121,2523.80714950479
-0.430700545806127,2523.81714950479
-0.411577651798995,2523.82714950479
-0.390089632141957,2523.83714950479
-0.367518130364911,2523.84714950479
-0.344553218873837,2523.85714950479
-0.323103177889353,2523.86714950479
-0.303575814831158,2523.87714950479
-0.287951142943299,2523.88714950479
-0.275640058646027,2523.89714950479
-0.26613833670333,2523.90714950479
-0.260352211267323,2523.91714950479
-0.257357164121468,2523.92714950479
-0.256858160345901,2523.93714950479
-0.257947274836632,2523.94714950479
-0.260739517693373,2523.95714950479
-0.264354855612108,2523.96714950479
-0.267721346198042,2523.97714950479
-0.270782833118038,2523.98714950479
-0.272951074033744,2523.99714950479
-0.274237239640564,2524.00714950479
-0.275323962582196,2524.01714950479
-0.276578420385918,2524.02714950479
-0.278611401997491,2524.03714950479
-0.281520863289887,2524.04714950479
-0.28479821215268,2524.05714950479
-0.288814425264538,2524.06714950479
-0.293007068213234,2524.07714950479
-0.298040341175798,2524.08714950479
-0.303133536447173,2524.09714950479
-0.307758568950788,2524.10714950479
-0.312326021921822,2524.11714950479
-0.316734263673881,2524.12714950479
-0.320747831533454,2524.13714950479
-0.325260374096167,2524.14714950479
-0.32872970067849,2524.15714950479
-0.331135755471249,2524.16714950479
-0.333202446156158,2524.17714950479
-0.334236209791033,2524.18714950479
-0.335269147801535,2524.19714950479
-0.336383382419903,2524.20714950479
-0.337364069421391,2524.21714950479
-0.338555628249991,2524.22714950479
-0.339459953219345,2524.23714950479
-0.340487662553837,2524.24714950479
-0.34160972468864,2524.25714950479
-0.343190648938845,2524.26714950479
-0.344796347699126,2524.27714950479
-0.346762021780056,2524.28714950479
-0.348642795948527,2524.29714950479
-0.350585954613634,2524.30714950479
-0.352904801851878,2524.31714950479
-0.355868824079213,2524.32714950479
-0.358321298231602,2524.33714950479
-0.361457740456511,2524.34714950479
-0.363850660826675,2524.35714950479
-0.366385455836598,2524.36714950479
-0.368507600780775,2524.37714950479
-0.370628330017941,2524.38714950479
-0.3728698589547,2524.39714950479
-0.374789439382663,2524.40714950479
-0.376724622180163,2524.41714950479
-0.378018945001481,2524.42714950479
-0.379344808773919,2524.43714950479
-0.380649039571433,2524.44714950479
-0.382172079617602,2524.45714950479
-0.383278514841182,2524.46714950479
-0.383874949856423,2524.47714950479
-0.384466373650414,2524.48714950479
-0.384753882746091,2524.49714950479
-0.384752572329,2524.50714950479
-0.384881747336917,2524.51714950479
-0.384979793755461,2524.52714950479
-0.384824624907526,2524.53714950479
-0.385275454934053,2524.54714950479
-0.385950097636629,2524.55714950479
-0.386887898883344,2524.56714950479
-0.388046712236442,2524.57714950479
-0.389191827544599,2524.58714950479
-0.390560579862307,2524.59714950479
-0.3916668229953,2524.60714950479
-0.392642726504092,2524.61714950479
-0.394082540462366,2524.62714950479
-0.396319439476576,2524.63714950479
-0.398757307617802,2524.64714950479
-0.400981754025324,2524.65714950479
-0.401973887705449,2524.66714950479
-0.401644977636558,2524.67714950479
-0.399879882043821,2524.68714950479
-0.395472913431486,2524.69714950479
-0.386984133769075,2524.70714950479
-0.373763195561672,2524.71714950479
-0.355074783660344,2524.72714950479
-0.331788265634179,2524.73714950479
-0.305130854182277,2524.74714950479
-0.27633347099063,2524.75714950479
-0.247809374689634,2524.76714950479
-0.221678045982732,2524.77714950479
-0.199065250298419,2524.78714950479
-0.180672157079602,2524.79714950479
-0.166271503951443,2524.80714950479
-0.155852841372373,2524.81714950479
-0.149414612200753,2524.82714950479
-0.14539281026366,2524.83714950479
-0.143645166125067,2524.84714950479
-0.14401705557535,2524.85714950479
-0.145016715378653,2524.86714950479
-0.146730035489306,2524.87714950479
-0.149120686131286,2524.88714950479
-0.151597554748785,2524.89714950479
-0.154206713119389,2524.90714950479
-0.156340383032008,2524.91714950479
-0.158206310934221,2524.92714950479
-0.159636504950389,2524.93714950479
-0.16076301106713,2524.94714950479
-0.161985827355089,2524.95714950479
-0.163013755274062,2524.96714950479
-0.164440763189262,2524.97714950479
-0.16673811932989,2524.98714950479
-0.169706253459688,2524.99714950479
-0.172728168772985,2525.00714950479
-0.175024064194269,2525.01714950479
-0.176351584243489,2525.02714950479
-0.176243179784493,2525.03714950479
-0.175017627272662,2525.04714950479
-0.172426306318716,2525.05714950479
-0.16888745658853,2525.06714950479
-0.164480554127304,2525.07714950479
-0.159806402711695,2525.08714950479
-0.155458414207149,2525.09714950479
-0.150680034730965,2525.10714950479
-0.14681339974905,2525.11714950479
-0.143912433013728,2525.12714950479
-0.141986859695601,2525.13714950479
