PPG,time
0.0548832600102218,2036.45917024529
0.10073760688967,2036.46917024529
0.0785267205004482,2036.47917024529
0.0765189246650782,2036.48917024529
0.0626534876309523,2036.49917024529
0.0559105742353873,2036.50917024529
0.0446285307497906,2036.51917024529
0.038183007541458,2036.52917024529
0.0341498659829078,2036.53917024529
0.0378322304964152,2036.54917024529
0.0494968748106976,2036.55917024529
0.071365770306016,2036.56917024529
0.102277744721094,2036.57917024529
0.140256098790362,2036.58917024529
0.182330391496165,2036.59917024529
0.224825183721393,2036.60917024529
0.265333645735615,2036.61917024529
0.302114902001729,2036.62917024529
0.334224443565963,2036.63917024529
0.361067615480704,2036.64917024529
0.383503299063651,2036.65917024529
0.401222734322588,2036.66917024529
0.414353399478473,2036.67917024529
0.424204882635198,2036.68917024529
0.43092108448876,2036.69917024529
0.436345072764326,2036.70917024529
0.440414600549842,2036.71917024529
0.444090472084124,2036.72917024529
0.448276269284698,2036.73917024529
0.452365833617748,2036.74917024529
0.456438458266672,2036.75917024529
0.460669389080403,2036.76917024529
0.46387887873699,2036.77917024529
0.465987051797268,2036.78917024529
0.465610816769742,2036.79917024529
0.46234452454379,2036.80917024529
0.457586854288509,2036.81917024529
0.450944473724398,2036.82917024529
0.443982209667581,2036.83917024529
0.437873702232526,2036.84917024529
0.432940266730653,2036.85917024529
0.429446759578952,2036.86917024529
0.42751994687946,2036.87917024529
0.427366961222818,2036.88917024529
0.428150958187893,2036.89917024529
0.430011459515712,2036.90917024529
0.431701513608171,2036.91917024529
0.433647332604181,2036.92917024529
0.435473442361918,2036.93917024529
0.436904926085497,2036.94917024529
0.437907327601384,2036.95917024529
0.438015111844943,2036.96917024529
0.437314765271272,2036.97917024529
0.434966398085237,2036.98917024529
0.431035614750863,2036.99917024529
0.425414300309193,2037.00917024529
0.418479859845728,2037.01917024529
0.410734672337484,2037.02917024529
0.402795585777693,2037.03917024529
0.39525191609742,2037.04917024529
0.386777770465131,2037.05917024529
0.377674613532448,2037.06917024529
0.368753566774289,2037.07917024529
0.360835612668583,2037.08917024529
0.35269392305849,2037.09917024529
0.345409183479966,2037.10917024529
0.337741188144342,2037.11917024529
0.330154501667255,2037.12917024529
0.322022738757995,2037.13917024529
0.313381189503774,2037.14917024529
0.304639754193135,2037.15917024529
0.295706267176402,2037.16917024529
0.286887676703285,2037.17917024529
0.277835486081132,2037.18917024529
0.268819197584308,2037.19917024529
0.260485999588399,2037.20917024529
0.251601849350609,2037.21917024529
0.242463856082494,2037.22917024529
0.232328152884764,2037.23917024529
0.221412217112999,2037.24917024529
0.210246406208757,2037.25917024529
0.198923172659327,2037.26917024529
0.187384932555143,2037.27917024529
0.177091911258901,2037.28917024529
0.167043170340071,2037.29917024529
0.159331871715981,2037.30917024529
0.155206248408766,2037.31917024529
0.158131145082363,2037.32917024529
0.16924609792068,2037.33917024529
0.189893070979739,2037.34917024529
0.219863524147862,2037.35917024529
0.256391261702318,2037.36917024529
0.296142060742028,2037.37917024529
0.337477494396913,2037.38917024529
0.377055325132065,2037.39917024529
0.411973558140357,2037.40917024529
0.441450345051842,2037.41917024529
0.464982656601115,2037.42917024529
0.482879916353523,2037.43917024529
0.496026528950688,2037.44917024529
0.505560084054743,2037.45917024529
0.513222293876534,2037.46917024529
0.518920675411129,2037.47917024529
0.523680679108474,2037.48917024529
0.527589383484311,2037.49917024529
0.531254568364716,2037.50917024529
0.534576395718021,2037.51917024529
0.537945303203988,2037.52917024529
0.541575525904497,2037.53917024529
0.544251155178688,2037.54917024529
0.547032065134241,2037.55917024529
0.547919280660414,2037.56917024529
0.545778960048164,2037.57917024529
0.541460976831973,2037.58917024529
0.534403028211067,2037.59917024529
0.526111651340621,2037.60917024529
0.518222116055584,2037.61917024529
0.510805523778647,2037.62917024529
0.505049908440388,2037.63917024529
0.500605648238943,2037.64917024529
0.497602374181776,2037.65917024529
0.495776142384798,2037.66917024529
0.495472557897642,2037.67917024529
0.496132904853868,2037.68917024529
0.497340937631504,2037.69917024529
0.498389142890048,2037.70917024529
0.498672524680831,2037.71917024529
0.498258071855132,2037.72917024529
0.496603397097802,2037.73917024529
0.494309591495645,2037.74917024529
0.490255324297703,2037.75917024529
0.485029952893068,2037.76917024529
0.478329804003347,2037.77917024529
0.470326548458323,2037.78917024529
0.461826512305033,2037.79917024529
0.453544317657967,2037.80917024529
0.44539801916674,2037.81917024529
0.437660602830501,2037.82917024529
0.429357785711434,2037.83917024529
0.420665238955739,2037.84917024529
0.411081593485582,2037.85917024529
0.401638120736101,2037.86917024529
0.392054858194885,2037.87917024529
0.382452216304125,2037.88917024529
0.373968310361154,2037.89917024529
0.365126949681883,2037.90917024529
0.356078934718334,2037.91917024529
0.34701584908819,2037.92917024529
0.33727989269077,2037.93917024529
0.327357992866767,2037.94917024529
0.317378311183586,2037.95917024529
0.306753102676501,2037.96917024529
0.295917183185734,2037.97917024529
0.284789495162226,2037.98917024529
0.273946698882585,2037.99917024529
0.262856780179906,2038.00917024529
0.251570583617434,2038.01917024529
0.240346972700452,2038.02917024529
0.228628979909619,2038.03917024529
0.21725096042075,2038.04917024529
0.205917755738152,2038.05917024529
0.194424972827252,2038.06917024529
0.182965120701836,2038.07917024529
0.172174711747611,2038.08917024529
0.161760481836266,2038.09917024529
0.152648121310564,2038.10917024529
0.147304405635739,2038.11917024529
0.148227716212197,2038.12917024529
0.158150667615471,2038.13917024529
0.178498898657971,2038.14917024529
0.208123556512368,2038.15917024529
0.245439950230393,2038.16917024529
0.287710125682877,2038.17917024529
0.33119265617054,2038.18917024529
0.37400076151145,2038.19917024529
0.414027243634408,2038.20917024529
0.449375817693557,2038.21917024529
0.478858389646979,2038.22917024529
0.501705033824628,2038.23917024529
0.518646672567224,2038.24917024529
0.531209617755462,2038.25917024529
0.540031718889913,2038.26917024529
0.546947609270551,2038.27917024529
0.552833238393982,2038.28917024529
0.558512232390897,2038.29917024529
0.564607402886259,2038.30917024529
0.570595739097338,2038.31917024529
0.577306449811092,2038.32917024529
0.582753315510013,2038.33917024529
0.588479221600282,2038.34917024529
0.593165382040035,2038.35917024529
0.596246826462316,2038.36917024529
0.59730498089055,2038.37917024529
0.595982601538442,2038.38917024529
0.591938607336964,2038.39917024529
0.585147042432616,2038.40917024529
0.577197025586513,2038.41917024529
0.568730350267099,2038.42917024529
0.561026881308751,2038.43917024529
0.554356454455895,2038.44917024529
0.549162418752003,2038.45917024529
0.545259871520239,2038.46917024529
0.542425237084278,2038.47917024529
0.540406367706943,2038.48917024529
0.538611671179982,2038.49917024529
0.537004205877684,2038.50917024529
0.535794036600824,2038.51917024529
0.533993965044929,2038.52917024529
0.531719000181958,2038.53917024529
0.529184080977297,2038.54917024529
0.525124462412506,2038.55917024529
0.520601219790023,2038.56917024529
0.514928845600184,2038.57917024529
0.508823729722,2038.58917024529
0.502264799920457,2038.59917024529
0.494917182329863,2038.60917024529
0.486827707253186,2038.61917024529
0.477909776362231,2038.62917024529
0.46827096739356,2038.63917024529
0.457910434137915,2038.64917024529
0.447201281459251,2038.65917024529
0.436115025980401,2038.66917024529
0.424480924404766,2038.67917024529
0.412719965921529,2038.68917024529
0.401013528410194,2038.69917024529
0.38863986093602,2038.70917024529
0.37634801449368,2038.71917024529
0.364169781470145,2038.72917024529
0.351913139484349,2038.73917024529
0.339958360541064,2038.74917024529
0.327912935396223,2038.75917024529
0.315823035719504,2038.76917024529
0.304011633617818,2038.77917024529
0.292261970392719,2038.78917024529
0.280702917549956,2038.79917024529
0.268841267289003,2038.80917024529
0.256857952852111,2038.81917024529
0.245155177250209,2038.82917024529
0.233095048450155,2038.83917024529
0.220978314484178,2038.84917024529
0.20861083686883,2038.85917024529
0.195222314443491,2038.86917024529
0.18126666505842,2038.87917024529
0.167283023567503,2038.88917024529
0.153387734720482,2038.89917024529
0.140112404129312,2038.90917024529
0.128231690188361,2038.91917024529
0.116426969397598,2038.92917024529
0.104767676180618,2038.93917024529
0.0930710450989459,2038.94917024529
0.0818914115792864,2038.95917024529
0.0725378042470007,2038.96917024529
0.0669285438749152,2038.97917024529
0.0680245196324177,2038.98917024529
0.0768202195269499,2038.99917024529
0.094839519795395,2039.00917024529
0.120972349696335,2039.01917024529
0.154164485520489,2039.02917024529
0.191334352485753,2039.03917024529
0.229548318854613,2039.04917024529
0.266518420005378,2039.05917024529
0.299849332400659,2039.06917024529
0.328841856864277,2039.07917024529
0.352001256467852,2039.08917024529
0.370081651687183,2039.09917024529
0.382977123580824,2039.10917024529
0.391810918281487,2039.11917024529
0.398495006072937,2039.12917024529
0.403121597313946,2039.13917024529
0.407162433740968,2039.14917024529
0.411028080873581,2039.15917024529
0.414803271066361,2039.16917024529
0.418618985305993,2039.17917024529
0.422898842812885,2039.18917024529
0.427410636411942,2039.19917024529
0.43176235888116,2039.20917024529
0.435340247478882,2039.21917024529
0.437687001308032,2039.22917024529
0.437086852615277,2039.23917024529
0.433793307976217,2039.24917024529
0.427345403277134,2039.25917024529
0.418799399744239,2039.26917024529
0.408353136810817,2039.27917024529
0.397952545424463,2039.28917024529
0.388280676803365,2039.29917024529
0.380312969831268,2039.30917024529
0.373906110290243,2039.31917024529
0.3688821475607,2039.32917024529
0.36556636694454,2039.33917024529
0.362578156724196,2039.34917024529
0.359959535119209,2039.35917024529
0.358130027912195,2039.36917024529
0.356165396152498,2039.37917024529
0.353344933173116,2039.38917024529
0.349931541327527,2039.39917024529
0.345046026169988,2039.40917024529
0.338928734227532,2039.41917024529
0.332136534909816,2039.42917024529
0.324582888776818,2039.43917024529
0.316917159181272,2039.44917024529
0.308785616538055,2039.45917024529
0.300448672234136,2039.46917024529
0.291662426806048,2039.47917024529
0.282942384761719,2039.48917024529
0.273442821835709,2039.49917024529
0.263116919094335,2039.50917024529
0.252175972923735,2039.51917024529
0.240110553149463,2039.52917024529
0.227745957032524,2039.53917024529
0.215649030568574,2039.54917024529
0.203857256192859,2039.55917024529
0.19193884040759,2039.56917024529
0.179876793784446,2039.57917024529
0.167917908505283,2039.58917024529
0.155781470206722,2039.59917024529
0.143011509158202,2039.60917024529
0.130460848504793,2039.61917024529
0.117944909798652,2039.62917024529
0.10573164132436,2039.63917024529
0.0934823016607663,2039.64917024529
0.0813938768490472,2039.65917024529
0.0692421859516858,2039.66917024529
0.0568109202343899,2039.67917024529
0.0443320124768719,2039.68917024529
0.0318816628756384,2039.69917024529
0.0193195317135932,2039.70917024529
0.00733716808472651,2039.71917024529
-0.00405113607299451,2039.72917024529
-0.0156505320707001,2039.73917024529
-0.0274944020370956,2039.74917024529
-0.0390433074368149,2039.75917024529
-0.0496110647700733,2039.76917024529
-0.0569087648092842,2039.77917024529
-0.059469204774168,2039.78917024529
-0.0546951632368933,2039.79917024529
-0.041340461178969,2039.80917024529
-0.0198293175513991,2039.81917024529
0.00799308000368907,2039.82917024529
0.0405619488883978,2039.83917024529
0.0751900295702156,2039.84917024529
0.108442715531176,2039.85917024529
0.138937027144409,2039.86917024529
0.164505004248493,2039.87917024529
0.185730725415478,2039.88917024529
0.201886328201084,2039.89917024529
0.213289695666331,2039.90917024529
0.221088296226784,2039.91917024529
0.225768523627,2039.92917024529
0.229070157608335,2039.93917024529
0.231844302850602,2039.94917024529
0.234003426354067,2039.95917024529
0.235934455162579,2039.96917024529
0.237902624384255,2039.97917024529
0.23982360368459,2039.98917024529
0.241973340172226,2039.99917024529
0.243896830027137,2040.00917024529
0.244429366967411,2040.01917024529
0.242876477087313,2040.02917024529
0.238939466698156,2040.03917024529
0.23221211013149,2040.04917024529
0.223602881413093,2040.05917024529
0.214112356871101,2040.06917024529
0.204802276040528,2040.07917024529
0.196870209848008,2040.08917024529
0.19016163816519,2040.09917024529
0.185263662658842,2040.10917024529
0.181995305804791,2040.11917024529
0.179807397601696,2040.12917024529
0.178706762403309,2040.13917024529
0.178232302667101,2040.14917024529
0.177825301291342,2040.15917024529
0.177713297941361,2040.16917024529
0.176562786237059,2040.17917024529
0.174247120210102,2040.18917024529
0.170899862048843,2040.19917024529
0.166272342964747,2040.20917024529
0.160780305181263,2040.21917024529
0.154824975249872,2040.22917024529
0.148419488936125,2040.23917024529
0.141382422711395,2040.24917024529
0.133402638596684,2040.25917024529
0.125235603216837,2040.26917024529
0.116353238678871,2040.27917024529
0.107473667589037,2040.28917024529
0.0984587586577445,2040.29917024529
0.0891234162337165,2040.30917024529
0.0793052608700008,2040.31917024529
0.0695944053222801,2040.32917024529
0.0599751810792941,2040.33917024529
0.0502565841343542,2040.34917024529
0.0414481093392087,2040.35917024529
0.0333150068702418,2040.36917024529
0.024902857541243,2040.37917024529
0.0159330016057171,2040.38917024529
0.00645593691193308,2040.39917024529
-0.00393943478244549,2040.40917024529
-0.0145056394025964,2040.41917024529
-0.0253801791397254,2040.42917024529
-0.0366615477047045,2040.43917024529
-0.0479787752202739,2040.44917024529
-0.0600373207109654,2040.45917024529
-0.0718474887839897,2040.46917024529
-0.0836258849874028,2040.47917024529
-0.0950745518666275,2040.48917024529
-0.10617836877716,2040.49917024529
-0.116788836083908,2040.50917024529
-0.12711643916018,2040.51917024529
-0.137447784824516,2040.52917024529
-0.147436461889194,2040.53917024529
-0.156284330090524,2040.54917024529
-0.161859785404433,2040.55917024529
-0.162364717191665,2040.56917024529
-0.155525491355355,2040.57917024529
-0.139962827847181,2040.58917024529
-0.116106824559851,2040.59917024529
-0.0860408894497471,2040.60917024529
-0.0507462840972233,2040.61917024529
-0.0143820374889205,2040.62917024529
0.0210376047698461,2040.63917024529
0.0526928985715086,2040.64917024529
0.0793849140603067,2040.65917024529
0.101106524422707,2040.66917024529
0.117506955167663,2040.67917024529
0.129572220153767,2040.68917024529
0.13898639182454,2040.69917024529
0.146454500787131,2040.70917024529
0.152942499707608,2040.71917024529
0.159247619719215,2040.72917024529
0.165698104190872,2040.73917024529
0.173061935722895,2040.74917024529
0.181052000877213,2040.75917024529
0.189756186682431,2040.76917024529
0.198356302294311,2040.77917024529
0.20724184344855,2040.78917024529
0.215502150968908,2040.79917024529
0.221625249230579,2040.80917024529
0.22531142927692,2040.81917024529
0.226646336968968,2040.82917024529
0.225275095164415,2040.83917024529
0.221705536812092,2040.84917024529
0.21686242755116,2040.85917024529
0.211344575348491,2040.86917024529
0.206443081321967,2040.87917024529
0.20320291092058,2040.88917024529
0.200863523809862,2040.89917024529
0.199616110190946,2040.90917024529
0.199314860589086,2040.91917024529
0.199439437240207,2040.92917024529
0.199727734549862,2040.93917024529
0.200072635840029,2040.94917024529
0.199727510868679,2040.95917024529
0.198496679607786,2040.96917024529
0.197391968027305,2040.97917024529
0.195531234336125,2040.98917024529
0.19288173398693,2040.99917024529
0.189328687679761,2041.00917024529
0.185163871461951,2041.01917024529
0.179717233830063,2041.02917024529
0.173235699597862,2041.03917024529
0.166168717726017,2041.04917024529
0.15873147935006,2041.05917024529
0.15104823830403,2041.06917024529
0.142944053284842,2041.07917024529
0.134630534143695,2041.08917024529
0.125953810874257,2041.09917024529
0.116462578853367,2041.10917024529
0.10641539787242,2041.11917024529
0.095713732632834,2041.12917024529
0.0844831290147008,2041.13917024529
0.0736610321131628,2041.14917024529
0.0629306488267078,2041.15917024529
0.0524942218869931,2041.16917024529
0.0426642671443601,2041.17917024529
0.0331828603487119,2041.18917024529
0.0245870727487986,2041.19917024529
0.0155908507180173,2041.20917024529
0.00652389645344114,2041.21917024529
-0.00272057363125003,2041.22917024529
-0.0131915822900996,2041.23917024529
-0.0240364649910155,2041.24917024529
-0.0351536157964972,2041.25917024529
-0.046720318706741,2041.26917024529
-0.0582033168181755,2041.27917024529
-0.0695580316517927,2041.28917024529
-0.0807741131099589,2041.29917024529
-0.09140814544971,2041.30917024529
-0.10179418513281,2041.31917024529
-0.112721506966952,2041.32917024529
-0.123973487350034,2041.33917024529
-0.13484389744214,2041.34917024529
-0.14628667395674,2041.35917024529
-0.157422810956859,2041.36917024529
-0.168174810828653,2041.37917024529
-0.178717653559515,2041.38917024529
-0.187626421334241,2041.39917024529
-0.194102885653319,2041.40917024529
-0.195282885232083,2041.41917024529
-0.188908710255477,2041.42917024529
-0.173558184717452,2041.43917024529
-0.149095258787369,2041.44917024529
-0.117010090021226,2041.45917024529
-0.0797071977248293,2041.46917024529
-0.0403192468856523,2041.47917024529
-0.00183532561326414,2041.48917024529
0.0338956192387114,2041.49917024529
0.0645120861425113,2041.50917024529
0.0896406417666832,2041.51917024529
0.109179609415941,2041.52917024529
0.123912543871203,2041.53917024529
0.135278939769518,2041.54917024529
0.143629949613372,2041.55917024529
0.150469694901222,2041.56917024529
0.15654436025023,2041.57917024529
0.162045848257992,2041.58917024529
0.167183589819127,2041.59917024529
0.172580806490219,2041.60917024529
0.177992984704134,2041.61917024529
0.184564421531816,2041.62917024529
0.191440034981876,2041.63917024529
0.198033483660701,2041.64917024529
0.203551094444094,2041.65917024529
0.206545335031623,2041.66917024529
0.206139347478573,2041.67917024529
0.202506267260342,2041.68917024529
0.196380768739637,2041.69917024529
0.188691638923901,2041.70917024529
0.180339849239427,2041.71917024529
0.172449805935253,2041.72917024529
0.165795167960889,2041.73917024529
0.160412045318799,2041.74917024529
0.156629196561375,2041.75917024529
0.154146123899485,2041.76917024529
0.152189983639473,2041.77917024529
0.151379319178949,2041.78917024529
0.150503333738961,2041.79917024529
0.149424725771324,2041.80917024529
0.148024930863165,2041.81917024529
0.145783731329015,2041.82917024529
0.143353953877865,2041.83917024529
0.139744364104366,2041.84917024529
0.135499768154009,2041.85917024529
0.130687282139315,2041.86917024529
0.124621449571185,2041.87917024529
0.117580693038409,2041.88917024529
0.110050523278515,2041.89917024529
0.102505378154958,2041.90917024529
0.094555058210549,2041.91917024529
0.0864050978766229,2041.92917024529
0.0784549982682161,2041.93917024529
0.069679986065066,2041.94917024529
0.0604419261660055,2041.95917024529
0.0510637553204667,2041.96917024529
0.0413696804979407,2041.97917024529
0.031373412861226,2041.98917024529
0.0214831504094952,2041.99917024529
0.0119911206065903,2042.00917024529
0.00204082735547673,2042.01917024529
-0.00764707674613364,2042.02917024529
-0.0175283688580737,2042.03917024529
-0.02761718314468,2042.04917024529
-0.0375265796170057,2042.05917024529
-0.0471824878330686,2042.06917024529
-0.0571797931318707,2042.07917024529
-0.0677503808045743,2042.08917024529
-0.078388974257649,2042.09917024529
-0.0899460869519762,2042.10917024529
-0.101436237102948,2042.11917024529
-0.112736058815785,2042.12917024529
-0.124088243060751,2042.13917024529
-0.134881279335464,2042.14917024529
-0.145419056352678,2042.15917024529
-0.155701066372539,2042.16917024529
-0.165492372642976,2042.17917024529
-0.176213809435334,2042.18917024529
-0.187447554346825,2042.19917024529
-0.198950036433354,2042.20917024529
-0.210593238363648,2042.21917024529
-0.221928652009009,2042.22917024529
-0.231637503464579,2042.23917024529
-0.238558236571324,2042.24917024529
-0.240301446813232,2042.25917024529
-0.234385281611922,2042.26917024529
-0.220656828027449,2042.27917024529
-0.198437637743847,2042.28917024529
-0.168985346937297,2042.29917024529
-0.134440230482895,2042.30917024529
-0.0974597489435036,2042.31917024529
-0.061455624499241,2042.32917024529
-0.0284619102031874,2042.33917024529
-0.000319670780766061,2042.34917024529
0.0224411628855654,2042.35917024529
0.0400837034427065,2042.36917024529
0.0526592368327811,2042.37917024529
0.0617653825160496,2042.38917024529
0.0683567887936411,2042.39917024529
0.0736629574133534,2042.40917024529
0.0781923257582485,2042.41917024529
0.082342948192216,2042.42917024529
0.0863763607468748,2042.43917024529
0.0908737599675597,2042.44917024529
0.0953197227353887,2042.45917024529
0.0990775393564974,2042.46917024529
0.102091533857475,2042.47917024529
0.103558312353624,2042.48917024529
0.103463052676755,2042.49917024529
0.101158662564023,2042.50917024529
0.096771299744874,2042.51917024529
0.090678821517633,2042.52917024529
0.0836949435288107,2042.53917024529
0.0765159817253893,2042.54917024529
0.0704552062968317,2042.55917024529
0.065684970043323,2042.56917024529
0.0629650737800024,2042.57917024529
0.061413028231682,2042.58917024529
0.0615603380054896,2042.59917024529
0.0627662770402833,2042.60917024529
0.064454235786858,2042.61917024529
0.0665128712484556,2042.62917024529
0.0680136573587328,2042.63917024529
0.0685852429119339,2042.64917024529
0.0680970823690409,2042.65917024529
0.0661816004388599,2042.66917024529
0.0634912752073773,2042.67917024529
0.0596323873337639,2042.68917024529
0.0550835742812873,2042.69917024529
0.050158796034038,2042.70917024529
0.0442442721722973,2042.71917024529
0.0380416785200072,2042.72917024529
0.0309739302909515,2042.73917024529
0.0241570269954226,2042.74917024529
0.0174110881477809,2042.75917024529
0.0103994141312046,2042.76917024529
0.00305331046448806,2042.77917024529
-0.00443017281907104,2042.78917024529
-0.0121689620772103,2042.79917024529
-0.0200530550663676,2042.80917024529
-0.028123655808684,2042.81917024529
-0.035787044999833,2042.82917024529
-0.0434959215783105,2042.83917024529
-0.0513271887722492,2042.84917024529
-0.0596789968053145,2042.85917024529
-0.0682772205263166,2042.86917024529
-0.077264545070303,2042.87917024529
-0.0861908310489983,2042.88917024529
-0.0951189223232286,2042.89917024529
-0.10420089211079,2042.90917024529
-0.113320183213549,2042.91917024529
-0.123012737615967,2042.92917024529
-0.132516604875004,2042.93917024529
-0.14206903376352,2042.94917024529
-0.151950522448647,2042.95917024529
-0.161459042583169,2042.96917024529
-0.171159269938423,2042.97917024529
-0.180583715660183,2042.98917024529
-0.19006964160743,2042.99917024529
-0.199032390351965,2043.00917024529
-0.207433718849641,2043.01917024529
-0.21470356626082,2043.02917024529
-0.218352976042829,2043.03917024529
-0.216070207943668,2043.04917024529
-0.205583472184384,2043.05917024529
-0.185769524772651,2043.06917024529
-0.157629842837003,2043.07917024529
-0.122835926633207,2043.08917024529
-0.0853101062457788,2043.09917024529
-0.0465721096727805,2043.10917024529
-0.0105644614150085,2043.11917024529
0.0220704258302683,2043.12917024529
0.0496285832660765,2043.13917024529
0.0713472008118052,2043.14917024529
0.0883395613240982,2043.15917024529
0.101456521907505,2043.16917024529
0.111514201922242,2043.17917024529
0.119462491057982,2043.18917024529
0.125670710369888,2043.19917024529
0.131072144848117,2043.20917024529
0.13589240057405,2043.21917024529
0.1402694124463,2043.22917024529
0.145051659055127,2043.23917024529
0.150167110410688,2043.24917024529
0.155657570746443,2043.25917024529
0.16099182911195,2043.26917024529
0.165376698673232,2043.27917024529
0.168542557581823,2043.28917024529
0.169366827409969,2043.29917024529
0.167440617956334,2043.30917024529
0.162714098085378,2043.31917024529
0.156435686169723,2043.32917024529
0.148969582123251,2043.33917024529
0.141983433742359,2043.34917024529
0.136175474726475,2043.35917024529
0.131252265197247,2043.36917024529
0.127549103199991,2043.37917024529
0.124800221564792,2043.38917024529
0.122687264629526,2043.39917024529
0.121375286796461,2043.40917024529
0.120592366989989,2043.41917024529
0.120428074866905,2043.42917024529
0.120224125875743,2043.43917024529
0.119392986883431,2043.44917024529
0.118404504394877,2043.45917024529
0.116149124622583,2043.46917024529
0.113077034078294,2043.47917024529
0.109616554666877,2043.48917024529
0.10488734581275,2043.49917024529
0.0995927503930628,2043.50917024529
0.0937867710725682,2043.51917024529
0.08750911404183,2043.52917024529
0.0804325084409133,2043.53917024529
0.0727146674287641,2043.54917024529
0.0637776442764071,2043.55917024529
0.0544868988066106,2043.56917024529
0.0447773209302443,2043.57917024529
0.0346373588133688,2043.58917024529
0.0240950316641223,2043.59917024529
0.0139555911406767,2043.60917024529
0.00459236006296238,2043.61917024529
-0.00455670683596964,2043.62917024529
-0.0141725348761978,2043.63917024529
-0.0230707469055124,2043.64917024529
-0.031934746837138,2043.65917024529
-0.0409853936050103,2043.66917024529
-0.0496949035012525,2043.67917024529
-0.0585890094134292,2043.68917024529
-0.0673256116680673,2043.69917024529
-0.0763323823135883,2043.70917024529
-0.0849154262589795,2043.71917024529
-0.0942032488842098,2043.72917024529
-0.103744903173159,2043.73917024529
-0.113566732055775,2043.74917024529
-0.123297184031357,2043.75917024529
-0.133301541432754,2043.76917024529
-0.143033625611014,2043.77917024529
-0.152284953169275,2043.78917024529
-0.161518070487122,2043.79917024529
-0.170821800499507,2043.80917024529
-0.180695424528452,2043.81917024529
-0.190793437684988,2043.82917024529
-0.200977412100354,2043.83917024529
-0.211627261880988,2043.84917024529
-0.222612753532316,2043.85917024529
-0.232530596485199,2043.86917024529
-0.24220857968528,2043.87917024529
-0.250438278001491,2043.88917024529
-0.257423992054942,2043.89917024529
-0.261757635352476,2043.90917024529
-0.261516416484934,2043.91917024529
-0.25485374371234,2043.92917024529
-0.239953919680789,2043.93917024529
-0.215750987409326,2043.94917024529
-0.184138888031082,2043.95917024529
-0.147000731591934,2043.96917024529
-0.107717385220356,2043.97917024529
-0.06873924633187,2043.98917024529
-0.0322680303196041,2043.99917024529
0.000107958803270216,2044.00917024529
0.0271890108089104,2044.01917024529
0.0494309602461831,2044.02917024529
0.0671505723150772,2044.03917024529
0.0807141108371732,2044.04917024529
0.0909304597922469,2044.05917024529
0.0993688155769938,2044.06917024529
0.106656600047109,2044.07917024529
0.112744486468656,2044.08917024529
0.1190145785164,2044.09917024529
0.125194151767391,2044.10917024529
0.132050450722797,2044.11917024529
0.138863321408637,2044.12917024529
0.146406670250008,2044.13917024529
0.153463456798958,2044.14917024529
0.159182671021981,2044.15917024529
0.162808741048374,2044.16917024529
0.163609644539303,2044.17917024529
0.162286438630743,2044.18917024529
0.158076200934356,2044.19917024529
0.15245679223906,2044.20917024529
0.146104598986718,2044.21917024529
0.139733283668837,2044.22917024529
0.133865792659133,2044.23917024529
0.128602853489953,2044.24917024529
0.124321398754822,2044.25917024529
0.120763097221409,2044.26917024529
0.118828335927431,2044.27917024529
0.118044198217286,2044.28917024529
0.118401908293091,2044.29917024529
0.119248363782586,2044.30917024529
0.120003649815288,2044.31917024529
0.119714096248006,2044.32917024529
0.118945410969875,2044.33917024529
0.116251476972987,2044.34917024529
0.113017904060909,2044.35917024529
0.109030016409423,2044.36917024529
0.103491270270152,2044.37917024529
0.0973381100489547,2044.38917024529
0.0902320304968017,2044.39917024529
0.0830957987751219,2044.40917024529
0.0760345419227335,2044.41917024529
0.0686646349435809,2044.42917024529
0.0617011572633967,2044.43917024529
0.0540087109797622,2044.44917024529
0.0463473110705869,2044.45917024529
0.0381726711801486,2044.46917024529
0.0297462917232043,2044.47917024529
0.0215025235527805,2044.48917024529
0.0132920745229115,2044.49917024529
0.00446571957155702,2044.50917024529
-0.00515108403540431,2044.51917024529
-0.0154304982541011,2044.52917024529
-0.0261380622539635,2044.53917024529
-0.0369435058389549,2044.54917024529
-0.0475937293150021,2044.55917024529
-0.0579458781369943,2044.56917024529
-0.0673107328123484,2044.57917024529
-0.0766006500668035,2044.58917024529
-0.0857856563100671,2044.59917024529
-0.0944737265188362,2044.60917024529
-0.103233987580603,2044.61917024529
-0.112088787859745,2044.62917024529
-0.12102659323314,2044.63917024529
-0.130175376631048,2044.64917024529
-0.14022269946034,2044.65917024529
-0.150811567460024,2044.66917024529
-0.161242207391397,2044.67917024529
-0.172214734775995,2044.68917024529
-0.182959272976355,2044.69917024529
-0.193659726708261,2044.70917024529
-0.204222337331432,2044.71917024529
-0.214343134836178,2044.72917024529
-0.22393764033171,2044.73917024529
-0.233384668124645,2044.74917024529
-0.243264923586433,2044.75917024529
-0.252261004772252,2044.76917024529
-0.261190642555244,2044.77917024529
-0.269275310055778,2044.78917024529
-0.275100701203065,2044.79917024529
-0.276957170128165,2044.80917024529
-0.271942703721406,2044.81917024529
-0.258714409119591,2044.82917024529
-0.236539981611321,2044.83917024529
-0.206132215835339,2044.84917024529
-0.170211968393657,2044.85917024529
-0.131205585227495,2044.86917024529
-0.0922662019025933,2044.87917024529
-0.055528512802069,2044.88917024529
-0.0228133573113362,2044.89917024529
0.00459274736748833,2044.90917024529
0.0264466250088331,2044.91917024529
0.0432668206751518,2044.92917024529
0.0556537144960662,2044.93917024529
0.0648057162779929,2044.94917024529
0.0720337653566314,2044.95917024529
0.0780060343339891,2044.96917024529
0.0830442919171202,2044.97917024529
0.0876119125681908,2044.98917024529
0.0917122875766038,2044.99917024529
0.0961640586649891,2045.00917024529
0.100197348993825,2045.01917024529
0.103684934905261,2045.02917024529
0.106779714158121,2045.03917024529
0.109193513432582,2045.04917024529
0.109764447559026,2045.05917024529
0.108825947174708,2045.06917024529
0.105449066664809,2045.07917024529
0.0996364016155475,2045.08917024529
0.0926828064737195,2045.09917024529
0.0858066865128707,2045.10917024529
0.0799473479596822,2045.11917024529
0.0758920245185857,2045.12917024529
0.0728925381706977,2045.13917024529
0.0718117220749766,2045.14917024529
0.0724375146758934,2045.15917024529
0.0744171605526744,2045.16917024529
0.0770476093357408,2045.17917024529
0.0798855483100108,2045.18917024529
0.0828270150672266,2045.19917024529
0.0848826840411199,2045.20917024529
0.0860521482915782,2045.21917024529
0.0859514844064568,2045.22917024529
0.0849101226412388,2045.23917024529
0.0824057115488525,2045.24917024529
0.0788648251377624,2045.25917024529
0.0748992498408364,2045.26917024529
0.0703147281457086,2045.27917024529
0.0653840760203843,2045.28917024529
0.0599764803581392,2045.29917024529
0.0541137192465838,2045.30917024529
0.0480024214371847,2045.31917024529
0.0412781749103314,2045.32917024529
0.0343258492057024,2045.33917024529
0.0271188311216878,2045.34917024529
0.0199529649838151,2045.35917024529
0.012542653408488,2045.36917024529
0.00527592909997451,2045.37917024529
-0.00198461287857609,2045.38917024529
-0.00907847108451963,2045.39917024529
-0.0164573382196313,2045.40917024529
-0.0239072876892045,2045.41917024529
-0.0311216587747971,2045.42917024529
-0.0380214049747745,2045.43917024529
-0.0453276290563143,2045.44917024529
-0.0528103886183003,2045.45917024529
-0.0617009531636427,2045.46917024529
-0.0708903035907583,2045.47917024529
-0.0803962061666267,2045.48917024529
-0.0899983801941149,2045.49917024529
-0.0995644562268684,2045.50917024529
-0.108602868177455,2045.51917024529
-0.11754912913039,2045.52917024529
-0.127115665256069,2045.53917024529
-0.135791563303311,2045.54917024529
-0.144704704201753,2045.55917024529
-0.153366154699611,2045.56917024529
-0.161571849240862,2045.57917024529
-0.169331214914143,2045.58917024529
-0.175610191499125,2045.59917024529
-0.178622731796814,2045.60917024529
-0.176072175892876,2045.61917024529
-0.165167914358088,2045.62917024529
-0.144975598157924,2045.63917024529
-0.115617640470704,2045.64917024529
-0.079551528981735,2045.65917024529
-0.0389290594716199,2045.66917024529
0.00341081467603207,2045.67917024529
0.0454838801781446,2045.68917024529
0.0851414065150538,2045.69917024529
0.120660741217226,2045.70917024529
0.150895958531162,2045.71917024529
0.175655133664277,2045.72917024529
0.194841838857938,2045.73917024529
0.209825255127926,2045.74917024529
0.221462790105171,2045.75917024529
0.230971395415823,2045.76917024529
0.239471571779106,2045.77917024529
0.247374353922297,2045.78917024529
0.254963540715203,2045.79917024529
0.262224463339968,2045.80917024529
0.269359804817773,2045.81917024529
0.276641643666729,2045.82917024529
0.28336156318317,2045.83917024529
0.288950172272716,2045.84917024529
0.292512441998502,2045.85917024529
0.2941947739775,2045.86917024529
0.293378117376755,2045.87917024529
0.290702017895016,2045.88917024529
0.285813543315718,2045.89917024529
0.280769196691496,2045.90917024529
0.275620756308897,2045.91917024529
0.270945079042868,2045.92917024529
0.267798972844848,2045.93917024529
0.266121283587862,2045.94917024529
0.265953374424273,2045.95917024529
0.266834410078293,2045.96917024529
0.268065637873367,2045.97917024529
0.269881370972035,2045.98917024529
0.271412636658715,2045.99917024529
0.271863833558251,2046.00917024529
0.271832825499813,2046.01917024529
0.270817341580474,2046.02917024529
0.269255674280509,2046.03917024529
0.266039795821336,2046.04917024529
0.261828924079423,2046.05917024529
0.256727622902854,2046.06917024529
0.250304977670335,2046.07917024529
0.243236110493886,2046.08917024529
0.23592902788255,2046.09917024529
0.228248434532502,2046.10917024529
0.220252061142597,2046.11917024529
0.211874717885201,2046.12917024529
0.202777174533859,2046.13917024529
0.193364483704452,2046.14917024529
0.183802002720457,2046.15917024529
0.175065445585685,2046.16917024529
0.166174216609191,2046.17917024529
0.157522238923492,2046.18917024529
0.148718304763698,2046.19917024529
0.139915684727913,2046.20917024529
0.130843395516991,2046.21917024529
0.121877776811708,2046.22917024529
0.113442092621545,2046.23917024529
0.104919104226493,2046.24917024529
0.0961130631053372,2046.25917024529
0.0870773993926937,2046.26917024529
0.0776925202491059,2046.27917024529
0.0681012802878017,2046.28917024529
0.0582469717960616,2046.29917024529
0.0484019821709174,2046.30917024529
0.0384823950629608,2046.31917024529
0.028018508987535,2046.32917024529
0.0176672802344404,2046.33917024529
0.00745582778332055,2046.34917024529
-0.00220780878979683,2046.35917024529
-0.0118102071433029,2046.36917024529
-0.0215637182791415,2046.37917024529
-0.03168838227252,2046.38917024529
-0.0422397664074952,2046.39917024529
-0.0528709313229341,2046.40917024529
-0.0632602876344397,2046.41917024529
-0.0738565805960634,2046.42917024529
-0.0841012745844228,2046.43917024529
-0.0934599537203962,2046.44917024529
-0.100288597037631,2046.45917024529
-0.102804229664963,2046.46917024529
-0.0985409621040017,2046.47917024529
-0.0850624450200076,2046.48917024529
-0.0614641724824836,2046.49917024529
-0.0275790372132995,2046.50917024529
0.0141505913437051,2046.51917024529
0.060620172078199,2046.52917024529
0.108401469612418,2046.53917024529
0.154831479565488,2046.54917024529
0.198145613797239,2046.55917024529
0.23708188077021,2046.56917024529
0.270827483981035,2046.57917024529
0.29914330672056,2046.58917024529
0.322059679959913,2046.59917024529
0.340834699299967,2046.60917024529
0.356438990013506,2046.61917024529
0.369647296009073,2046.62917024529
0.382054111190151,2046.63917024529
0.393645027014696,2046.64917024529
0.404616144155079,2046.65917024529
0.414578902199135,2046.66917024529
0.424208152149762,2046.67917024529
0.433698531462668,2046.68917024529
0.442810740997926,2046.69917024529
0.451166699306703,2046.70917024529
0.458330452494306,2046.71917024529
0.463934846673655,2046.72917024529
0.466553725497388,2046.73917024529
0.465961670564647,2046.74917024529
0.462693674657862,2046.75917024529
0.457686373711182,2046.76917024529
0.451645104723145,2046.77917024529
0.445242597220145,2046.78917024529
0.439716951238689,2046.79917024529
0.435062499886553,2046.80917024529
0.431830954279144,2046.81917024529
0.430361316414184,2046.82917024529
0.42971733835961,2046.83917024529
0.429905106784467,2046.84917024529
0.430858892824438,2046.85917024529
0.432452979549193,2046.86917024529
0.434128127029627,2046.87917024529
0.435760233753944,2046.88917024529
0.437214052069082,2046.89917024529
0.437019045168853,2046.90917024529
0.435713292545285,2046.91917024529
0.433006037223371,2046.92917024529
0.429040363502084,2046.93917024529
0.424610950200539,2046.94917024529
0.419097611116087,2046.95917024529
0.412884979023114,2046.96917024529
0.405686447784745,2046.97917024529
0.397847647656771,2046.98917024529
0.388619148443446,2046.99917024529
0.378718886130809,2047.00917024529
0.368660530329539,2047.01917024529
0.358062840542969,2047.02917024529
0.347484205501254,2047.03917024529
0.336870671267074,2047.04917024529
0.326333654673861,2047.05917024529
0.315399374745975,2047.06917024529
0.304324245001029,2047.07917024529
0.293320201909937,2047.08917024529
0.282204506146065,2047.09917024529
0.271398514902546,2047.10917024529
0.261064261442883,2047.11917024529
0.250358086112862,2047.12917024529
0.239754746402746,2047.13917024529
0.229436481467284,2047.14917024529
0.219122870527172,2047.15917024529
0.208356576629868,2047.16917024529
0.197768858029013,2047.17917024529
0.18682064420935,2047.18917024529
0.175272543316893,2047.19917024529
0.163268279017925,2047.20917024529
0.151140060638407,2047.21917024529
0.138783694475615,2047.22917024529
0.126831897758286,2047.23917024529
0.114326338223088,2047.24917024529
0.102332339412978,2047.25917024529
0.0902069570696422,2047.26917024529
0.0782798188078035,2047.27917024529
0.0665487246922175,2047.28917024529
0.0553023519085798,2047.29917024529
0.0438218795363472,2047.30917024529
0.0322563392880592,2047.31917024529
0.0211091143358205,2047.32917024529
0.0110493375828168,2047.33917024529
0.00363031508497096,2047.34917024529
0.00192722299894067,2047.35917024529
0.00793937239516977,2047.36917024529
0.0244218137062772,2047.37917024529
0.0513209072623776,2047.38917024529
0.0875723171399326,2047.39917024529
0.131465342430457,2047.40917024529
0.179887348737729,2047.41917024529
0.22914435182104,2047.42917024529
0.276567771617611,2047.43917024529
0.319627764299229,2047.44917024529
0.357947692163542,2047.45917024529
0.390728993221592,2047.46917024529
0.417424801706915,2047.47917024529
0.438841538137437,2047.48917024529
0.455810478326766,2047.49917024529
0.46885552494532,2047.50917024529
0.47952685849083,2047.51917024529
0.487204222727879,2047.52917024529
0.493634926826087,2047.53917024529
0.49922188088633,2047.54917024529
0.504649905342317,2047.55917024529
0.509763964188772,2047.56917024529
0.51479318955837,2047.57917024529
0.519301925671117,2047.58917024529
0.522499975208547,2047.59917024529
0.523375718442659,2047.60917024529
0.521746974294103,2047.61917024529
0.517736652854596,2047.62917024529
0.511306087705326,2047.63917024529
0.503361903735601,2047.64917024529
0.494828244908872,2047.65917024529
0.486608956494434,2047.66917024529
0.479089533608187,2047.67917024529
0.472642400086938,2047.68917024529
0.467122859922419,2047.69917024529
0.462828084741496,2047.70917024529
0.459787136704625,2047.71917024529
0.458010067760958,2047.72917024529
0.4573081752677,2047.73917024529
0.457711715231956,2047.74917024529
0.458683423994122,2047.75917024529
0.458944211430909,2047.76917024529
0.458545873774342,2047.77917024529
0.45689280939324,2047.78917024529
0.454002543170217,2047.79917024529
0.450145178975414,2047.80917024529
0.444951114455224,2047.81917024529
0.438625373121032,2047.82917024529
0.431294595346445,2047.83917024529
0.423053511072868,2047.84917024529
0.414282051294542,2047.85917024529
0.405090787702993,2047.86917024529
0.395751598970516,2047.87917024529
0.38563548426127,2047.88917024529
0.37469224635116,2047.89917024529
0.364261051376078,2047.90917024529
0.352901963992722,2047.91917024529
0.341705049326605,2047.92917024529
0.330454773112392,2047.93917024529
0.319070957891719,2047.94917024529
0.307185626396731,2047.95917024529
0.294987836216758,2047.96917024529
0.282865492881966,2047.97917024529
0.270492969388224,2047.98917024529
0.259208044379546,2047.99917024529
0.24794006684472,2048.00917024529
0.23707933867469,2048.01917024529
0.225584728758573,2048.02917024529
0.213941332319808,2048.03917024529
0.201929678004122,2048.04917024529
0.189924107975833,2048.05917024529
0.177732056242917,2048.06917024529
0.165803819870289,2048.07917024529
0.153499787792269,2048.08917024529
0.140930111450101,2048.09917024529
0.128714725994148,2048.10917024529
0.116427171892454,2048.11917024529
0.104733207434224,2048.12917024529
0.0929832662873192,2048.13917024529
0.0823842220961386,2048.14917024529
0.0728801766807379,2048.15917024529
0.0659506958424645,2048.16917024529
0.0644743113699116,2048.17917024529
0.0707639753504512,2048.18917024529
0.0867590200983859,2048.19917024529
0.113111620653627,2048.20917024529
0.149021213279119,2048.21917024529
0.192093429087481,2048.22917024529
0.239583372254133,2048.23917024529
0.288420872129733,2048.24917024529
0.33571810592427,2048.25917024529
0.379737098859302,2048.26917024529
0.417816707688501,2048.27917024529
0.449581609982984,2048.28917024529
0.475083774222811,2048.29917024529
0.494628615405993,2048.30917024529
0.509489120123521,2048.31917024529
0.520359404786841,2048.32917024529
0.528295400937455,2048.33917024529
0.534269079520734,2048.34917024529
0.538694285540781,2048.35917024529
0.542497629090948,2048.36917024529
0.545800865094056,2048.37917024529
0.54879176426994,2048.38917024529
0.550982658649683,2048.39917024529
0.552520998765767,2048.40917024529
0.552645835948188,2048.41917024529
0.550355546271939,2048.42917024529
0.545272850378657,2048.43917024529
0.537627062008601,2048.44917024529
0.528957998272105,2048.45917024529
0.519331125517245,2048.46917024529
0.510406015950489,2048.47917024529
0.503021497073551,2048.48917024529
0.496811512814994,2048.49917024529
0.492404583312875,2048.50917024529
0.489726623981499,2048.51917024529
0.488711186103392,2048.52917024529
0.489283071753588,2048.53917024529
0.490714813406415,2048.54917024529
0.492212530483381,2048.55917024529
0.493953513169433,2048.56917024529
0.494168995585222,2048.57917024529
0.493258710769579,2048.58917024529
0.490808825780511,2048.59917024529
0.487708246690659,2048.60917024529
0.482798270163027,2048.61917024529
0.477377540350216,2048.62917024529
0.470583066389827,2048.63917024529
0.462312178802258,2048.64917024529
0.453362051243324,2048.65917024529
0.443801639688133,2048.66917024529
0.43362851729462,2048.67917024529
0.423387230642938,2048.68917024529
0.41286310265283,2048.69917024529
0.402510235526153,2048.70917024529
0.392250567573027,2048.71917024529
0.381724473522113,2048.72917024529
0.371569108278273,2048.73917024529
0.361138697970793,2048.74917024529
0.350556413174597,2048.75917024529
0.339508977907659,2048.76917024529
0.328101583096002,2048.77917024529
0.316689827630871,2048.78917024529
0.305237917994873,2048.79917024529
0.294259189009316,2048.80917024529
0.283367028655384,2048.81917024529
0.272055429239831,2048.82917024529
0.260879283218938,2048.83917024529
0.249335461491131,2048.84917024529
0.238029901156871,2048.85917024529
0.226518643756063,2048.86917024529
0.214813224099541,2048.87917024529
0.203083844887562,2048.88917024529
0.190873122175888,2048.89917024529
0.178659669441803,2048.90917024529
0.166322687637272,2048.91917024529
0.153848557162678,2048.92917024529
0.142064151276784,2048.93917024529
0.130213983463754,2048.94917024529
0.119364512585228,2048.95917024529
0.111803667644757,2048.96917024529
0.109306647786715,2048.97917024529
0.115001709212463,2048.98917024529
0.131355254784512,2048.99917024529
0.158947045582958,2049.00917024529
0.196812678105261,2049.01917024529
0.243374202596765,2049.02917024529
0.29564870078589,2049.03917024529
0.349879960126589,2049.04917024529
0.403660757856484,2049.05917024529
0.453994762989185,2049.06917024529
0.498899557231939,2049.07917024529
0.537334679625653,2049.08917024529
0.569473782708306,2049.09917024529
0.595719334404847,2049.10917024529
0.616184265831171,2049.11917024529
0.633208403137227,2049.12917024529
0.647023451136263,2049.13917024529
0.658443753446464,2049.14917024529
0.668531981670699,2049.15917024529
0.677604543643783,2049.16917024529
0.685820945067304,2049.17917024529
0.693799783129493,2049.18917024529
0.701828375820831,2049.19917024529
0.709427864187953,2049.20917024529
0.715946502109675,2049.21917024529
0.720074245097971,2049.22917024529
0.721545579042267,2049.23917024529
0.719865138625734,2049.24917024529
0.714806209674722,2049.25917024529
0.707526362236288,2049.26917024529
0.698902902838747,2049.27917024529
0.68991673078087,2049.28917024529
0.681481596388689,2049.29917024529
0.673863561795057,2049.30917024529
0.666870506775444,2049.31917024529
0.660568927925972,2049.32917024529
0.655348374653568,2049.33917024529
0.651469170495313,2049.34917024529
0.648133779112363,2049.35917024529
0.645977388089853,2049.36917024529
0.644718889208369,2049.37917024529
0.643540353292958,2049.38917024529
0.642344888051997,2049.39917024529
0.640052468475221,2049.40917024529
0.636730735168094,2049.41917024529
0.632170539953165,2049.42917024529
0.626450557432697,2049.43917024529
0.619435793388374,2049.44917024529
0.611700308246013,2049.45917024529
0.60272620453293,2049.46917024529
0.593287510353373,2049.47917024529
0.583248749267998,2049.48917024529
0.572279554157832,2049.49917024529
0.560924119448014,2049.50917024529
0.549401308521154,2049.51917024529
0.537108195029628,2049.52917024529
0.524360545328633,2049.53917024529
0.511123678568565,2049.54917024529
0.497949765482378,2049.55917024529
0.485247883133751,2049.56917024529
0.472497784495566,2049.57917024529
0.459438308962312,2049.58917024529
0.446643059686151,2049.59917024529
0.433853605020046,2049.60917024529
0.421298969718932,2049.61917024529
0.409089131534025,2049.62917024529
0.397203913405405,2049.63917024529
0.385432309836671,2049.64917024529
0.373155296776119,2049.65917024529
0.360383325279413,2049.66917024529
0.347390116117347,2049.67917024529
0.333365314546686,2049.68917024529
0.319630580451315,2049.69917024529
0.305840905177005,2049.70917024529
0.29172542921423,2049.71917024529
0.277914294239433,2049.72917024529
0.26447715350782,2049.73917024529
0.251251015946507,2049.74917024529
0.237861883775711,2049.75917024529
0.224046637028284,2049.76917024529
0.210468590052758,2049.77917024529
0.197781949362087,2049.78917024529
0.186139883552739,2049.79917024529
0.177370471368859,2049.80917024529
0.173188427807056,2049.81917024529
0.177323499201432,2049.82917024529
0.19137492342552,2049.83917024529
0.217501394154504,2049.84917024529
0.255164985693864,2049.85917024529
0.302224967930758,2049.86917024529
0.356231720928719,2049.87917024529
0.413983276980119,2049.88917024529
0.471040091745109,2049.89917024529
0.525644286641618,2049.90917024529
0.574158623382113,2049.91917024529
0.616858807595085,2049.92917024529
0.652832884641872,2049.93917024529
0.682747533528354,2049.94917024529
0.707745448385954,2049.95917024529
0.727914273133786,2049.96917024529
0.744318176425817,2049.97917024529
0.757904282479791,2049.98917024529
0.769379389449204,2049.99917024529
0.778240808176802,2050.00917024529
0.786062137994662,2050.01917024529
0.79287604430924,2050.02917024529
0.799375465046294,2050.03917024529
0.806036652046368,2050.04917024529
0.811557486472844,2050.05917024529
0.816014342992853,2050.06917024529
0.817740308553384,2050.07917024529
0.815718959503077,2050.08917024529
0.810377934636777,2050.09917024529
0.801508673356681,2050.10917024529
0.789536252486422,2050.11917024529
0.776138324132169,2050.12917024529
0.762878377835942,2050.13917024529
0.750378192110106,2050.14917024529
0.739293472504174,2050.15917024529
0.729513520651823,2050.16917024529
0.7212760400785,2050.17917024529
0.714220459561247,2050.18917024529
0.708341785695007,2050.19917024529
0.703503377735863,2050.20917024529
0.699523074421149,2050.21917024529
0.696500669627814,2050.22917024529
0.693227112708985,2050.23917024529
0.689424210467034,2050.24917024529
0.684783353806385,2050.25917024529
0.679364386560437,2050.26917024529
0.672726266088586,2050.27917024529
0.665101683833763,2050.28917024529
0.656782465269832,2050.29917024529
0.647316532852871,2050.30917024529
0.636777887820048,2050.31917024529
0.624991062067214,2050.32917024529
0.611930595053916,2050.33917024529
0.59846265096107,2050.34917024529
0.584252269685885,2050.35917024529
0.569653098493149,2050.36917024529
0.554985611896168,2050.37917024529
0.53973507504896,2050.38917024529
0.52460416766743,2050.39917024529
0.509403954386913,2050.40917024529
0.493678919274824,2050.41917024529
0.478499300848386,2050.42917024529
0.462931109676119,2050.43917024529
0.447814029135469,2050.44917024529
0.43364530699846,2050.45917024529
0.418732272972558,2050.46917024529
0.404567510945065,2050.47917024529
0.390725477874128,2050.48917024529
0.376780377950194,2050.49917024529
0.363007136773971,2050.50917024529
0.348835400981711,2050.51917024529
0.334257477329423,2050.52917024529
0.319673546809918,2050.53917024529
0.30411921989525,2050.54917024529
0.288130565403283,2050.55917024529
0.271814740588776,2050.56917024529
0.255975780939619,2050.57917024529
0.240470573407219,2050.58917024529
0.224985872490946,2050.59917024529
0.209680070802668,2050.60917024529
0.194187302927053,2050.61917024529
0.179032995313751,2050.62917024529
0.163865997805845,2050.63917024529
0.14938178780254,2050.64917024529
0.13690794538827,2050.65917024529
0.128784195144694,2050.66917024529
0.127596770649536,2050.67917024529
0.136990949097562,2050.68917024529
0.157904235520192,2050.69917024529
0.191412624117037,2050.70917024529
0.235521345377075,2050.71917024529
0.287638287348223,2050.72917024529
0.344713429268379,2050.73917024529
0.40254267815338,2050.74917024529
0.458211625159368,2050.75917024529
0.509217982797945,2050.76917024529
0.553410908109491,2050.77917024529
0.589830604438672,2050.78917024529
0.619559693759501,2050.79917024529
0.64232773468583,2050.80917024529
0.659572481976156,2050.81917024529
0.67219620460946,2050.82917024529
0.681690653188955,2050.83917024529
0.689089333987596,2050.84917024529
0.69412137241582,2050.85917024529
0.697758142464159,2050.86917024529
0.700295679176495,2050.87917024529
0.701398865676359,2050.88917024529
0.702088275061265,2050.89917024529
0.701275584878068,2050.90917024529
0.698994997350063,2050.91917024529
0.69450644983045,2050.92917024529
0.687270100104094,2050.93917024529
0.67760873306852,2050.94917024529
0.665864348331202,2050.95917024529
0.653204834881381,2050.96917024529
0.639796382207363,2050.97917024529
0.627000394423066,2050.98917024529
0.614826978427115,2050.99917024529
0.604474000036376,2051.00917024529
0.595846305351498,2051.01917024529
0.589291039562994,2051.02917024529
0.584657622865965,2051.03917024529
0.582329968065141,2051.04917024529
0.580763473489427,2051.05917024529
0.579753726662149,2051.06917024529
0.578854579978972,2051.07917024529
0.577068153011927,2051.08917024529
0.574299684176604,2051.09917024529
0.569405363350318,2051.10917024529
0.563247265362225,2051.11917024529
0.556125463188938,2051.12917024529
0.548119034504714,2051.13917024529
0.538854615381973,2051.14917024529
0.528955397477194,2051.15917024529
0.517895056306173,2051.16917024529
0.505767542765432,2051.17917024529
0.492858830167352,2051.18917024529
0.479664829603684,2051.19917024529
0.465784801667858,2051.20917024529
0.451952552642965,2051.21917024529
0.43829858162056,2051.22917024529
0.424998759804049,2051.23917024529
0.411775698515759,2051.24917024529
0.399096464259496,2051.25917024529
0.386448880679117,2051.26917024529
0.373518445440349,2051.27917024529
0.360394796639977,2051.28917024529
0.346987820873376,2051.29917024529
0.333656728968108,2051.30917024529
0.319956911379002,2051.31917024529
0.30610347926373,2051.32917024529
0.29212018718775,2051.33917024529
0.278202435373518,2051.34917024529
0.264787568433966,2051.35917024529
0.251193730761355,2051.36917024529
0.237481684896013,2051.37917024529
0.224191718444645,2051.38917024529
0.210551538381652,2051.39917024529
0.196794341699946,2051.40917024529
0.1824798328244,2051.41917024529
0.167799804168764,2051.42917024529
0.152918033179684,2051.43917024529
0.138234986378506,2051.44917024529
0.123951620400567,2051.45917024529
0.110821904617676,2051.46917024529
0.0993196062206774,2051.47917024529
0.0919524900903056,2051.48917024529
0.0909769387359845,2051.49917024529
0.0993934937364842,2051.50917024529
0.119502240851333,2051.51917024529
0.151207041921369,2051.52917024529
0.194000654105431,2051.53917024529
0.245476434610747,2051.54917024529
0.301870356779667,2051.55917024529
0.36035095229951,2051.56917024529
0.416344485881178,2051.57917024529
0.467924874423723,2051.58917024529
0.513272695973391,2051.59917024529
0.551669705070143,2051.60917024529
0.582725616538316,2051.61917024529
0.607423075712022,2051.62917024529
0.626536808919862,2051.63917024529
0.640755888177377,2051.64917024529
0.652162415913395,2051.65917024529
0.660158532048922,2051.66917024529
0.665805089646148,2051.67917024529
0.66973907842362,2051.68917024529
0.672130214291913,2051.69917024529
0.673119921556101,2051.70917024529
0.673159716405491,2051.71917024529
0.671456018893668,2051.72917024529
0.667945341335009,2051.73917024529
0.662248827669517,2051.74917024529
0.653662334315089,2051.75917024529
0.642319477789006,2051.76917024529
0.629165686433227,2051.77917024529
0.614679974429731,2051.78917024529
0.600493402927656,2051.79917024529
0.587558084400571,2051.80917024529
0.576084033955111,2051.81917024529
0.567917807203906,2051.82917024529
0.561879323056092,2051.83917024529
0.558149105184127,2051.84917024529
0.556164907231638,2051.85917024529
0.555388732742661,2051.86917024529
0.555138389625602,2051.87917024529
0.554490543726439,2051.88917024529
0.553265612846249,2051.89917024529
0.550740329634432,2051.90917024529
0.54736988127302,2051.91917024529
0.542627861465411,2051.92917024529
0.536563283986819,2051.93917024529
0.529431451652759,2051.94917024529
0.521230522090918,2051.95917024529
0.511959563010334,2051.96917024529
0.502302079411435,2051.97917024529
0.491965462565676,2051.98917024529
0.480508642678183,2051.99917024529
0.468371280604695,2052.00917024529
0.455921470015601,2052.01917024529
0.442290308548716,2052.02917024529
0.428552036313082,2052.03917024529
0.414418927062683,2052.04917024529
0.401143675175336,2052.05917024529
0.387954995318854,2052.06917024529
0.375331106757267,2052.07917024529
0.36259161885533,2052.08917024529
0.349738142515832,2052.09917024529
0.336839509385863,2052.10917024529
0.323642038991711,2052.11917024529
0.310317158242602,2052.12917024529
0.296870819403401,2052.13917024529
0.283392390600445,2052.14917024529
0.270327164047618,2052.15917024529
0.256981788313278,2052.16917024529
0.243101106356029,2052.17917024529
0.229160455149465,2052.18917024529
0.214804349109853,2052.19917024529
0.199954859273154,2052.20917024529
0.184712103848217,2052.21917024529
0.16966935545896,2052.22917024529
0.153551957053063,2052.23917024529
0.137919390118391,2052.24917024529
0.12235076780778,2052.25917024529
0.10719651423455,2052.26917024529
0.0921047932926845,2052.27917024529
0.0779247778357746,2052.28917024529
0.0643871695769338,2052.29917024529
0.0533747138584145,2052.30917024529
0.0468720721707938,2052.31917024529
0.0481956449316953,2052.32917024529
0.060689191388948,2052.33917024529
0.0854213330281592,2052.34917024529
0.12267461348297,2052.35917024529
0.170220415289424,2052.36917024529
0.226197028628643,2052.37917024529
0.286199501514086,2052.38917024529
0.346739443090785,2052.39917024529
0.404503815325837,2052.40917024529
0.456712080147968,2052.41917024529
0.502099087812453,2052.42917024529
0.539685382300743,2052.43917024529
0.569868467350214,2052.44917024529
0.594186032157994,2052.45917024529
0.613716125234688,2052.46917024529
0.629220487624467,2052.47917024529
0.641606281999519,2052.48917024529
0.651552284343794,2052.49917024529
0.659596320116982,2052.50917024529
0.666069075313132,2052.51917024529
0.671305048094498,2052.52917024529
0.675603882176268,2052.53917024529
0.678849154520384,2052.54917024529
0.681193196139432,2052.55917024529
0.681974839482346,2052.56917024529
0.680688964097622,2052.57917024529
0.67634634693305,2052.58917024529
0.668121183390014,2052.59917024529
0.656707752804385,2052.60917024529
0.643303435603746,2052.61917024529
0.628107515692768,2052.62917024529
0.613073701190372,2052.63917024529
0.599165584704484,2052.64917024529
0.586816915878772,2052.65917024529
0.576838327356433,2052.66917024529
0.568525648055656,2052.67917024529
0.562315928746492,2052.68917024529
0.557724835219428,2052.69917024529
0.55459332205266,2052.70917024529
0.552507346016908,2052.71917024529
0.550675381847834,2052.72917024529
0.548159877907504,2052.73917024529
0.544466448770045,2052.74917024529
0.539653356137467,2052.75917024529
0.533182294868632,2052.76917024529
0.525109999491573,2052.77917024529
0.515483197830521,2052.78917024529
0.50462625390602,2052.79917024529
0.49302090202612,2052.80917024529
0.480511249780743,2052.81917024529
0.467921804145474,2052.82917024529
0.454043404885704,2052.83917024529
0.440399721755983,2052.84917024529
0.426299758737964,2052.85917024529
0.411901009709287,2052.86917024529
0.397660344200347,2052.87917024529
0.382532623090777,2052.88917024529
0.366790917678975,2052.89917024529
0.351472878326432,2052.90917024529
0.335507829822251,2052.91917024529
0.320221798986053,2052.92917024529
0.30499106093136,2052.93917024529
0.289869722590987,2052.94917024529
0.27519649223133,2052.95917024529
0.26060305840632,2052.96917024529
0.246355207702635,2052.97917024529
0.231399911311364,2052.98917024529
0.216420095599228,2052.99917024529
0.201043825797363,2053.00917024529
0.186031465525697,2053.01917024529
0.171125656013747,2053.02917024529
0.156087290371437,2053.03917024529
0.140914397397008,2053.04917024529
0.125287186780739,2053.05917024529
0.108904359269513,2053.06917024529
0.0920081803009263,2053.07917024529
0.0753442416471957,2053.08917024529
0.0587053098441524,2053.09917024529
0.0422583545890121,2053.10917024529
0.0262920013844383,2053.11917024529
0.0111843372008452,2053.12917024529
-0.00260221568792581,2053.13917024529
-0.0124513523600474,2053.14917024529
-0.0162093929568365,2053.15917024529
-0.00987858546896007,2053.16917024529
0.00811409120894565,2053.17917024529
0.0389151168473146,2053.18917024529
0.0814066658624372,2053.19917024529
0.132965361436932,2053.20917024529
0.190740788712273,2053.21917024529
0.249448172330058,2053.22917024529
0.306488550919407,2053.23917024529
0.359794721318765,2053.24917024529
0.406970611131253,2053.25917024529
0.447010784087515,2053.26917024529
0.479724883813013,2053.27917024529
0.505916073383318,2053.28917024529
0.526010230562851,2053.29917024529
0.541099614839091,2053.30917024529
0.55199683694302,2053.31917024529
0.559745032165126,2053.32917024529
0.565329375395062,2053.33917024529
0.569169937636544,2053.34917024529
0.571761487717258,2053.35917024529
0.573568847573472,2053.36917024529
0.574387943570538,2053.37917024529
0.573924936164876,2053.38917024529
0.571794963160564,2053.39917024529
0.567310809480559,2053.40917024529
0.559425143285226,2053.41917024529
0.549300870934901,2053.42917024529
0.536378493465338,2053.43917024529
0.522274540511541,2053.44917024529
0.507672899125298,2053.45917024529
0.494020865533255,2053.46917024529
0.481963809530601,2053.47917024529
0.471659065488056,2053.48917024529
0.463243541123021,2053.49917024529
0.45737809053177,2053.50917024529
0.453011910551995,2053.51917024529
0.451024121779182,2053.52917024529
0.450301262257587,2053.53917024529
0.450648264042053,2053.54917024529
0.451523427950374,2053.55917024529
0.451879679487404,2053.56917024529
0.451137774356111,2053.57917024529
0.448685443329607,2053.58917024529
0.444924230003227,2053.59917024529
0.439583659134652,2053.60917024529
0.432402944938032,2053.61917024529
0.423951431960553,2053.62917024529
0.413689636954388,2053.63917024529
0.402493134396024,2053.64917024529
0.390505298721342,2053.65917024529
0.377158508292411,2053.66917024529
0.363389657551433,2053.67917024529
0.348971347942411,2053.68917024529
0.334274050645859,2053.69917024529
0.319093441800469,2053.70917024529
0.303694563738172,2053.71917024529
0.288948497605841,2053.72917024529
0.274623888026717,2053.73917024529
0.261021277316023,2053.74917024529
0.248091776295047,2053.75917024529
0.234918691756254,2053.76917024529
0.221481281482236,2053.77917024529
0.207495216753534,2053.78917024529
0.192926996437295,2053.79917024529
0.178379245216046,2053.80917024529
0.163821938420455,2053.81917024529
0.149567186331442,2053.82917024529
0.135786475719831,2053.83917024529
0.121925530988292,2053.84917024529
0.108224262587625,2053.85917024529
0.09491126858308,2053.86917024529
0.0817421512111031,2053.87917024529
0.069349692537395,2053.88917024529
0.0572330505165097,2053.89917024529
0.045736580852738,2053.90917024529
0.034670768488729,2053.91917024529
0.0246419177536018,2053.92917024529
0.0174070276658383,2053.93917024529
0.0152386936197511,2053.94917024529
0.0219162948201511,2053.95917024529
0.0410913405649828,2053.96917024529
0.073830054064356,2053.97917024529
0.1205810498943,2053.98917024529
0.179417607047443,2053.99917024529
0.24609806954991,2054.00917024529
0.317205914617696,2054.01917024529
0.387754688379019,2054.02917024529
0.454875564442546,2054.03917024529
0.515196159928925,2054.04917024529
0.567197185719007,2054.05917024529
0.609698050035027,2054.06917024529
0.643616954565941,2054.07917024529
0.669724976720998,2054.08917024529
0.688988124097338,2054.09917024529
0.702900319894823,2054.10917024529
0.713294155382454,2054.11917024529
0.720693667845139,2054.12917024529
0.726311678263967,2054.13917024529
0.730641534496964,2054.14917024529
0.733576129872239,2054.15917024529
0.735580659026123,2054.16917024529
0.736167782197419,2054.17917024529
0.735799978418882,2054.18917024529
0.732956243099387,2054.19917024529
0.727674936091246,2054.20917024529
0.719729336949014,2054.21917024529
0.708759514546339,2054.22917024529
0.69523077682301,2054.23917024529
0.680591595868812,2054.24917024529
0.665555071781114,2054.25917024529
0.650936555528762,2054.26917024529
0.63765927738814,2054.27917024529
0.625549783412129,2054.28917024529
0.615193450845804,2054.29917024529
0.607107933094415,2054.30917024529
0.600966900151001,2054.31917024529
0.596337834050895,2054.32917024529
0.592499088960388,2054.33917024529
0.588749765983215,2054.34917024529
0.585073745114094,2054.35917024529
0.580351153493181,2054.36917024529
0.574756788216626,2054.37917024529
0.568375771007261,2054.38917024529
0.560586893956998,2054.39917024529
0.551384445596205,2054.40917024529
0.540521980806671,2054.41917024529
0.528057799527648,2054.42917024529
0.515090775725392,2054.43917024529
0.50124450806727,2054.44917024529
0.487126903546564,2054.45917024529
0.472862571104722,2054.46917024529
0.458429472909393,2054.47917024529
0.443710770640671,2054.48917024529
0.428208645665706,2054.49917024529
0.411808605219278,2054.50917024529
0.395432230417759,2054.51917024529
0.378846950988505,2054.52917024529
0.36309907932387,2054.53917024529
0.347306548420774,2054.54917024529
0.331807396847249,2054.55917024529
0.31652000514067,2054.56917024529
0.300274118209718,2054.57917024529
0.284388627771727,2054.58917024529
0.268507206870791,2054.59917024529
0.252700462106073,2054.60917024529
0.236666194760116,2054.61917024529
0.221079008812852,2054.62917024529
0.20605960793439,2054.63917024529
0.19092587400711,2054.64917024529
0.176477008807174,2054.65917024529
0.161736333637564,2054.66917024529
0.14628321000193,2054.67917024529
0.130787481387376,2054.68917024529
0.114893997889069,2054.69917024529
0.0984022511711494,2054.70917024529
0.0817159723182483,2054.71917024529
0.065240943816332,2054.72917024529
0.0481291280466556,2054.73917024529
0.0311435688104387,2054.74917024529
0.0140132777240071,2054.75917024529
-0.00282977563529089,2054.76917024529
-0.0193947402400291,2054.77917024529
-0.0350248502345704,2054.78917024529
-0.0489252492578144,2054.79917024529
-0.0585040824331876,2054.80917024529
-0.0599937651972856,2054.81917024529
-0.0506972610767643,2054.82917024529
-0.0278226909429696,2054.83917024529
0.00794462785774522,2054.84917024529
0.0557979396193797,2054.85917024529
0.111375208621432,2054.86917024529
0.171431395578418,2054.87917024529
0.231502571543979,2054.88917024529
0.288181545805164,2054.89917024529
0.339486194191811,2054.90917024529
0.3832898801249,2054.91917024529
0.419941474863306,2054.92917024529
0.449428261484726,2054.93917024529
0.472860428206095,2054.94917024529
0.490503022206528,2054.95917024529
0.503573445082272,2054.96917024529
0.51359333130475,2054.97917024529
0.520832837047922,2054.98917024529
0.526556428032606,2054.99917024529
0.531862772002059,2055.00917024529
0.536490756010573,2055.01917024529
0.540716049740438,2055.02917024529
0.544116933838023,2055.03917024529
0.546628063964619,2055.04917024529
0.547788118523273,2055.05917024529
0.546477257283943,2055.06917024529
0.542336017074625,2055.07917024529
0.535196684520457,2055.08917024529
0.524587089563088,2055.09917024529
0.511515798034997,2055.10917024529
0.497287408180809,2055.11917024529
0.482832907454157,2055.12917024529
0.469184911110256,2055.13917024529
0.456275063619224,2055.14917024529
0.444703593269017,2055.15917024529
0.434188485898845,2055.16917024529
0.42507391711906,2055.17917024529
0.417157889855961,2055.18917024529
0.411297493747566,2055.19917024529
0.406425367380683,2055.20917024529
0.401895014247531,2055.21917024529
0.39776306539021,2055.22917024529
0.392517923660733,2055.23917024529
0.386320533396653,2055.24917024529
0.378954548218201,2055.25917024529
0.37036326862507,2055.26917024529
0.360913334953674,2055.27917024529
0.350955409861569,2055.28917024529
0.340179562675564,2055.29917024529
0.328515400589502,2055.30917024529
0.316032551310666,2055.31917024529
0.303163655335268,2055.32917024529
0.289640383062884,2055.33917024529
0.275305724223576,2055.34917024529
0.26068235113107,2055.35917024529
0.245259095742917,2055.36917024529
0.228904428619429,2055.37917024529
0.212850893448938,2055.38917024529
0.196423720629666,2055.39917024529
0.180098748835678,2055.40917024529
0.163871325116525,2055.41917024529
0.147767026941099,2055.42917024529
0.131674799153907,2055.43917024529
0.115679683201096,2055.44917024529
0.0991885607920912,2055.45917024529
0.0821029281910189,2055.46917024529
0.0654961078188742,2055.47917024529
0.0484451025525929,2055.48917024529
0.0325118955132043,2055.49917024529
0.0166503536617088,2055.50917024529
0.000804245506440786,2055.51917024529
-0.0151520808133297,2055.52917024529
-0.0311288065648049,2055.53917024529
-0.0473235479359512,2055.54917024529
-0.0632569869883505,2055.55917024529
-0.0787980408321395,2055.56917024529
-0.0940650122520486,2055.57917024529
-0.10900652147859,2055.58917024529
-0.124431386688417,2055.59917024529
-0.139913614134863,2055.60917024529
-0.156266318981522,2055.61917024529
-0.173179991778951,2055.62917024529
-0.190313960574235,2055.63917024529
-0.207531031186862,2055.64917024529
-0.224440635034889,2055.65917024529
-0.240393336375959,2055.66917024529
-0.253891421265231,2055.67917024529
-0.263266705919477,2055.68917024529
-0.265606976043334,2055.69917024529
-0.257995469136777,2055.70917024529
-0.238396664474009,2055.71917024529
-0.206985289932074,2055.72917024529
-0.164870602599264,2055.73917024529
-0.116800027468042,2055.74917024529
-0.0657295844946847,2055.75917024529
-0.0151460338937003,2055.76917024529
0.0317355436184048,2055.77917024529
0.072762039909003,2055.78917024529
0.10656139154587,2055.79917024529
0.133050910502021,2055.80917024529
0.152491309963102,2055.81917024529
0.1666168210596,2055.82917024529
0.175780178846778,2055.83917024529
0.182088334450877,2055.84917024529
0.185757578387224,2055.85917024529
0.188164595942787,2055.86917024529
0.190165486759038,2055.87917024529
0.192108556550319,2055.88917024529
0.194115148870474,2055.89917024529
0.195449691961508,2055.90917024529
0.196766699222401,2055.91917024529
0.197138668201202,2055.92917024529
0.195487872901666,2055.93917024529
0.191701931280398,2055.94917024529
0.185148294068819,2055.95917024529
0.175849700399967,2055.96917024529
0.164544621946149,2055.97917024529
0.152126116938552,2055.98917024529
0.139294893515006,2055.99917024529
0.126702384306456,2056.00917024529
0.114901573340236,2056.01917024529
0.103992310076301,2056.02917024529
0.0947768822316104,2056.03917024529
0.0874768711639772,2056.04917024529
0.0819394249357562,2056.05917024529
0.0781887071629628,2056.06917024529
0.075135171548311,2056.07917024529
0.0734513119320412,2056.08917024529
0.071853495339853,2056.09917024529
0.0700750809706615,2056.10917024529
0.0674544875035834,2056.11917024529
0.0636395209134064,2056.12917024529
0.0585548617986475,2056.13917024529
0.0519201565737774,2056.14917024529
0.0444926768969713,2056.15917024529
0.0358023383546247,2056.16917024529
0.0264165047912099,2056.17917024529
0.0158573308314938,2056.18917024529
0.00467109154922832,2056.19917024529
-0.00736927036895712,2056.20917024529
-0.0199338435832423,2056.21917024529
-0.0323965805020369,2056.22917024529
-0.0459758842948822,2056.23917024529
-0.0596298853765025,2056.24917024529
-0.0737088679852094,2056.25917024529
-0.0879026006552739,2056.26917024529
-0.101613227219845,2056.27917024529
-0.114905647510277,2056.28917024529
-0.128571853785245,2056.29917024529
-0.142036764228797,2056.30917024529
-0.155647047740926,2056.31917024529
-0.169288649038157,2056.32917024529
-0.182571840468982,2056.33917024529
-0.195520381326803,2056.34917024529
-0.20894643114686,2056.35917024529
-0.222364949199553,2056.36917024529
-0.236069276279957,2056.37917024529
-0.250120874212489,2056.38917024529
-0.263899562584674,2056.39917024529
-0.278248309773459,2056.40917024529
-0.2924442010808,2056.41917024529
-0.306696287115961,2056.42917024529
-0.320660833627544,2056.43917024529
-0.334416747735171,2056.44917024529
-0.347936583955285,2056.45917024529
-0.361861295409958,2056.46917024529
-0.375833281698493,2056.47917024529
-0.38993200844229,2056.48917024529
-0.40329511810492,2056.49917024529
-0.414685778278301,2056.50917024529
-0.422906769424004,2056.51917024529
-0.424988739575148,2056.52917024529
-0.41850568030183,2056.53917024529
-0.401874736014596,2056.54917024529
-0.374342548394087,2056.55917024529
-0.33772397868111,2056.56917024529
-0.295218989637531,2056.57917024529
-0.250199674160822,2056.58917024529
-0.20612015436357,2056.59917024529
-0.16602221360548,2056.60917024529
-0.131846250686028,2056.61917024529
-0.103934074180674,2056.62917024529
-0.0823608276983386,2056.63917024529
-0.066576999962957,2056.64917024529
-0.0564300750978375,2056.65917024529
-0.0502533458193877,2056.66917024529
-0.0470562007781008,2056.67917024529
-0.0461913313655981,2056.68917024529
-0.0463101096273891,2056.69917024529
-0.0475043939886128,2056.70917024529
-0.0491701865786599,2056.71917024529
-0.050607963326651,2056.72917024529
-0.0521882735151875,2056.73917024529
-0.0537354573974843,2056.74917024529
-0.056191221610911,2056.75917024529
-0.0600078641836023,2056.76917024529
-0.0654256823976639,2056.77917024529
-0.0733952861146286,2056.78917024529
-0.0833421602279688,2056.79917024529
-0.0944462897595448,2056.80917024529
-0.105461504197519,2056.81917024529
-0.115741987466243,2056.82917024529
-0.124298357584301,2056.83917024529
-0.130471196110528,2056.84917024529
-0.134500517618405,2056.85917024529
-0.136703042902858,2056.86917024529
-0.13770683242593,2056.87917024529
-0.137552351809428,2056.88917024529
-0.135988002249131,2056.89917024529
-0.135309698285842,2056.90917024529
-0.134980295592886,2056.91917024529
-0.136009947730505,2056.92917024529
-0.138464879798142,2056.93917024529
-0.141912511734766,2056.94917024529
-0.146544269148312,2056.95917024529
-0.152172398941519,2056.96917024529
-0.15918689767529,2056.97917024529
-0.167358353121208,2056.98917024529
-0.176850700837649,2056.99917024529
-0.186191215224525,2057.00917024529
-0.196555461777017,2057.01917024529
-0.207652981602614,2057.02917024529
-0.218669759207455,2057.03917024529
-0.229947191264111,2057.04917024529
-0.24158627376731,2057.05917024529
-0.252960716920476,2057.06917024529
-0.26428459403112,2057.07917024529
-0.274759740279579,2057.08917024529
-0.28455536888863,2057.09917024529
-0.294059926253895,2057.10917024529
-0.30390720516112,2057.11917024529
-0.314034961305919,2057.12917024529
-0.324141232292048,2057.13917024529
-0.334633667026857,2057.14917024529
-0.344600392667506,2057.15917024529
-0.354366942337054,2057.16917024529
-0.364527585294426,2057.17917024529
-0.374053693436963,2057.18917024529
-0.384287897108428,2057.19917024529
-0.394646468684062,2057.20917024529
-0.405406456954013,2057.21917024529
-0.416707648505029,2057.22917024529
-0.428078317800712,2057.23917024529
-0.440033508164975,2057.24917024529
-0.452130890849661,2057.25917024529
-0.464616870563635,2057.26917024529
-0.477378004851022,2057.27917024529
-0.490642518766814,2057.28917024529
-0.504226276016786,2057.29917024529
-0.516805763684639,2057.30917024529
-0.527361938668447,2057.31917024529
-0.534036839352735,2057.32917024529
-0.533253479155377,2057.33917024529
-0.523573733404972,2057.34917024529
-0.502277304524924,2057.35917024529
-0.470220572614962,2057.36917024529
-0.430118094507206,2057.37917024529
-0.38466938101029,2057.38917024529
-0.337581315763245,2057.39917024529
-0.292755739192059,2057.40917024529
-0.251563816001491,2057.41917024529
-0.216111321812156,2057.42917024529
-0.187682864631757,2057.43917024529
-0.165944809260486,2057.44917024529
-0.149275377848337,2057.45917024529
-0.136580144812747,2057.46917024529
-0.12737515426001,2057.47917024529
-0.120276364489566,2057.48917024529
-0.114202329802751,2057.49917024529
-0.109350137776895,2057.50917024529
-0.105015075792856,2057.51917024529
-0.101049141123248,2057.52917024529
-0.0972913318778705,2057.53917024529
-0.0933636882473909,2057.54917024529
-0.0897464026428681,2057.55917024529
-0.0865893110573315,2057.56917024529
-0.0841586023130671,2057.57917024529
-0.0832112486151455,2057.58917024529
-0.084707677537572,2057.59917024529
-0.0882870640322992,2057.60917024529
-0.0942009042702827,2057.61917024529
-0.101703373476891,2057.62917024529
-0.1090947316726,2057.63917024529
-0.11611249331265,2057.64917024529
-0.121718585624922,2057.65917024529
-0.125950945797958,2057.66917024529
-0.129001455853523,2057.67917024529
-0.130496346359213,2057.68917024529
-0.130627843917791,2057.69917024529
-0.130186067289344,2057.70917024529
-0.129327773767331,2057.71917024529
-0.127920151291809,2057.72917024529
-0.127083065077055,2057.73917024529
-0.126951729085571,2057.74917024529
-0.127969921513445,2057.75917024529
-0.130017352820945,2057.76917024529
-0.133250016456681,2057.77917024529
-0.137721019493955,2057.78917024529
-0.142966367195543,2057.79917024529
-0.14904806567481,2057.80917024529
-0.155852994071225,2057.81917024529
-0.163754880536849,2057.82917024529
-0.17274238366284,2057.83917024529
-0.182435071927494,2057.84917024529
-0.192535114439765,2057.85917024529
-0.202329730529976,2057.86917024529
-0.212071634903797,2057.87917024529
-0.221914221832256,2057.88917024529
-0.231300988962978,2057.89917024529
-0.240463701849366,2057.90917024529
-0.249293875160134,2057.91917024529
-0.258153071040152,2057.92917024529
-0.267089557377814,2057.93917024529
-0.276815738400963,2057.94917024529
-0.286845710301295,2057.95917024529
-0.297032078393768,2057.96917024529
-0.307310096218825,2057.97917024529
-0.317833553063799,2057.98917024529
-0.327635303301266,2057.99917024529
-0.337393093594054,2058.00917024529
-0.346673982254434,2058.01917024529
-0.355840745032944,2058.02917024529
-0.365100955117071,2058.03917024529
-0.374535758258253,2058.04917024529
-0.383937866195677,2058.05917024529
-0.393610801488322,2058.06917024529
-0.403527960639915,2058.07917024529
-0.413820672293321,2058.08917024529
-0.424688929385165,2058.09917024529
-0.435667222631986,2058.10917024529
-0.44703342986928,2058.11917024529
-0.458629366794041,2058.12917024529
-0.470446215585878,2058.13917024529
-0.482504725345425,2058.14917024529
-0.494665383409683,2058.15917024529
-0.506244662899361,2058.16917024529
-0.516867172907823,2058.17917024529
-0.526848452597167,2058.18917024529
-0.536074156121847,2058.19917024529
-0.543786325012701,2058.20917024529
-0.547553592956008,2058.21917024529
-0.544309018269423,2058.22917024529
-0.531680843466962,2058.23917024529
-0.507904499558739,2058.24917024529
-0.473753977137592,2058.25917024529
-0.431544361156029,2058.26917024529
-0.385084924407369,2058.27917024529
-0.337844722995748,2058.28917024529
-0.292335728996588,2058.29917024529
-0.25044630378769,2058.30917024529
-0.213264539148986,2058.31917024529
-0.182414033981857,2058.32917024529
-0.157444173958454,2058.33917024529
-0.137849362866714,2058.34917024529
-0.12298692552297,2058.35917024529
-0.111418601066237,2058.36917024529
-0.102122646963149,2058.37917024529
-0.0942340272901841,2058.38917024529
-0.0870630437867912,2058.39917024529
-0.0803563174966765,2058.40917024529
-0.0737111968245033,2058.41917024529
-0.0670520509559766,2058.42917024529
-0.0612357585478656,2058.43917024529
-0.0552820050275883,2058.44917024529
-0.0502536975096694,2058.45917024529
-0.046856824692304,2058.46917024529
-0.0446422433727813,2058.47917024529
-0.044810978963578,2058.48917024529
-0.0473135323631952,2058.49917024529
-0.0522947514825628,2058.50917024529
-0.0590607379275734,2058.51917024529
-0.0681446818995006,2058.52917024529
-0.0782073003823419,2058.53917024529
-0.0881853670250377,2058.54917024529
-0.0973067497435104,2058.55917024529
-0.104795577875199,2058.56917024529
-0.109821523142008,2058.57917024529
-0.113603137374638,2058.58917024529
-0.115904144044257,2058.59917024529
-0.117200467737898,2058.60917024529
-0.117960509962301,2058.61917024529
-0.118213509021853,2058.62917024529
-0.118369269508747,2058.63917024529
-0.119455596158932,2058.64917024529
-0.121227933252736,2058.65917024529
-0.124691839958234,2058.66917024529
-0.130546872806725,2058.67917024529
-0.137409233016549,2058.68917024529
-0.145561425245853,2058.69917024529
-0.154187997307105,2058.70917024529
-0.163632324455067,2058.71917024529
-0.17332770375389,2058.72917024529
-0.183073509065929,2058.73917024529
-0.193184567736123,2058.74917024529
-0.203349590096392,2058.75917024529
-0.214078539581896,2058.76917024529
-0.22531140485697,2058.77917024529
-0.236828171121858,2058.78917024529
-0.248722176169911,2058.79917024529
-0.260614433979822,2058.80917024529
-0.272617276871238,2058.81917024529
-0.28493123811805,2058.82917024529
-0.296848110326637,2058.83917024529
-0.308572432082405,2058.84917024529
-0.319128876453516,2058.85917024529
-0.329039178995394,2058.86917024529
-0.338811990623949,2058.87917024529
-0.348147273890779,2058.88917024529
-0.357395102848591,2058.89917024529
-0.366943639096691,2058.90917024529
-0.376740856566399,2058.91917024529
-0.387119145153242,2058.92917024529
-0.397990562559816,2058.93917024529
-0.409172266796103,2058.94917024529
-0.420859822815202,2058.95917024529
-0.432570169684301,2058.96917024529
-0.443946348270117,2058.97917024529
-0.455285107421598,2058.98917024529
-0.466870366806342,2058.99917024529
-0.478120452724233,2059.00917024529
-0.489988097961804,2059.01917024529
-0.501505207872384,2059.02917024529
-0.512923407427732,2059.03917024529
-0.524299735054772,2059.04917024529
-0.535176580555044,2059.05917024529
-0.545657525151992,2059.06917024529
-0.556401856821094,2059.07917024529
-0.566124358418508,2059.08917024529
-0.573374492557687,2059.09917024529
-0.575449939352475,2059.10917024529
-0.569199290156528,2059.11917024529
-0.552019363942095,2059.12917024529
-0.524207063271739,2059.13917024529
-0.487360769691826,2059.14917024529
-0.443831695265744,2059.15917024529
-0.39732045574935,2059.16917024529
-0.351369117405131,2059.17917024529
-0.308240555241539,2059.18917024529
-0.270023097443323,2059.19917024529
-0.236424690358722,2059.20917024529
-0.208769959357653,2059.21917024529
-0.186784499666712,2059.22917024529
-0.168946255505307,2059.23917024529
-0.154862625265284,2059.24917024529
-0.144620230736164,2059.25917024529
-0.136786269917488,2059.26917024529
-0.130695892211235,2059.27917024529
-0.125546429932749,2059.28917024529
-0.120758395223433,2059.29917024529
-0.116294639373603,2059.30917024529
-0.111627762756569,2059.31917024529
-0.106983966072973,2059.32917024529
-0.102500213061183,2059.33917024529
-0.0992613108072772,2059.34917024529
-0.0981585932638436,2059.35917024529
-0.0998012888594018,2059.36917024529
-0.103592645632536,2059.37917024529
-0.109680327281163,2059.38917024529
-0.117259411132056,2059.39917024529
-0.124923125524976,2059.40917024529
-0.132650554488193,2059.41917024529
-0.139007786203358,2059.42917024529
-0.143746550398172,2059.43917024529
-0.146057959006123,2059.44917024529
-0.146812842651806,2059.45917024529
-0.146184662194453,2059.46917024529
-0.143952592615946,2059.47917024529
-0.141258333104768,2059.48917024529
-0.138844609713349,2059.49917024529
-0.136640597024948,2059.50917024529
-0.135809393251872,2059.51917024529
-0.135735499540882,2059.52917024529
-0.137627544453481,2059.53917024529
-0.140829719891701,2059.54917024529
-0.14542413072421,2059.55917024529
-0.150322015320308,2059.56917024529
-0.155525019032615,2059.57917024529
-0.161187192584981,2059.58917024529
-0.167611606388505,2059.59917024529
-0.174769604905882,2059.60917024529
-0.182213435350504,2059.61917024529
-0.190362128802213,2059.62917024529
-0.199260914394797,2059.63917024529
-0.208475932773971,2059.64917024529
-0.218400203357572,2059.65917024529
-0.228049250935585,2059.66917024529
-0.237844061784213,2059.67917024529
-0.246986353896053,2059.68917024529
-0.255893662732718,2059.69917024529
-0.264687350627616,2059.70917024529
-0.273384049848249,2059.71917024529
-0.282185857878573,2059.72917024529
-0.29119080641244,2059.73917024529
-0.300576516984158,2059.74917024529
-0.309589841669283,2059.75917024529
-0.319212073039255,2059.76917024529
-0.328516184211951,2059.77917024529
-0.338330972956925,2059.78917024529
-0.347775939188915,2059.79917024529
-0.357581129171969,2059.80917024529
-0.367088057965879,2059.81917024529
-0.377123481793991,2059.82917024529
-0.386948449468251,2059.83917024529
-0.397618224407575,2059.84917024529
-0.408035875719781,2059.85917024529
-0.418810298505999,2059.86917024529
-0.429788449413289,2059.87917024529
-0.44110437762235,2059.88917024529
-0.452425948061089,2059.89917024529
-0.46408820503569,2059.90917024529
-0.475948734085238,2059.91917024529
-0.48682168393116,2059.92917024529
-0.495000885190423,2059.93917024529
-0.4984783123478,2059.94917024529
-0.494031325991894,2059.95917024529
-0.479768172460475,2059.96917024529
-0.454638634216378,2059.97917024529
-0.419524998383126,2059.98917024529
-0.376725719671132,2059.99917024529
-0.329374855276381,2060.00917024529
-0.280757532763231,2060.01917024529
-0.233116531424812,2060.02917024529
-0.189120174754764,2060.03917024529
-0.149937555973363,2060.04917024529
-0.115984826014289,2060.05917024529
-0.0870058033821757,2060.06917024529
-0.0636769137206033,2060.07917024529
-0.0458275527420587,2060.08917024529
-0.0326530527943296,2060.09917024529
-0.0236209106566743,2060.10917024529
-0.0175380843284792,2060.11917024529
-0.0121434464679931,2060.12917024529
-0.00718972087425863,2060.13917024529
-0.0019943290456516,2060.14917024529
0.00294646126952295,2060.15917024529
0.0074192821774197,2060.16917024529
0.0111068000645094,2060.17917024529
0.0131527276686438,2060.18917024529
0.0134567777727762,2060.19917024529
0.0114158933471698,2060.20917024529
0.00675352952452522,2060.21917024529
0.00104688124258437,2060.22917024529
-0.00431525013368055,2060.23917024529
-0.00995337912364313,2060.24917024529
-0.015188971798988,2060.25917024529
-0.0198027744520239,2060.26917024529
-0.0229947720472186,2060.27917024529
-0.025269949436507,2060.28917024529
-0.0258233062849271,2060.29917024529
-0.0246926909744834,2060.30917024529
-0.0218625512358349,2060.31917024529
-0.0178352117059386,2060.32917024529
-0.0130545922746025,2060.33917024529
-0.00793914036094591,2060.34917024529
-0.00376782331426332,2060.35917024529
-0.000630228974347294,2060.36917024529
0.000523332061366822,2060.37917024529
-0.000591314439963407,2060.38917024529
-0.0038367104084536,2060.39917024529
-0.00892811868599504,2060.40917024529
-0.0158734680667415,2060.41917024529
-0.024874439346854,2060.42917024529
-0.0353023604202998,2060.43917024529
-0.0473630893546277,2060.44917024529
-0.0604427268981925,2060.45917024529
-0.074062716176408,2060.46917024529
-0.08832345361785,2060.47917024529
-0.103411048289262,2060.48917024529
-0.119309218663772,2060.49917024529
-0.135310138108497,2060.50917024529
-0.151341583089353,2060.51917024529
-0.166962278397011,2060.52917024529
-0.181773053959372,2060.53917024529
-0.195989433086849,2060.54917024529
-0.209666406774801,2060.55917024529
-0.222988514934154,2060.56917024529
-0.236413685000046,2060.57917024529
-0.249317911776655,2060.58917024529
-0.26156203379734,2060.59917024529
-0.272639078503041,2060.60917024529
-0.283113569513621,2060.61917024529
-0.292933928271856,2060.62917024529
-0.303462472626923,2060.63917024529
-0.314922883196769,2060.64917024529
-0.327305531210519,2060.65917024529
-0.34096643137538,2060.66917024529
-0.355574049681695,2060.67917024529
-0.370999433126183,2060.68917024529
-0.386788300710513,2060.69917024529
-0.402641558985873,2060.70917024529
-0.418362070359147,2060.71917024529
-0.432764996704037,2060.72917024529
-0.446805013514905,2060.73917024529
-0.460702635933389,2060.74917024529
-0.474628130919368,2060.75917024529
-0.489488510560124,2060.76917024529
-0.504491628563077,2060.77917024529
-0.518678834801649,2060.78917024529
-0.529857346257101,2060.79917024529
-0.535689344767664,2060.80917024529
-0.532812786373394,2060.81917024529
-0.518923184151688,2060.82917024529
-0.492717257890794,2060.83917024529
-0.455295641046272,2060.84917024529
-0.409054286828395,2060.85917024529
-0.358016739480969,2060.86917024529
-0.305489993598795,2060.87917024529
-0.255140564746762,2060.88917024529
-0.208501811420412,2060.89917024529
-0.167571418622086,2060.90917024529
-0.133348117285921,2060.91917024529
-0.105059332357323,2060.92917024529
-0.0826014016368626,2060.93917024529
-0.0647748249862781,2060.94917024529
-0.0505007366209463,2060.95917024529
-0.0392293029951232,2060.96917024529
-0.0292826082073528,2060.97917024529
-0.0213529144335143,2060.98917024529
-0.0146309637554243,2060.99917024529
-0.00920072941931145,2061.00917024529
-0.00557820202845641,2061.01917024529
-0.00309695727771299,2061.02917024529
-0.00140180547376943,2061.03917024529
-0.000789301569842322,2061.04917024529
-0.000796885052502388,2061.05917024529
-0.00195324310787456,2061.06917024529
-0.00490217538835076,2061.07917024529
-0.009802641810284,2061.08917024529
-0.0167654508185288,2061.09917024529
-0.025267566549449,2061.10917024529
-0.0349829507292738,2061.11917024529
-0.0450749633882289,2061.12917024529
-0.0539792878283774,2061.13917024529
-0.0617673420328197,2061.14917024529
-0.0684383000129481,2061.15917024529
-0.0739022046130861,2061.16917024529
-0.0783163625037448,2061.17917024529
-0.0822116853573962,2061.18917024529
-0.0857928348928348,2061.19917024529
-0.0895688788388351,2061.20917024529
-0.0939834806717256,2061.21917024529
-0.0994325385838705,2061.22917024529
-0.106468750493998,2061.23917024529
-0.11498355018697,2061.24917024529
-0.124212014585053,2061.25917024529
-0.134120626214409,2061.26917024529
-0.14523048386462,2061.27917024529
-0.156321256033957,2061.28917024529
-0.167501374265016,2061.29917024529
-0.178662287186012,2061.30917024529
-0.18994727165886,2061.31917024529
-0.201569047254716,2061.32917024529
-0.213134608722544,2061.33917024529
-0.225536892166911,2061.34917024529
-0.238703343351589,2061.35917024529
-0.252118026815539,2061.36917024529
-0.266368226373862,2061.37917024529
-0.28044121115661,2061.38917024529
-0.294345236399087,2061.39917024529
-0.307913975038788,2061.40917024529
-0.321099024109717,2061.41917024529
-0.334776786121152,2061.42917024529
-0.348510574727521,2061.43917024529
-0.361980176816433,2061.44917024529
-0.375557389571377,2061.45917024529
-0.38953477631635,2061.46917024529
-0.403418868034832,2061.47917024529
-0.417539830559252,2061.48917024529
-0.43207589207539,2061.49917024529
-0.446182104747748,2061.50917024529
-0.459995746572793,2061.51917024529
-0.473324055409566,2061.52917024529
-0.487125089466854,2061.53917024529
-0.500651119186071,2061.54917024529
-0.513912900854378,2061.55917024529
-0.526734219291149,2061.56917024529
-0.539443837342209,2061.57917024529
-0.552351194390196,2061.58917024529
-0.565350811569157,2061.59917024529
-0.578080382842504,2061.60917024529
-0.590768932213875,2061.61917024529
-0.603358356095175,2061.62917024529
-0.615606705477939,2061.63917024529
-0.627645166601258,2061.64917024529
-0.638355547865026,2061.65917024529
-0.648538735710839,2061.66917024529
-0.655109801187404,2061.67917024529
-0.656505528388316,2061.68917024529
-0.649190531362681,2061.69917024529
-0.630723446355712,2061.70917024529
-0.601596832979449,2061.71917024529
-0.562938911381956,2061.72917024529
-0.517613775565915,2061.73917024529
-0.469502754550631,2061.74917024529
-0.422268091846868,2061.75917024529
-0.379507810461889,2061.76917024529
-0.343035318418811,2061.77917024529
-0.313565328007486,2061.78917024529
-0.289823496584806,2061.79917024529
-0.271477154067292,2061.80917024529
-0.258363307578232,2061.81917024529
-0.248752604856931,2061.82917024529
-0.243101396099845,2061.83917024529
-0.239768692995765,2061.84917024529
-0.237938555360385,2061.85917024529
-0.237326559179504,2061.86917024529
-0.237607159787689,2061.87917024529
-0.238253802523282,2061.88917024529
-0.237653160753689,2061.89917024529
-0.235953010483163,2061.90917024529
-0.234331819823153,2061.91917024529
-0.233805271217664,2061.92917024529
-0.236837427677264,2061.93917024529
-0.243758108654063,2061.94917024529
-0.254763519665825,2061.95917024529
-0.267965515186739,2061.96917024529
-0.282289476931656,2061.97917024529
-0.295582880275769,2061.98917024529
-0.307118663007988,2061.99917024529
-0.316348655129093,2062.00917024529
-0.323919218277378,2062.01917024529
-0.329440067480887,2062.02917024529
-0.332981137108531,2062.03917024529
-0.334552013252903,2062.04917024529
-0.334935455032093,2062.05917024529
-0.334606005012096,2062.06917024529
-0.334037420938835,2062.07917024529
-0.333270880344243,2062.08917024529
-0.33335732359151,2062.09917024529
-0.334110588780953,2062.10917024529
-0.335712250686588,2062.11917024529
-0.33826708742747,2062.12917024529
-0.341983510457785,2062.13917024529
-0.346909150145123,2062.14917024529
-0.353098721255969,2062.15917024529
-0.360339039533226,2062.16917024529
-0.369248150119325,2062.17917024529
-0.379233345210261,2062.18917024529
-0.390276857648537,2062.19917024529
-0.402267358542096,2062.20917024529
-0.414857921205267,2062.21917024529
-0.427584758343674,2062.22917024529
-0.439640384916017,2062.23917024529
-0.451153613906099,2062.24917024529
-0.462030800723354,2062.25917024529
-0.473113283362517,2062.26917024529
-0.48391547741272,2062.27917024529
-0.495090322673705,2062.28917024529
-0.506682594543619,2062.29917024529
-0.518777160729923,2062.30917024529
-0.531769704804271,2062.31917024529
-0.545041164414505,2062.32917024529
-0.558251514524873,2062.33917024529
-0.570778554022845,2062.34917024529
-0.583423551140309,2062.35917024529
-0.595705809677108,2062.36917024529
-0.608064387664355,2062.37917024529
-0.620421018692616,2062.38917024529
-0.633252757831538,2062.39917024529
-0.646330320426925,2062.40917024529
-0.658942477632882,2062.41917024529
-0.672437411949631,2062.42917024529
-0.686405650237616,2062.43917024529
-0.700640742693447,2062.44917024529
-0.715446397398837,2062.45917024529
-0.729705460192685,2062.46917024529
-0.74260578881309,2062.47917024529
-0.751672840485573,2062.48917024529
-0.754423318085285,2062.49917024529
-0.747201482967261,2062.50917024529
-0.729442514084539,2062.51917024529
-0.700173256713729,2062.52917024529
-0.661882575776867,2062.53917024529
-0.617904629509204,2062.54917024529
-0.57191786689435,2062.55917024529
-0.526836287274566,2062.56917024529
-0.485585589251651,2062.57917024529
-0.448389752567763,2062.58917024529
-0.417029206673193,2062.59917024529
-0.391464898358762,2062.60917024529
-0.371812242596011,2062.61917024529
-0.357055708065372,2062.62917024529
-0.346842828723075,2062.63917024529
-0.339728481448517,2062.64917024529
-0.334793080236046,2062.65917024529
-0.33135261412361,2062.66917024529
-0.329415702797764,2062.67917024529
-0.32831186077325,2062.68917024529
-0.327507702012009,2062.69917024529
-0.327053291085786,2062.70917024529
-0.327728336522226,2062.71917024529
-0.329247632142128,2062.72917024529
-0.332318375225294,2062.73917024529
-0.337381389533882,2062.74917024529
-0.34411316520337,2062.75917024529
-0.353333711778573,2062.76917024529
-0.363609193740207,2062.77917024529
-0.374083570649342,2062.78917024529
-0.382916779002004,2062.79917024529
-0.390339483685523,2062.80917024529
-0.395803890809502,2062.81917024529
-0.398424235593911,2062.82917024529
-0.399642747431789,2062.83917024529
-0.398971620450995,2062.84917024529
-0.396638420962032,2062.85917024529
-0.393555836522982,2062.86917024529
-0.389655455734959,2062.87917024529
-0.386229790426311,2062.88917024529
-0.383342892881383,2062.89917024529
-0.381112770135963,2062.90917024529
-0.379775840779013,2062.91917024529
-0.379626235179136,2062.92917024529
-0.380792346690811,2062.93917024529
-0.38410908667218,2062.94917024529
-0.389070287804902,2062.95917024529
-0.395631728009224,2062.96917024529
-0.402849861173254,2062.97917024529
-0.410661377469044,2062.98917024529
-0.418500781395556,2062.99917024529
-0.426118370855859,2063.00917024529
-0.433468522656903,2063.01917024529
-0.441520222503409,2063.02917024529
-0.449913107609296,2063.03917024529
-0.458361969242225,2063.04917024529
-0.467538372642382,2063.05917024529
-0.476668842867943,2063.06917024529
-0.485477572999511,2063.07917024529
-0.494573761886241,2063.08917024529
-0.503292343800937,2063.09917024529
-0.511666691108761,2063.10917024529
-0.51991645593274,2063.11917024529
-0.528297941589292,2063.12917024529
-0.536696968362646,2063.13917024529
-0.545381353581582,2063.14917024529
-0.554068010332542,2063.15917024529
-0.563433086891017,2063.16917024529
-0.572999330299314,2063.17917024529
-0.582491798646019,2063.18917024529
-0.592793610773731,2063.19917024529
-0.602448027692328,2063.20917024529
-0.612580387761229,2063.21917024529
-0.622946793975091,2063.22917024529
-0.633131977413197,2063.23917024529
-0.643319964786044,2063.24917024529
-0.653394016657886,2063.25917024529
-0.663076387470449,2063.26917024529
-0.671998379965959,2063.27917024529
-0.680545535856866,2063.28917024529
-0.688104658243376,2063.29917024529
-0.692101980252743,2063.30917024529
-0.690723465026683,2063.31917024529
-0.680590147881077,2063.32917024529
-0.659357909086652,2063.33917024529
-0.626568879917803,2063.34917024529
-0.583447636247474,2063.35917024529
-0.531736862816579,2063.36917024529
-0.475155795196562,2063.37917024529
-0.417250972865741,2063.38917024529
-0.361519947444129,2063.39917024529
-0.310454040301922,2063.40917024529
-0.265834708140684,2063.41917024529
-0.228370997304386,2063.42917024529
-0.197767403351245,2063.43917024529
-0.173405515406753,2063.44917024529
-0.1543056893305,2063.45917024529
-0.139490609900311,2063.46917024529
-0.127601104593233,2063.47917024529
-0.11703967970321,2063.48917024529
-0.107588494868424,2063.49917024529
-0.0994572127469581,2063.50917024529
-0.0918159746323567,2063.51917024529
-0.0851348343226878,2063.52917024529
-0.0781500451327008,2063.53917024529
-0.0718195423833758,2063.54917024529
-0.0665039625465335,2063.55917024529
-0.0627615528992988,2063.56917024529
-0.0611957407858416,2063.57917024529
-0.0621431531011771,2063.58917024529
-0.0657342742734244,2063.59917024529
-0.071764989166798,2063.60917024529
-0.0782664946820696,2063.61917024529
-0.0849746026570137,2063.62917024529
-0.090922622773872,2063.63917024529
-0.0957177762646528,2063.64917024529
-0.100086962046622,2063.65917024529
-0.102894853472537,2063.66917024529
-0.104647727173101,2063.67917024529
-0.105216317388038,2063.68917024529
-0.104920928446592,2063.69917024529
-0.103995031739729,2063.70917024529
-0.102672305096541,2063.71917024529
-0.101689838748947,2063.72917024529
-0.101557338735156,2063.73917024529
-0.102811914650173,2063.74917024529
-0.105099382388284,2063.75917024529
-0.108804527328132,2063.76917024529
-0.113878188064643,2063.77917024529
-0.118976541812306,2063.78917024529
-0.124919944181428,2063.79917024529
-0.131552900644557,2063.80917024529
-0.138457823516047,2063.81917024529
-0.145994676074942,2063.82917024529
-0.153639222472429,2063.83917024529
-0.162105638570148,2063.84917024529
-0.171613066683105,2063.85917024529
-0.181453705076054,2063.86917024529
-0.192271945353654,2063.87917024529
-0.203571862015766,2063.88917024529
-0.215518008268719,2063.89917024529
-0.227069473949052,2063.90917024529
-0.238365868296991,2063.91917024529
-0.249250215262565,2063.92917024529
-0.259846579857727,2063.93917024529
-0.270213048447623,2063.94917024529
-0.280300005592333,2063.95917024529
-0.290800373430421,2063.96917024529
-0.300622424950803,2063.97917024529
-0.310564033481023,2063.98917024529
-0.320740215074623,2063.99917024529
-0.331178123725524,2064.00917024529
-0.342080590889991,2064.01917024529
-0.352875752986089,2064.02917024529
-0.363878692964934,2064.03917024529
-0.374976186666104,2064.04917024529
-0.385754394622705,2064.05917024529
-0.396236459840415,2064.06917024529
-0.406551433751102,2064.07917024529
-0.416820921150654,2064.08917024529
-0.427453432172714,2064.09917024529
-0.438011750797841,2064.10917024529
-0.448728762825121,2064.11917024529
-0.459933748329003,2064.12917024529
-0.470630067621392,2064.13917024529
-0.481249542872749,2064.14917024529
-0.491167456768633,2064.15917024529
-0.499489302120217,2064.16917024529
-0.502655336740332,2064.17917024529
-0.498539767409754,2064.18917024529
-0.483823535191969,2064.19917024529
-0.457042513724617,2064.20917024529
-0.41937684403985,2064.21917024529
-0.372902480145244,2064.22917024529
-0.321376130650989,2064.23917024529
-0.268239777248741,2064.24917024529
-0.216562122872402,2064.25917024529
-0.168628167067989,2064.26917024529
-0.1270436632918,2064.27917024529
-0.0917844766271209,2064.28917024529
-0.0633705448723584,2064.29917024529
-0.041146095804335,2064.30917024529
-0.0245113334833582,2064.31917024529
-0.0125881141298676,2064.32917024529
-0.00404426758562714,2064.33917024529
0.00238226629515397,2064.34917024529
0.00752119941520209,2064.35917024529
0.0119234073628707,2064.36917024529
0.0157375817553581,2064.37917024529
0.0197181733218543,2064.38917024529
0.022857817881775,2064.39917024529
0.0260485896748247,2064.40917024529
0.0277415225530966,2064.41917024529
0.028959101438801,2064.42917024529
0.0282891477544896,2064.43917024529
0.0257757089236206,2064.44917024529
0.0212173875029756,2064.45917024529
0.0142921572170619,2064.46917024529
0.00654113864482431,2064.47917024529
-0.00138561357228823,2064.48917024529
-0.00782036126971027,2064.49917024529
-0.0122721693329958,2064.50917024529
-0.0147963420147004,2064.51917024529
-0.0150937744132714,2064.52917024529
-0.0129574088533698,2064.53917024529
-0.00925256604152425,2064.54917024529
-0.00402132513341193,2064.55917024529
0.00247649251662831,2064.56917024529
0.00963815156561754,2064.57917024529
0.0171179067280208,2064.58917024529
0.0236834995260974,2064.59917024529
0.0296748922061739,2064.60917024529
0.0343971852785318,2064.61917024529
0.0375997402252477,2064.62917024529
0.0395190869790952,2064.63917024529
0.0395860930117736,2064.64917024529
0.0377073963860713,2064.65917024529
0.0347529865294479,2064.66917024529
0.030152122393115,2064.67917024529
0.0249579118983422,2064.68917024529
0.0190157344024836,2064.69917024529
0.0124831439042349,2064.70917024529
0.00534880471486873,2064.71917024529
-0.00252602595688956,2064.72917024529
-0.0111099230849097,2064.73917024529
-0.0206094329436681,2064.74917024529
-0.0304294500244408,2064.75917024529
-0.040792133592655,2064.76917024529
-0.0512352750864099,2064.77917024529
-0.0616976854591119,2064.78917024529
-0.0729275603769392,2064.79917024529
-0.0845200746698687,2064.80917024529
-0.0962763675936609,2064.81917024529
-0.108748388821153,2064.82917024529
-0.122066076337584,2064.83917024529
-0.135277114834004,2064.84917024529
-0.149213048998601,2064.85917024529
-0.162961364494705,2064.86917024529
-0.176430001245808,2064.87917024529
-0.189986721208432,2064.88917024529
-0.203767504261853,2064.89917024529
-0.217134634582389,2064.90917024529
-0.230559607413462,2064.91917024529
-0.243824079488377,2064.92917024529
-0.257300552754722,2064.93917024529
-0.270416704528094,2064.94917024529
-0.281643347907643,2064.95917024529
-0.288921722557977,2064.96917024529
-0.288701289892115,2064.97917024529
-0.278470035434379,2064.98917024529
-0.257204291396342,2064.99917024529
-0.224577052699227,2065.00917024529
-0.184201546667367,2065.01917024529
-0.139014031567565,2065.02917024529
-0.0917726159858271,2065.03917024529
-0.0455577137001823,2065.04917024529
-0.00242274570189263,2065.05917024529
0.0359293439179898,2065.06917024529
0.0688920719910944,2065.07917024529
0.095862079856402,2065.08917024529
0.117097135084268,2065.09917024529
0.13378354971448,2065.10917024529
0.14630861508265,2065.11917024529
0.156028792372529,2065.12917024529
0.163692871904743,2065.13917024529
0.169635838321917,2065.14917024529
0.17463744664607,2065.15917024529
0.179081887837241,2065.16917024529
0.183097991600178,2065.17917024529
0.187356879512984,2065.18917024529
0.191371026094438,2065.19917024529
0.194817809487478,2065.20917024529
0.196877069566555,2065.21917024529
0.19589821843981,2065.22917024529
0.191978519339778,2065.23917024529
0.185787264108693,2065.24917024529
0.177028415363491,2065.25917024529
0.167165288404779,2065.26917024529
0.157181504203096,2065.27917024529
0.147023941999983,2065.28917024529
0.1380695615402,2065.29917024529
0.13072574610011,2065.30917024529
0.124547155583226,2065.31917024529
0.119869187006068,2065.32917024529
0.116123315406842,2065.33917024529
0.113756813646314,2065.34917024529
0.112350706832639,2065.35917024529
0.111246244210996,2065.36917024529
0.110210779588651,2065.37917024529
0.108901522200919,2065.38917024529
0.107535831115382,2065.39917024529
0.104485423772461,2065.40917024529
0.100450643256261,2065.41917024529
0.0944756300708818,2065.42917024529
0.0873599798449379,2065.43917024529
0.0795341179648084,2065.44917024529
0.0707395657338949,2065.45917024529
0.06129749001926,2065.46917024529
0.0512989676031206,2065.47917024529
0.0407199141233269,2065.48917024529
0.0296122404028861,2065.49917024529
0.018239216671412,2065.50917024529
0.00602905687608992,2065.51917024529
-0.00645142447494503,2065.52917024529
-0.0185835576542318,2065.53917024529
-0.0302643804021028,2065.54917024529
-0.04121376282665,2065.55917024529
-0.0513768749523677,2065.56917024529
-0.0605613182661359,2065.57917024529
-0.0696302716901942,2065.58917024529
-0.0788290164280896,2065.59917024529
-0.0877544203334646,2065.60917024529
-0.0963605266067109,2065.61917024529
-0.105004621956932,2065.62917024529
-0.114172260699237,2065.63917024529
-0.123495315238136,2065.64917024529
-0.133428161914925,2065.65917024529
-0.14413707777783,2065.66917024529
-0.155282182496425,2065.67917024529
-0.166508539824496,2065.68917024529
-0.177394246458507,2065.69917024529
-0.188421052242176,2065.70917024529
-0.199183091412323,2065.71917024529
-0.210136760350402,2065.72917024529
-0.221382612762007,2065.73917024529
-0.232678059927527,2065.74917024529
-0.24379408386966,2065.75917024529
-0.253725271876859,2065.76917024529
-0.261296266036211,2065.77917024529
-0.26425620494408,2065.78917024529
-0.259452289966017,2065.79917024529
-0.245213169037574,2065.80917024529
-0.219736646024912,2065.81917024529
-0.184251741138823,2065.82917024529
-0.141835237665794,2065.83917024529
-0.0950298883251395,2065.84917024529
-0.0471124987953129,2065.85917024529
-0.00122628788737938,2065.86917024529
0.0412086260096757,2065.87917024529
0.0784663756183327,2065.88917024529
0.109833230839387,2065.89917024529
0.135577029781767,2065.90917024529
0.155904381477162,2065.91917024529
0.172187198977949,2065.92917024529
0.18502709435539,2065.93917024529
0.195852891967143,2065.94917024529
0.205127783630969,2065.95917024529
0.213311205276185,2065.96917024529
0.220868824099908,2065.97917024529
0.227858138796744,2065.98917024529
0.234665037745371,2065.99917024529
0.240794824448655,2066.00917024529
0.246244749331144,2066.01917024529
0.25047356905779,2066.02917024529
0.252498641814027,2066.03917024529
0.251443053316429,2066.04917024529
0.247410954267293,2066.05917024529
0.240502538493848,2066.06917024529
0.231673180751345,2066.07917024529
0.221798323805413,2066.08917024529
0.211545372447598,2066.09917024529
0.202008119703702,2066.10917024529
0.193074025942523,2066.11917024529
0.184988131467073,2066.12917024529
0.177951640661762,2066.13917024529
0.171815322970084,2066.14917024529
0.166344488319918,2066.15917024529
0.161797644641552,2066.16917024529
0.157866475914232,2066.17917024529
0.153792383771519,2066.18917024529
0.149840651771025,2066.19917024529
0.145830535824151,2066.20917024529
0.141842258822163,2066.21917024529
0.136671848107718,2066.22917024529
0.131199500235286,2066.23917024529
0.124832077189432,2066.24917024529
0.117884907947172,2066.25917024529
0.110372784061374,2066.26917024529
0.102319779427488,2066.27917024529
0.0939724905854779,2066.28917024529
0.0846723701860964,2066.29917024529
0.0751837863880603,2066.30917024529
0.0651043038076774,2066.31917024529
0.0548299220077096,2066.32917024529
0.0443296092851711,2066.33917024529
0.0341184663412398,2066.34917024529
0.0232601116633119,2066.35917024529
0.0114963810145914,2066.36917024529
-0.000752665673281128,2066.37917024529
-0.0134072688693603,2066.38917024529
-0.0256256071254797,2066.39917024529
-0.0374543499214762,2066.40917024529
-0.0487435106909251,2066.41917024529
-0.0600851434017414,2066.42917024529
-0.0710759930989173,2066.43917024529
-0.0820080002180919,2066.44917024529
-0.0934354996924202,2066.45917024529
-0.104956284541368,2066.46917024529
-0.11655856279427,2066.47917024529
-0.128602959852566,2066.48917024529
-0.140209453491176,2066.49917024529
-0.151552659100403,2066.50917024529
-0.16281857038495,2066.51917024529
-0.174645712036637,2066.52917024529
-0.186609239921117,2066.53917024529
-0.19941251568052,2066.54917024529
-0.212437256843214,2066.55917024529
-0.225647390374034,2066.56917024529
-0.239315547765236,2066.57917024529
-0.25332798443252,2066.58917024529
-0.267078840177877,2066.59917024529
-0.28098896435043,2066.60917024529
-0.294632163106722,2066.61917024529
-0.307521664398632,2066.62917024529
-0.317983778361111,2066.63917024529
-0.3242389546082,2066.64917024529
-0.323491661247604,2066.65917024529
-0.313498693704199,2066.66917024529
-0.292856516387509,2066.67917024529
-0.261501631002936,2066.68917024529
-0.221959271905256,2066.69917024529
-0.176861799284153,2066.70917024529
-0.130273504074933,2066.71917024529
-0.0849817604439336,2066.72917024529
-0.0431284525697459,2066.73917024529
-0.00661776513444551,2066.74917024529
0.0241416386563638,2066.75917024529
0.0499100108562485,2066.76917024529
0.0704229029821688,2066.77917024529
0.0865856345505609,2066.78917024529
0.0992793310840796,2066.79917024529
0.10932102242411,2066.80917024529
0.117717517150818,2066.81917024529
0.125099171942235,2066.82917024529
0.130978197293728,2066.83917024529
0.136203589341559,2066.84917024529
0.14082550823287,2066.85917024529
0.143952279025664,2066.86917024529
0.146482295457982,2066.87917024529
0.148057336656689,2066.88917024529
0.148211504356148,2066.89917024529
0.146878279902328,2066.90917024529
0.143553006844305,2066.91917024529
0.138107935872241,2066.92917024529
0.13030123082338,2066.93917024529
0.121549127914449,2066.94917024529
0.112467556156234,2066.95917024529
0.104124763201507,2066.96917024529
0.097086687945074,2066.97917024529
0.091230967864247,2066.98917024529
0.0863312754157047,2066.99917024529
0.082897281865507,2067.00917024529
0.0806160165307926,2067.01917024529
0.0793141819056242,2067.02917024529
0.0777406715312383,2067.03917024529
0.0763724649667941,2067.04917024529
0.0754306573570854,2067.05917024529
0.074067446712802,2067.06917024529
0.0722512666232815,2067.07917024529
0.0700543859248288,2067.08917024529
0.0665066932272749,2067.09917024529
0.0612169206201842,2067.10917024529
0.0546406494334101,2067.11917024529
0.0471161479106931,2067.12917024529
0.0391401909516361,2067.13917024529
0.0303754854773205,2067.14917024529
0.0215599785361566,2067.15917024529
0.0122274321950942,2067.16917024529
0.00239437583305186,2067.17917024529
-0.00675023979837235,2067.18917024529
-0.016737569352477,2067.19917024529
-0.0265101465509727,2067.20917024529
-0.0365438830927408,2067.21917024529
-0.0473783254670435,2067.22917024529
-0.0589845839021237,2067.23917024529
-0.0710899266390568,2067.24917024529
-0.0832699162750635,2067.25917024529
-0.095618074374087,2067.26917024529
-0.107278664379013,2067.27917024529
-0.118285703041456,2067.28917024529
-0.129299875214779,2067.29917024529
-0.139731892321251,2067.30917024529
-0.149996386164628,2067.31917024529
-0.160333979501389,2067.32917024529
-0.170766649407631,2067.33917024529
-0.18150654034535,2067.34917024529
-0.192018396440489,2067.35917024529
-0.202190056838995,2067.36917024529
-0.212037352919046,2067.37917024529
-0.221970396629906,2067.38917024529
-0.231726667056053,2067.39917024529
-0.242037493467205,2067.40917024529
-0.252619010686458,2067.41917024529
-0.263113374490113,2067.42917024529
-0.273974997470444,2067.43917024529
-0.284275433063405,2067.44917024529
-0.293486067959845,2067.45917024529
-0.300207397892772,2067.46917024529
-0.30186613976414,2067.47917024529
-0.296364965305477,2067.48917024529
-0.281689327390839,2067.49917024529
-0.257082973098237,2067.50917024529
-0.223285568981668,2067.51917024529
-0.18268114936393,2067.52917024529
-0.138397152895612,2067.53917024529
-0.0925805949150465,2067.54917024529
-0.0484748352993607,2067.55917024529
-0.00806946189704287,2067.56917024529
0.027292644911374,2067.57917024529
0.0572863219190798,2067.58917024529
0.0815626176090211,2067.59917024529
0.101058396189602,2067.60917024529
0.115995101550646,2067.61917024529
0.127169710198864,2067.62917024529
0.135162777583107,2067.63917024529
0.140960828265786,2067.64917024529
0.145007095029381,2067.65917024529
0.147915327385062,2067.66917024529
0.150355340863122,2067.67917024529
0.152378657312727,2067.68917024529
0.15388769803262,2067.69917024529
0.154890393446309,2067.70917024529
0.154203056122614,2067.71917024529
0.151611641380633,2067.72917024529
0.146521919155526,2067.73917024529
0.138849541719069,2067.74917024529
0.129690530691225,2067.75917024529
0.11999938844102,2067.76917024529
0.111495422651163,2067.77917024529
0.104349693479067,2067.78917024529
0.0993646863142467,2067.79917024529
0.0966211162573646,2067.80917024529
0.0957348573600813,2067.81917024529
0.0963458238016483,2067.82917024529
0.0977727147879673,2067.83917024529
0.0996195196912021,2067.84917024529
0.102121983799138,2067.85917024529
0.104213347366588,2067.86917024529
0.105723230797799,2067.87917024529
0.10657594148082,2067.88917024529
0.106207342694323,2067.89917024529
0.105194301588717,2067.90917024529
0.103119663218423,2067.91917024529
0.0997265501152083,2067.92917024529
0.0952391206836276,2067.93917024529
0.0896751927625521,2067.94917024529
0.0834473426131414,2067.95917024529
0.0768677056726044,2067.96917024529
0.0693944468067102,2067.97917024529
0.0618860505413697,2067.98917024529
0.0532244817604027,2067.99917024529
0.0441730662445344,2068.00917024529
0.035110630503146,2068.01917024529
0.0263207897118336,2068.02917024529
0.0177604073299373,2068.03917024529
0.00923388441828922,2068.04917024529
0.00071956506231811,2068.05917024529
-0.00788375698072433,2068.06917024529
-0.0163031366877565,2068.07917024529
-0.0251766928165203,2068.08917024529
-0.033686788017401,2068.09917024529
-0.042806865300234,2068.10917024529
-0.0522666215247949,2068.11917024529
-0.0623905889599485,2068.12917024529
-0.0723721939256977,2068.13917024529
-0.0824820828266836,2068.14917024529
-0.0918623080376315,2068.15917024529
-0.100798116483225,2068.16917024529
-0.109464139632618,2068.17917024529
-0.118438890185758,2068.18917024529
-0.12784769325166,2068.19917024529
-0.137585187602211,2068.20917024529
-0.147437317557961,2068.21917024529
-0.156922510443435,2068.22917024529
-0.16640100910752,2068.23917024529
-0.175670221550203,2068.24917024529
-0.183827695314836,2068.25917024529
-0.190333307131094,2068.26917024529
-0.192112895917943,2068.27917024529
-0.186666494909,2068.28917024529
-0.171403843307953,2068.29917024529
-0.145056577454119,2068.30917024529
-0.108723784974534,2068.31917024529
-0.0630208765035136,2068.32917024529
-0.0121226309248439,2068.33917024529
0.0410854646480011,2068.34917024529
0.0935938682155098,2068.35917024529
0.142747426680655,2068.36917024529
0.187173727075801,2068.37917024529
0.225162328773989,2068.38917024529
0.257267449727584,2068.39917024529
0.283355745532983,2068.40917024529
0.30473156903737,2068.41917024529
0.322821778602443,2068.42917024529
0.337430028623647,2068.43917024529
0.349690631799817,2068.44917024529
0.360146196843267,2068.45917024529
0.368615012466835,2068.46917024529
0.37587912610503,2068.47917024529
0.382156894334166,2068.48917024529
0.388096446717629,2068.49917024529
0.392625837565239,2068.50917024529
0.395067783520362,2068.51917024529
0.395295396676825,2068.52917024529
0.393358657579324,2068.53917024529
0.389206651645553,2068.54917024529
0.382997389611127,2068.55917024529
0.375052743259314,2068.56917024529
0.36585700818375,2068.57917024529
0.356668476634037,2068.58917024529
0.34833359315995,2068.59917024529
0.3415367775259,2068.60917024529
0.336368812990126,2068.61917024529
0.332980811355664,2068.62917024529
0.33136900866637,2068.63917024529
0.330884890848156,2068.64917024529
0.331579491548681,2068.65917024529
0.332524258409896,2068.66917024529
0.333947417816519,2068.67917024529
0.33525948119841,2068.68917024529
0.336421505833413,2068.69917024529
0.335922918308243,2068.70917024529
0.334189173453733,2068.71917024529
0.330634854960014,2068.72917024529
0.325945884756028,2068.73917024529
0.320224987141252,2068.74917024529
0.314145498583213,2068.75917024529
0.307216294359994,2068.76917024529
0.299723797017448,2068.77917024529
0.291367471225732,2068.78917024529
0.282666516347581,2068.79917024529
0.273218877049938,2068.80917024529
0.263540434622528,2068.81917024529
0.253687303903696,2068.82917024529
0.243260876887684,2068.83917024529
0.232189436246686,2068.84917024529
0.22122754282171,2068.85917024529
0.209946176288941,2068.86917024529
0.198604349258754,2068.87917024529
0.187554973574939,2068.88917024529
0.17662743981422,2068.89917024529
0.165367652143719,2068.90917024529
0.153932369050736,2068.91917024529
0.142378399403099,2068.92917024529
0.130971547866874,2068.93917024529
0.119682490945696,2068.94917024529
0.108341817296261,2068.95917024529
0.0973374106577141,2068.96917024529
0.0863268992650923,2068.97917024529
0.0757386372990952,2068.98917024529
0.0650436371953361,2068.99917024529
0.0539064263533758,2069.00917024529
0.0419242235621812,2069.01917024529
0.0297379309051437,2069.02917024529
0.0178261056610682,2069.03917024529
0.00591961418459955,2069.04917024529
-0.00530009951407995,2069.05917024529
-0.0162819335387778,2069.06917024529
-0.0267112327272872,2069.07917024529
-0.0371675263498944,2069.08917024529
-0.0477978619248094,2069.09917024529
-0.0589974264406912,2069.10917024529
-0.0701077919419199,2069.11917024529
-0.0808482799408701,2069.12917024529
-0.0893667177029209,2069.13917024529
-0.0931029301335015,2069.14917024529
-0.0897148017508735,2069.15917024529
-0.0763845480198335,2069.16917024529
-0.0518036609176364,2069.17917024529
-0.0156825385551456,2069.18917024529
0.0293161290228197,2069.19917024529
0.0813575770105754,2069.20917024529
0.136223306392416,2069.21917024529
0.190547234981766,2069.22917024529
0.241601472089739,2069.23917024529
0.287157781668171,2069.24917024529
0.326140183701758,2069.25917024529
0.358316302287239,2069.26917024529
0.384428200643977,2069.27917024529
0.404877148336354,2069.28917024529
0.42039719182801,2069.29917024529
0.432744927200847,2069.30917024529
0.442380057896598,2069.31917024529
0.449831743606684,2069.32917024529
0.456280140537103,2069.33917024529
0.462092740992758,2069.34917024529
0.467508199537241,2069.35917024529
0.472649642404956,2069.36917024529
0.476997541751362,2069.37917024529
0.480358253841001,2069.38917024529
0.482023734309082,2069.39917024529
0.481707712898958,2069.40917024529
0.478511244487397,2069.41917024529
0.471999453762919,2069.42917024529
0.462960175350398,2069.43917024529
0.45210132887874,2069.44917024529
0.440623365534869,2069.45917024529
0.428641035037339,2069.46917024529
0.417652383872819,2069.47917024529
0.408262173747539,2069.48917024529
0.400592330993098,2069.49917024529
0.395187024192625,2069.50917024529
0.390770757873279,2069.51917024529
0.38728794594947,2069.52917024529
0.385227215929665,2069.53917024529
0.383406375795369,2069.54917024529
0.382143614508726,2069.55917024529
0.380423917623775,2069.56917024529
0.378141821355108,2069.57917024529
0.374397039818832,2069.58917024529
0.369296016593355,2069.59917024529
0.362777179298597,2069.60917024529
0.355651728674514,2069.61917024529
0.347483152202072,2069.62917024529
0.339439841107784,2069.63917024529
0.330938626206348,2069.64917024529
0.321570130880158,2069.65917024529
0.310683115254297,2069.66917024529
0.298311372932801,2069.67917024529
0.285094302079219,2069.68917024529
0.271294187942302,2069.69917024529
0.257259522800126,2069.70917024529
0.243224299832551,2069.71917024529
0.228858278527982,2069.72917024529
0.214737561796825,2069.73917024529
0.199994010838725,2069.74917024529
0.184932712518462,2069.75917024529
0.169742744234631,2069.76917024529
0.154779633445925,2069.77917024529
0.140012766367344,2069.78917024529
0.126089348826378,2069.79917024529
0.112609616975667,2069.80917024529
0.100218167597325,2069.81917024529
0.0872099963017752,2069.82917024529
0.0748519450838761,2069.83917024529
0.0625369127502904,2069.84917024529
0.050081954460619,2069.85917024529
0.0374949070511637,2069.86917024529
0.0237933354339729,2069.87917024529
0.00958667392053164,2069.88917024529
-0.00521677624888165,2069.89917024529
-0.0193935313887818,2069.90917024529
-0.0336404107002751,2069.91917024529
-0.0474202187839166,2069.92917024529
-0.0610684542644983,2069.93917024529
-0.0742594672284748,2069.94917024529
-0.087885689575628,2069.95917024529
-0.101657164970955,2069.96917024529
-0.114829188968449,2069.97917024529
-0.127261175450428,2069.98917024529
-0.138053426465703,2069.99917024529
-0.14574414364754,2070.00917024529
-0.147878198303406,2070.01917024529
-0.141591479901394,2070.02917024529
-0.125185636559157,2070.03917024529
-0.0973364002948638,2070.04917024529
-0.0586667825705948,2070.05917024529
-0.0124791582216892,2070.06917024529
0.0383827373930115,2070.07917024529
0.0904313166004302,2070.08917024529
0.14096556852943,2070.09917024529
0.188154243082366,2070.10917024529
0.22971225611141,2070.11917024529
0.265113048107816,2070.12917024529
0.294514057923289,2070.13917024529
0.31869671342412,2070.14917024529
0.337161930975484,2070.15917024529
0.350807222393907,2070.16917024529
0.360648572510804,2070.17917024529
0.367645168292111,2070.18917024529
0.372570130891591,2070.19917024529
0.376237789193053,2070.20917024529
