PPG,time
-0.193871511901114,1510.66134848767
-0.388451290630158,1510.67134848767
-0.349123435612327,1510.68134848767
-0.379884719554591,1510.69134848767
-0.370872459296021,1510.70134848767
-0.386286399824995,1510.71134848767
-0.385792500502867,1510.72134848767
-0.395163537005832,1510.73134848767
-0.398408557272267,1510.74134848767
-0.404896332075419,1510.75134848767
-0.409641102751827,1510.76134848767
-0.41503529261057,1510.77134848767
-0.420315356652637,1510.78134848767
-0.42566303493121,1510.79134848767
-0.431049856512626,1510.80134848767
-0.436906060956699,1510.81134848767
-0.442876193910148,1510.82134848767
-0.449127039421371,1510.83134848767
-0.455610257894928,1510.84134848767
-0.46146444602888,1510.85134848767
-0.466581913801519,1510.86134848767
-0.468858282920599,1510.87134848767
-0.467728401323129,1510.88134848767
-0.461509260850847,1510.89134848767
-0.449396838858584,1510.90134848767
-0.431401950311844,1510.91134848767
-0.408248785855191,1510.92134848767
-0.381279098568171,1510.93134848767
-0.352828456144483,1510.94134848767
-0.324725399983425,1510.95134848767
-0.298404147430158,1510.96134848767
-0.275181655473468,1510.97134848767
-0.255282054176241,1510.98134848767
-0.2396860925723,1510.99134848767
-0.227291185505743,1511.00134848767
-0.218358147158585,1511.01134848767
-0.211697194980902,1511.02134848767
-0.206759358475791,1511.03134848767
-0.203452457681296,1511.04134848767
-0.201335455523186,1511.05134848767
-0.200808556067254,1511.06134848767
-0.200370335317413,1511.07134848767
-0.199166460383015,1511.08134848767
-0.198891581347039,1511.09134848767
-0.198784867408659,1511.10134848767
-0.198325471104323,1511.11134848767
-0.198024681988574,1511.12134848767
-0.198296396258377,1511.13134848767
-0.199703917074325,1511.14134848767
-0.202257128465837,1511.15134848767
-0.206275077475811,1511.16134848767
-0.210718961997872,1511.17134848767
-0.215775807263595,1511.18134848767
-0.220692602788658,1511.19134848767
-0.225043736192579,1511.20134848767
-0.228763277029504,1511.21134848767
-0.230947683853492,1511.22134848767
-0.232170722774066,1511.23134848767
-0.232064239116829,1511.24134848767
-0.231015196469314,1511.25134848767
-0.22951606058699,1511.26134848767
-0.22767211581694,1511.27134848767
-0.225263486836262,1511.28134848767
-0.222474812086276,1511.29134848767
-0.219985707857303,1511.30134848767
-0.21808869033972,1511.31134848767
-0.217426233299093,1511.32134848767
-0.217644628268911,1511.33134848767
-0.218923415291957,1511.34134848767
-0.221084091638136,1511.35134848767
-0.224218156263918,1511.36134848767
-0.227580715934674,1511.37134848767
-0.231392027754432,1511.38134848767
-0.235957165375116,1511.39134848767
-0.240706686195184,1511.40134848767
-0.244818905562007,1511.41134848767
-0.248571034560779,1511.42134848767
-0.252586627261863,1511.43134848767
-0.256769588688079,1511.44134848767
-0.261055837774196,1511.45134848767
-0.265592778039766,1511.46134848767
-0.270872870826639,1511.47134848767
-0.276111161432489,1511.48134848767
-0.281433186630036,1511.49134848767
-0.287132249042191,1511.50134848767
-0.292821600741192,1511.51134848767
-0.298475589986447,1511.52134848767
-0.304138467883517,1511.53134848767
-0.30901223267931,1511.54134848767
-0.313885810122206,1511.55134848767
-0.318506648624672,1511.56134848767
-0.323459012496337,1511.57134848767
-0.328973493889417,1511.58134848767
-0.334657432739944,1511.59134848767
-0.34095727343459,1511.60134848767
-0.346509392572537,1511.61134848767
-0.351890675722772,1511.62134848767
-0.356933869466999,1511.63134848767
-0.361521511101315,1511.64134848767
-0.366324693498546,1511.65134848767
-0.370834121388039,1511.66134848767
-0.37601524620914,1511.67134848767
-0.381427277057358,1511.68134848767
-0.387117067419768,1511.69134848767
-0.393241016440467,1511.70134848767
-0.399550730925396,1511.71134848767
-0.405510347927941,1511.72134848767
-0.411380670013889,1511.73134848767
-0.417715133262603,1511.74134848767
-0.423551308371778,1511.75134848767
-0.429956990417603,1511.76134848767
-0.435318141056877,1511.77134848767
-0.439702628937442,1511.78134848767
-0.441958986197091,1511.79134848767
-0.440826465265222,1511.80134848767
-0.43490473675116,1511.81134848767
-0.42302019550079,1511.82134848767
-0.405344117194041,1511.83134848767
-0.382444323996333,1511.84134848767
-0.356829039696566,1511.85134848767
-0.329900854589761,1511.86134848767
-0.303797388436117,1511.87134848767
-0.279810283229651,1511.88134848767
-0.258606573249588,1511.89134848767
-0.241007802124074,1511.90134848767
-0.226551038467011,1511.91134848767
-0.215746992120871,1511.92134848767
-0.208013238782562,1511.93134848767
-0.202905939083861,1511.94134848767
-0.199675165542552,1511.95134848767
-0.198295562624411,1511.96134848767
-0.19697154241331,1511.97134848767
-0.196553364969555,1511.98134848767
-0.196517229110504,1511.99134848767
-0.196805415856625,1512.00134848767
-0.197441100958609,1512.01134848767
-0.198078922646727,1512.02134848767
-0.199314844759151,1512.03134848767
-0.201355399098691,1512.04134848767
-0.204082246354066,1512.05134848767
-0.207207401844643,1512.06134848767
-0.210964951063666,1512.07134848767
-0.215076584817173,1512.08134848767
-0.219749225884958,1512.09134848767
-0.224317619212648,1512.10134848767
-0.228666416669918,1512.11134848767
-0.232500353903587,1512.12134848767
-0.235313636681438,1512.13134848767
-0.237298519764039,1512.14134848767
-0.23788159826039,1512.15134848767
-0.237834815864465,1512.16134848767
-0.236673715269697,1512.17134848767
-0.234077871478423,1512.18134848767
-0.230775844077005,1512.19134848767
-0.227393024565001,1512.20134848767
-0.224777618660872,1512.21134848767
-0.222527742215323,1512.22134848767
-0.220971862389829,1512.23134848767
-0.220167203165568,1512.24134848767
-0.219740182814729,1512.25134848767
-0.22054820934437,1512.26134848767
-0.221892814922036,1512.27134848767
-0.224326689787345,1512.28134848767
-0.227215682521703,1512.29134848767
-0.230478087934225,1512.30134848767
-0.234417687481465,1512.31134848767
-0.238633866383842,1512.32134848767
-0.243390573320182,1512.33134848767
-0.247955574036155,1512.34134848767
-0.25242565035916,1512.35134848767
-0.257035869889487,1512.36134848767
-0.261128410656458,1512.37134848767
-0.265454039874291,1512.38134848767
-0.269586553230719,1512.39134848767
-0.274020650911626,1512.40134848767
-0.27865248542399,1512.41134848767
-0.284004097400518,1512.42134848767
-0.288713783424271,1512.43134848767
-0.29320245937099,1512.44134848767
-0.297642657557736,1512.45134848767
-0.301646974398806,1512.46134848767
-0.305380336503944,1512.47134848767
-0.309427352782419,1512.48134848767
-0.313281496287469,1512.49134848767
-0.316814363979394,1512.50134848767
-0.3200675420021,1512.51134848767
-0.32311140190489,1512.52134848767
-0.326629736502295,1512.53134848767
-0.330060802024441,1512.54134848767
-0.333954764459198,1512.55134848767
-0.338006716967213,1512.56134848767
-0.34138539336853,1512.57134848767
-0.345325248332068,1512.58134848767
-0.348902535864869,1512.59134848767
-0.352540726738988,1512.60134848767
-0.356754967715248,1512.61134848767
-0.361518772898275,1512.62134848767
-0.366801209719311,1512.63134848767
-0.372199117986568,1512.64134848767
-0.377912771151419,1512.65134848767
-0.383199912093592,1512.66134848767
-0.387955330162146,1512.67134848767
-0.392398220349886,1512.68134848767
-0.395163419662884,1512.69134848767
-0.396025595263583,1512.70134848767
-0.39292682634488,1512.71134848767
-0.384930664905964,1512.72134848767
-0.371827039172023,1512.73134848767
-0.353289909312516,1512.74134848767
-0.330986304382876,1512.75134848767
-0.30706498058208,1512.76134848767
-0.28209148466665,1512.77134848767
-0.258785966105717,1512.78134848767
-0.238156368191037,1512.79134848767
-0.220732499629999,1512.80134848767
-0.20715703662204,1512.81134848767
-0.197002526586411,1512.82134848767
-0.189763129865011,1512.83134848767
-0.184296128670913,1512.84134848767
-0.180942127776556,1512.85134848767
-0.178837419336853,1512.86134848767
-0.177333680421959,1512.87134848767
-0.176939369018375,1512.88134848767
-0.177146538287317,1512.89134848767
-0.178228681285982,1512.90134848767
-0.179696581660199,1512.91134848767
-0.181399882533489,1512.92134848767
-0.183450389960565,1512.93134848767
-0.186023770092803,1512.94134848767
-0.18836929089842,1512.95134848767
-0.191193719906946,1512.96134848767
-0.194570792479278,1512.97134848767
-0.19809537155466,1512.98134848767
-0.201884342940321,1512.99134848767
-0.205771479505151,1513.00134848767
-0.209706641284873,1513.01134848767
-0.213170059361504,1513.02134848767
-0.215586588002324,1513.03134848767
-0.216800743827825,1513.04134848767
-0.217319325753079,1513.05134848767
-0.216855967844579,1513.06134848767
-0.215696164314238,1513.07134848767
-0.213932110086377,1513.08134848767
-0.211454872297904,1513.09134848767
-0.208623654264547,1513.10134848767
-0.205697569122979,1513.11134848767
-0.203483635976332,1513.12134848767
-0.20235198582568,1513.13134848767
-0.20228776747986,1513.14134848767
-0.203444463910463,1513.15134848767
-0.20554076875594,1513.16134848767
-0.207803360031739,1513.17134848767
-0.2107020269329,1513.18134848767
-0.213683711532933,1513.19134848767
-0.216789813204517,1513.20134848767
-0.219879155319358,1513.21134848767
-0.222642328242413,1513.22134848767
-0.225547466361033,1513.23134848767
-0.228429530596173,1513.24134848767
-0.23158248945269,1513.25134848767
-0.235324499605071,1513.26134848767
-0.239217361029715,1513.27134848767
-0.243374096637235,1513.28134848767
-0.248068916368831,1513.29134848767
-0.252837268865325,1513.30134848767
-0.257348438600371,1513.31134848767
-0.26167258801732,1513.32134848767
-0.266475954607578,1513.33134848767
-0.270806141487377,1513.34134848767
-0.274686482459346,1513.35134848767
-0.278620868696569,1513.36134848767
-0.28246174655737,1513.37134848767
-0.286995013524468,1513.38134848767
-0.292073421627225,1513.39134848767
-0.297335870876282,1513.40134848767
-0.303025999399492,1513.41134848767
-0.308853426236881,1513.42134848767
-0.314004280045372,1513.43134848767
-0.31929167547101,1513.44134848767
-0.323545737194215,1513.45134848767
-0.327428391711279,1513.46134848767
-0.331335644816857,1513.47134848767
-0.335600733939412,1513.48134848767
-0.33993529344003,1513.49134848767
-0.344499990284675,1513.50134848767
-0.349785934196405,1513.51134848767
-0.355154699543209,1513.52134848767
-0.360804677413153,1513.53134848767
-0.365978598818363,1513.54134848767
-0.370948149316678,1513.55134848767
-0.374833901387017,1513.56134848767
-0.377895884791706,1513.57134848767
-0.379656814529619,1513.58134848767
-0.378316658112491,1513.59134848767
-0.373626197451998,1513.60134848767
-0.364199091475836,1513.61134848767
-0.349535421413322,1513.62134848767
-0.330519462820924,1513.63134848767
-0.308231051044507,1513.64134848767
-0.283907893066918,1513.65134848767
-0.259706742060465,1513.66134848767
-0.237298721569856,1513.67134848767
-0.21720483708124,1513.68134848767
-0.200708076594254,1513.69134848767
-0.18714669027746,1513.70134848767
-0.176350322334292,1513.71134848767
-0.167497433692893,1513.72134848767
-0.161048511645448,1513.73134848767
-0.156190342068838,1513.74134848767
-0.1530573298,1513.75134848767
-0.151354539598157,1513.76134848767
-0.150863972883267,1513.77134848767
-0.15070835761376,1513.78134848767
-0.15073428259318,1513.79134848767
-0.150311056078748,1513.80134848767
-0.149864195384354,1513.81134848767
-0.149638435300986,1513.82134848767
-0.150271821281929,1513.83134848767
-0.151745851016036,1513.84134848767
-0.153615193345773,1513.85134848767
-0.155517284668937,1513.86134848767
-0.157913085203415,1513.87134848767
-0.160088570766541,1513.88134848767
-0.162035818100024,1513.89134848767
-0.163619751383938,1513.90134848767
-0.165068147642964,1513.91134848767
-0.16622424765158,1513.92134848767
-0.166513857469637,1513.93134848767
-0.166798280232182,1513.94134848767
-0.166294021480435,1513.95134848767
-0.165082968647197,1513.96134848767
-0.163242523430338,1513.97134848767
-0.160515235658625,1513.98134848767
-0.157806971972527,1513.99134848767
-0.155263216636624,1514.00134848767
-0.152853211269362,1514.01134848767
-0.151325224244317,1514.02134848767
-0.150265633331838,1514.03134848767
-0.149712958783539,1514.04134848767
-0.149498588983651,1514.05134848767
-0.15017790352666,1514.06134848767
-0.151544331900055,1514.07134848767
-0.153204955079395,1514.08134848767
-0.155513560848727,1514.09134848767
-0.15787322920593,1514.10134848767
-0.161154534045774,1514.11134848767
-0.16469827599736,1514.12134848767
-0.16842976515145,1514.13134848767
-0.172636069852803,1514.14134848767
-0.177192420637207,1514.15134848767
-0.180985402824643,1514.16134848767
-0.184675933378806,1514.17134848767
-0.188358509326861,1514.18134848767
-0.192067378280521,1514.19134848767
-0.196025737390372,1514.20134848767
-0.200754819788645,1514.21134848767
-0.20532750557387,1514.22134848767
-0.209411369851923,1514.23134848767
-0.213210406045146,1514.24134848767
-0.216901291437346,1514.25134848767
-0.220651877656552,1514.26134848767
-0.224464238609648,1514.27134848767
-0.229315929071114,1514.28134848767
-0.23459126902502,1514.29134848767
-0.239704743798866,1514.30134848767
-0.244498649020315,1514.31134848767
-0.249390735349926,1514.32134848767
-0.253818463265769,1514.33134848767
-0.258701348802826,1514.34134848767
-0.262661089467264,1514.35134848767
-0.266778428892808,1514.36134848767
-0.271300868953222,1514.37134848767
-0.276080301354851,1514.38134848767
-0.280802102056226,1514.39134848767
-0.285487001898132,1514.40134848767
-0.291244225635034,1514.41134848767
-0.29633574181796,1514.42134848767
-0.301157892996066,1514.43134848767
-0.306052168360156,1514.44134848767
-0.311007043335944,1514.45134848767
-0.31597536739949,1514.46134848767
-0.321888621346282,1514.47134848767
-0.328019972342754,1514.48134848767
-0.333338617736926,1514.49134848767
-0.337653699985557,1514.50134848767
-0.340324628522554,1514.51134848767
-0.339712186819953,1514.52134848767
-0.335016322494376,1514.53134848767
-0.325165349368622,1514.54134848767
-0.310140069112541,1514.55134848767
-0.290453279163394,1514.56134848767
-0.266911850155902,1514.57134848767
-0.242185092052447,1514.58134848767
-0.216738942292804,1514.59134848767
-0.19290652169894,1514.60134848767
-0.172006861666041,1514.61134848767
-0.15445477221919,1514.62134848767
-0.140272758301182,1514.63134848767
-0.12902147703531,1514.64134848767
-0.120473015297224,1514.65134848767
-0.113771723993109,1514.66134848767
-0.108823258707661,1514.67134848767
-0.104483927517997,1514.68134848767
-0.100863348029264,1514.69134848767
-0.0978050605040466,1514.70134848767
-0.0949761530203486,1514.71134848767
-0.0920430806762339,1514.72134848767
-0.0897023023649087,1514.73134848767
-0.0879005713715191,1514.74134848767
-0.0864671607619376,1514.75134848767
-0.0859927755704041,1514.76134848767
-0.0859195524494769,1514.77134848767
-0.0863604068724343,1514.78134848767
-0.0875337267819059,1514.79134848767
-0.0888642091013308,1514.80134848767
-0.0904300692868442,1514.81134848767
-0.091925530067779,1514.82134848767
-0.0937899042447102,1514.83134848767
-0.0952250705794151,1514.84134848767
-0.0970956627934402,1514.85134848767
-0.0982712823633968,1514.86134848767
-0.0982972308434551,1514.87134848767
-0.0971946292879838,1514.88134848767
-0.0951526597474857,1514.89134848767
-0.0922467443323206,1514.90134848767
-0.0887381285421178,1514.91134848767
-0.085366183193815,1514.92134848767
-0.0823874108728826,1514.93134848767
-0.0802781861555538,1514.94134848767
-0.0786018868216388,1514.95134848767
-0.0769953594750802,1514.96134848767
-0.0761264668117581,1514.97134848767
-0.0755193300374164,1514.98134848767
-0.0757980870433208,1514.99134848767
-0.0763427753988109,1515.00134848767
-0.07735088007919,1515.01134848767
-0.0789579681636798,1515.02134848767
-0.0813223111922182,1515.03134848767
-0.0842956718296951,1515.04134848767
-0.0869259503128815,1515.05134848767
-0.0902292248339269,1515.06134848767
-0.0932055705619835,1515.07134848767
-0.0959414088265953,1515.08134848767
-0.0989954357145501,1515.09134848767
-0.102099068687735,1515.10134848767
-0.10554192870883,1515.11134848767
-0.109146753428148,1515.12134848767
-0.113020587951141,1515.13134848767
-0.117004027623502,1515.14134848767
-0.120824063748434,1515.15134848767
-0.124372258416646,1515.16134848767
-0.127869129662948,1515.17134848767
-0.131077787789092,1515.18134848767
-0.134116301155064,1515.19134848767
-0.13801277293061,1515.20134848767
-0.141743383427433,1515.21134848767
-0.145969837162851,1515.22134848767
-0.150853957532278,1515.23134848767
-0.156002372783248,1515.24134848767
-0.161262771416269,1515.25134848767
-0.166239292038651,1515.26134848767
-0.171054347037349,1515.27134848767
-0.17586554486146,1515.28134848767
-0.180286453241377,1515.29134848767
-0.184731256871949,1515.30134848767
-0.188916119855417,1515.31134848767
-0.193367486741084,1515.32134848767
-0.197364954378527,1515.33134848767
-0.201325721575259,1515.34134848767
-0.205352424649873,1515.35134848767
-0.209733109626796,1515.36134848767
-0.214713547536972,1515.37134848767
-0.220669960209345,1515.38134848767
-0.22667168812375,1515.39134848767
-0.233113156326216,1515.40134848767
-0.23882718785382,1515.41134848767
-0.244104919558013,1515.42134848767
-0.249470946223408,1515.43134848767
-0.254517702993381,1515.44134848767
-0.259614613410357,1515.45134848767
-0.263748116096588,1515.46134848767
-0.266820608831218,1515.47134848767
-0.267704956786265,1515.48134848767
-0.265463777903397,1515.49134848767
-0.258806405743011,1515.50134848767
-0.247048003727826,1515.51134848767
-0.229955656390003,1515.52134848767
-0.208811680824232,1515.53134848767
-0.184099056384794,1515.54134848767
-0.15789455261112,1515.55134848767
-0.131529504570784,1515.56134848767
-0.106354234432125,1515.57134848767
-0.0830653549335729,1515.58134848767
-0.0629313199172467,1515.59134848767
-0.0462979547176842,1515.60134848767
-0.0326894238700174,1515.61134848767
-0.0223237461829212,1515.62134848767
-0.0143001461813751,1515.63134848767
-0.00891208212244408,1515.64134848767
-0.00514014372044487,1515.65134848767
-0.00254326958315851,1515.66134848767
-0.000424692661650939,1515.67134848767
0.00121086778243376,1515.68134848767
0.00266840895159562,1515.69134848767
0.00328915928386531,1515.70134848767
0.00386804216130958,1515.71134848767
0.0038612092453873,1515.72134848767
0.00345029059994165,1515.73134848767
0.00261085221679535,1515.74134848767
0.00143644873817673,1515.75134848767
-0.00102646161900065,1515.76134848767
-0.00356362705190947,1515.77134848767
-0.00669151344404968,1515.78134848767
-0.0106598230496117,1515.79134848767
-0.0143620289295896,1515.80134848767
-0.0183081387017846,1515.81134848767
-0.0215894366753283,1515.82134848767
-0.0236840063686765,1515.83134848767
-0.0249821470634676,1515.84134848767
-0.025462200356339,1515.85134848767
-0.0253702614658363,1515.86134848767
-0.0246374682951274,1515.87134848767
-0.0233123360500277,1515.88134848767
-0.0211942434302524,1515.89134848767
-0.0185169951463625,1515.90134848767
-0.0163444454460333,1515.91134848767
-0.0145492768313308,1515.92134848767
-0.013575699925958,1515.93134848767
-0.0133450701186257,1515.94134848767
-0.0136418832077864,1515.95134848767
-0.0145633065179127,1515.96134848767
-0.0161351076679635,1515.97134848767
-0.0180713810488827,1515.98134848767
-0.0206674963000657,1515.99134848767
-0.0237605378644337,1516.00134848767
-0.0270704168360485,1516.01134848767
-0.0305266947227232,1516.02134848767
-0.0341679313356259,1516.03134848767
-0.0384378745464321,1516.04134848767
-0.0430977466499427,1516.05134848767
-0.0474929740239555,1516.06134848767
-0.0520706116266622,1516.07134848767
-0.0564991727569621,1516.08134848767
-0.0608270791814434,1516.09134848767
-0.0651108179504231,1516.10134848767
-0.0695581768186496,1516.11134848767
-0.0741324743414735,1516.12134848767
-0.0794019418586926,1516.13134848767
-0.0849325881010773,1516.14134848767
-0.0904915402618034,1516.15134848767
-0.0963222137838214,1516.16134848767
-0.102391499265023,1516.17134848767
-0.108257964925349,1516.18134848767
-0.113652906290938,1516.19134848767
-0.119775406791333,1516.20134848767
-0.125537553450815,1516.21134848767
-0.131212830099477,1516.22134848767
-0.13672422179472,1516.23134848767
-0.142203300484884,1516.24134848767
-0.147422196265211,1516.25134848767
-0.152333851326795,1516.26134848767
-0.15698050811907,1516.27134848767
-0.16158107525239,1516.28134848767
-0.166902616853902,1516.29134848767
-0.172462470039598,1516.30134848767
-0.178153745515827,1516.31134848767
-0.184395280156131,1516.32134848767
-0.19054824430782,1516.33134848767
-0.19649774584916,1516.34134848767
-0.202561820825078,1516.35134848767
-0.208597832030443,1516.36134848767
-0.214510721757351,1516.37134848767
-0.220393029752434,1516.38134848767
-0.22586659680968,1516.39134848767
-0.230638399504341,1516.40134848767
-0.234724418569644,1516.41134848767
-0.236582481511872,1516.42134848767
-0.235370809320909,1516.43134848767
-0.230048831177611,1516.44134848767
-0.219592719808613,1516.45134848767
-0.203838340704543,1516.46134848767
-0.183533761663956,1516.47134848767
-0.159735837167935,1516.48134848767
-0.134609688616234,1516.49134848767
-0.109477015023568,1516.50134848767
-0.0861943270232949,1516.51134848767
-0.0657311481913519,1516.52134848767
-0.0486707070077457,1516.53134848767
-0.0347018316919751,1516.54134848767
-0.0237503580387939,1516.55134848767
-0.0156828865809766,1516.56134848767
-0.00983509745495381,1516.57134848767
-0.00642505137864417,1516.58134848767
-0.00460686078607668,1516.59134848767
-0.00373669342975041,1516.60134848767
-0.00316928570887357,1516.61134848767
-0.00283951460738177,1516.62134848767
-0.0030917543909085,1516.63134848767
-0.00347400390421389,1516.64134848767
-0.00456665009698363,1516.65134848767
-0.00655713613523531,1516.66134848767
-0.00852248264061249,1516.67134848767
-0.0115733774651477,1516.68134848767
-0.0159563631980058,1516.69134848767
-0.0208328152586702,1516.70134848767
-0.0262939927475215,1516.71134848767
-0.0319522228979955,1516.72134848767
-0.0377543653930424,1516.73134848767
-0.0434171617120166,1516.74134848767
-0.0482385600292243,1516.75134848767
-0.0520598078199841,1516.76134848767
-0.0545048184582014,1516.77134848767
-0.0562509175370436,1516.78134848767
-0.0570624929861903,1516.79134848767
-0.0572558595315704,1516.80134848767
-0.056185310141367,1516.81134848767
-0.0545589829858706,1516.82134848767
-0.0520739011326169,1516.83134848767
-0.0496287417977588,1516.84134848767
-0.0476080130923216,1516.85134848767
-0.0462889574062675,1516.86134848767
-0.0467358525994373,1516.87134848767
-0.0474580554243028,1516.88134848767
-0.0492283033724904,1516.89134848767
-0.0515048342079757,1516.90134848767
-0.0540281623607654,1516.91134848767
-0.0565503732945705,1516.92134848767
-0.0593339674571569,1516.93134848767
-0.0626509931808612,1516.94134848767
-0.0666289764358565,1516.95134848767
-0.0706157253461911,1516.96134848767
-0.0751092302221315,1516.97134848767
-0.0799669883604454,1516.98134848767
-0.0845451222530186,1516.99134848767
-0.0894079161797264,1517.00134848767
-0.0950686241570632,1517.01134848767
-0.100639446032075,1517.02134848767
-0.106895041947792,1517.03134848767
-0.11227023102469,1517.04134848767
-0.117226963979042,1517.05134848767
-0.122156304864184,1517.06134848767
-0.126683002350605,1517.07134848767
-0.131371008596616,1517.08134848767
-0.136541245806026,1517.09134848767
-0.141507118142525,1517.10134848767
-0.146970003521211,1517.11134848767
-0.1523995097982,1517.12134848767
-0.158037547777331,1517.13134848767
-0.163679549816686,1517.14134848767
-0.16900346597522,1517.15134848767
-0.174505061412075,1517.16134848767
-0.179588575708005,1517.17134848767
-0.185342767040271,1517.18134848767
-0.190832544590099,1517.19134848767
-0.197032799238734,1517.20134848767
-0.203261006949177,1517.21134848767
-0.209291746172914,1517.22134848767
-0.215210068804331,1517.23134848767
-0.22058237469426,1517.24134848767
-0.22550196046246,1517.25134848767
-0.22832381660539,1517.26134848767
-0.229507332548989,1517.27134848767
-0.227571050563512,1517.28134848767
-0.221086075501791,1517.29134848767
-0.209572030706634,1517.30134848767
-0.192739004727253,1517.31134848767
-0.171538450426031,1517.32134848767
-0.147331181149223,1517.33134848767
-0.121585464414606,1517.34134848767
-0.0969156186346196,1517.35134848767
-0.0738928576695889,1517.36134848767
-0.0542755219852884,1517.37134848767
-0.037807298003776,1517.38134848767
-0.0244293742789829,1517.39134848767
-0.0141225397164851,1517.40134848767
-0.00674719615085812,1517.41134848767
-0.00166679561728037,1517.42134848767
0.00154695104235363,1517.43134848767
0.00320787787921408,1517.44134848767
0.00371617718104511,1517.45134848767
0.00377951555159354,1517.46134848767
0.00321769284832231,1517.47134848767
0.00145028912860606,1517.48134848767
-0.000850758678609805,1517.49134848767
-0.00406798426055859,1517.50134848767
-0.00795225241609378,1517.51134848767
-0.0118226902920121,1517.52134848767
-0.0161785636167393,1517.53134848767
-0.0201068509179835,1517.54134848767
-0.0238936488647483,1517.55134848767
-0.0275499016907687,1517.56134848767
-0.0315252405607622,1517.57134848767
-0.0356163593008854,1517.58134848767
-0.0398906156866496,1517.59134848767
-0.0431454984419154,1517.60134848767
-0.0454901367698176,1517.61134848767
-0.0466893255907824,1517.62134848767
-0.0470217018892889,1517.63134848767
-0.0462975623340371,1517.64134848767
-0.0448394716659387,1517.65134848767
-0.0427156996968577,1517.66134848767
-0.0403613510879743,1517.67134848767
-0.0379312150357579,1517.68134848767
-0.0362748243989888,1517.69134848767
-0.0349802899697863,1517.70134848767
-0.0349818428332271,1517.71134848767
-0.0359508049477201,1517.72134848767
-0.0376657111330352,1517.73134848767
-0.0400879770410423,1517.74134848767
-0.0426679533283591,1517.75134848767
-0.0450936368519187,1517.76134848767
-0.0476350635265172,1517.77134848767
-0.0501081744146965,1517.78134848767
-0.0527527813635812,1517.79134848767
-0.0556125832091594,1517.80134848767
-0.0589516103624708,1517.81134848767
-0.0628126178975835,1517.82134848767
-0.0672253242294989,1517.83134848767
-0.0720426637963007,1517.84134848767
-0.0772756599503071,1517.85134848767
-0.0822938829796424,1517.86134848767
-0.0876448818999538,1517.87134848767
-0.0932227135697163,1517.88134848767
-0.0984525643166115,1517.89134848767
-0.102990863715341,1517.90134848767
-0.107710192631272,1517.91134848767
-0.113096950544051,1517.92134848767
-0.117898628655617,1517.93134848767
-0.123041013302048,1517.94134848767
-0.128139778802896,1517.95134848767
-0.133247717174424,1517.96134848767
-0.138503817683439,1517.97134848767
-0.144333808749899,1517.98134848767
-0.150540975169571,1517.99134848767
-0.156684590478787,1518.00134848767
-0.163044728792365,1518.01134848767
-0.169125298844703,1518.02134848767
-0.175248634897835,1518.03134848767
-0.180419192651984,1518.04134848767
-0.185890176980014,1518.05134848767
-0.189888218762757,1518.06134848767
-0.192410223847231,1518.07134848767
-0.192046583990076,1518.08134848767
-0.18740373165452,1518.09134848767
-0.177824934672839,1518.10134848767
-0.162353396263264,1518.11134848767
-0.142130321949143,1518.12134848767
-0.118200312005633,1518.13134848767
-0.0919526850442796,1518.14134848767
-0.06537489049127,1518.15134848767
-0.0400074207425492,1518.16134848767
-0.0170064420511641,1518.17134848767
0.00251779028931769,1518.18134848767
0.0183658445866782,1518.19134848767
0.0307375129174258,1518.20134848767
0.0403868116130693,1518.21134848767
0.0470267810747697,1518.22134848767
0.052112736365174,1518.23134848767
0.0560226924352124,1518.24134848767
0.05863931089222,1518.25134848767
0.0599705402468372,1518.26134848767
0.0603489709247058,1518.27134848767
0.0601461166154426,1518.28134848767
0.0598519320147416,1518.29134848767
0.0596139569051207,1518.30134848767
0.0593007671442627,1518.31134848767
0.0588475445578405,1518.32134848767
0.0572351536553743,1518.33134848767
0.0553195292430917,1518.34134848767
0.0529158705467664,1518.35134848767
0.0497839592178161,1518.36134848767
0.045985906450279,1518.37134848767
0.0412581250146532,1518.38134848767
0.0362357914884612,1518.39134848767
0.0312108296083502,1518.40134848767
0.0268714000422191,1518.41134848767
0.0234873545660792,1518.42134848767
0.0209259506606939,1518.43134848767
0.0190701734081627,1518.44134848767
0.0179900420509362,1518.45134848767
0.0181587846874062,1518.46134848767
0.0193678031955373,1518.47134848767
0.0211965756621836,1518.48134848767
0.0230244108676785,1518.49134848767
0.0250237910786569,1518.50134848767
0.0259754619236579,1518.51134848767
0.0260598755495711,1518.52134848767
0.024807504559043,1518.53134848767
0.0225071126823113,1518.54134848767
0.0195587246363029,1518.55134848767
0.0165273321400291,1518.56134848767
0.0132149856988139,1518.57134848767
0.00945312099304169,1518.58134848767
0.00534861639283021,1518.59134848767
0.000591328027880362,1518.60134848767
-0.00465592529178903,1518.61134848767
-0.00998265435386647,1518.62134848767
-0.01532000751059,1518.63134848767
-0.0203840065871648,1518.64134848767
-0.0259036240365784,1518.65134848767
-0.0314509555539013,1518.66134848767
-0.0372306056831482,1518.67134848767
-0.0430218451928221,1518.68134848767
-0.0495719815394085,1518.69134848767
-0.0564407296190948,1518.70134848767
-0.064008073460057,1518.71134848767
-0.0707940060488322,1518.72134848767
-0.0775887187577143,1518.73134848767
-0.0841656711200098,1518.74134848767
-0.0896604203001099,1518.75134848767
-0.0947815036411497,1518.76134848767
-0.0994123029139947,1518.77134848767
-0.103754581278181,1518.78134848767
-0.108414272186647,1518.79134848767
-0.113816979231967,1518.80134848767
-0.120173964747994,1518.81134848767
-0.126880875720352,1518.82134848767
-0.134103469903752,1518.83134848767
-0.141156967777091,1518.84134848767
-0.147767681030271,1518.85134848767
-0.154310632080392,1518.86134848767
-0.160650757498351,1518.87134848767
-0.16736365592996,1518.88134848767
-0.173352875681357,1518.89134848767
-0.178890335020562,1518.90134848767
-0.182043920446651,1518.91134848767
-0.182286299050331,1518.92134848767
-0.178050166984803,1518.93134848767
-0.168502129001417,1518.94134848767
-0.154235316571949,1518.95134848767
-0.135427168052816,1518.96134848767
-0.112910822272994,1518.97134848767
-0.0885728673548777,1518.98134848767
-0.0637168816810429,1518.99134848767
-0.0406139119319973,1519.00134848767
-0.0201982148956671,1519.01134848767
-0.00314911371103459,1519.02134848767
0.0102008611222867,1519.03134848767
0.0198809829049008,1519.04134848767
0.0263324348758932,1519.05134848767
0.0301322810879823,1519.06134848767
0.0322834451697111,1519.07134848767
0.0324324707855234,1519.08134848767
0.032369707554428,1519.09134848767
0.031727620394039,1519.10134848767
0.0300243854753689,1519.11134848767
0.0289078724797772,1519.12134848767
0.0275832776848777,1519.13134848767
0.0261290165636882,1519.14134848767
0.0240409030124546,1519.15134848767
0.0214731458036794,1519.16134848767
0.0183584462352342,1519.17134848767
0.0145336825771382,1519.18134848767
0.010164440168681,1519.19134848767
0.00562838274006004,1519.20134848767
0.000216371437572949,1519.21134848767
-0.00495425477014851,1519.22134848767
-0.0106343812261037,1519.23134848767
-0.0153888461387673,1519.24134848767
-0.0194493825664519,1519.25134848767
-0.0228013440785158,1519.26134848767
-0.0252057688556633,1519.27134848767
-0.0266864226442116,1519.28134848767
-0.0265392205232194,1519.29134848767
-0.0259570162291763,1519.30134848767
-0.0243710978180354,1519.31134848767
-0.0221331498906117,1519.32134848767
-0.0202580597281417,1519.33134848767
-0.0184378092651721,1519.34134848767
-0.0175095220739586,1519.35134848767
-0.0179680857113924,1519.36134848767
-0.0193919665888378,1519.37134848767
-0.0219256299682018,1519.38134848767
-0.0247207468747509,1519.39134848767
-0.0277834294649775,1519.40134848767
-0.0316395460767389,1519.41134848767
-0.0359248253681443,1519.42134848767
-0.0405993202544401,1519.43134848767
-0.0459058067258956,1519.44134848767
-0.0514701157650695,1519.45134848767
-0.0569168779651455,1519.46134848767
-0.0619259150725684,1519.47134848767
-0.0669019079988683,1519.48134848767
-0.0718264246107684,1519.49134848767
-0.0766898533949278,1519.50134848767
-0.0821626153642147,1519.51134848767
-0.0877044944358566,1519.52134848767
-0.0932168077174873,1519.53134848767
-0.0988988680686848,1519.54134848767
-0.105270261353629,1519.55134848767
-0.111120756657639,1519.56134848767
-0.117328504153307,1519.57134848767
-0.123164625252243,1519.58134848767
-0.128399189113962,1519.59134848767
-0.133560961905482,1519.60134848767
-0.138501288407456,1519.61134848767
-0.143619632000371,1519.62134848767
-0.149187048960531,1519.63134848767
-0.154418430854761,1519.64134848767
-0.159287613793203,1519.65134848767
-0.164346675462457,1519.66134848767
-0.169706585468032,1519.67134848767
-0.175537067436952,1519.68134848767
-0.181965473832068,1519.69134848767
-0.18851839353276,1519.70134848767
-0.195130898249683,1519.71134848767
-0.20210179167354,1519.72134848767
-0.208672806117911,1519.73134848767
-0.214724751130544,1519.74134848767
-0.22020220215988,1519.75134848767
-0.223527744393175,1519.76134848767
-0.224445840811047,1519.77134848767
-0.220664729676784,1519.78134848767
-0.211781480651423,1519.79134848767
-0.198196928339739,1519.80134848767
-0.180761836237975,1519.81134848767
-0.161580522408252,1519.82134848767
-0.142014475768095,1519.83134848767
-0.122909162627232,1519.84134848767
-0.105856420177207,1519.85134848767
-0.0909591407085297,1519.86134848767
-0.0789484763626837,1519.87134848767
-0.070367913205658,1519.88134848767
-0.0647466089467253,1519.89134848767
-0.0618574881000362,1519.90134848767
-0.0610157435887519,1519.91134848767
-0.0617849412665867,1519.92134848767
-0.0636599330961199,1519.93134848767
-0.0660582094659347,1519.94134848767
-0.0690991907760417,1519.95134848767
-0.0724622271037383,1519.96134848767
-0.0759697945645615,1519.97134848767
-0.0803909694527159,1519.98134848767
-0.0845131769889999,1519.99134848767
-0.0889327961848843,1520.00134848767
-0.0934587339418646,1520.01134848767
-0.0982115364054385,1520.02134848767
-0.103514504157082,1520.03134848767
-0.1092993750004,1520.04134848767
-0.115630880163796,1520.05134848767
-0.122028042617668,1520.06134848767
-0.128373686294157,1520.07134848767
-0.134086689756184,1520.08134848767
-0.138766538907427,1520.09134848767
-0.141898007947975,1520.10134848767
-0.143294723430448,1520.11134848767
-0.143385796352798,1520.12134848767
-0.141864982978964,1520.13134848767
-0.139819675116027,1520.14134848767
-0.137351855096388,1520.15134848767
-0.135331951395332,1520.16134848767
-0.13370170448791,1520.17134848767
-0.13301489915382,1520.18134848767
-0.133990040036006,1520.19134848767
-0.135756758701428,1520.20134848767
-0.138197329886413,1520.21134848767
-0.141189975743932,1520.22134848767
-0.143892424024571,1520.23134848767
-0.146850233725646,1520.24134848767
-0.149385724875032,1520.25134848767
-0.152067704645108,1520.26134848767
-0.154614283626824,1520.27134848767
-0.157330951980736,1520.28134848767
-0.160660990104367,1520.29134848767
-0.164705804999172,1520.30134848767
-0.169404166176805,1520.31134848767
-0.174059075718892,1520.32134848767
-0.179319521237165,1520.33134848767
-0.184338574232319,1520.34134848767
-0.189464397227645,1520.35134848767
-0.194636764162022,1520.36134848767
-0.199603128338686,1520.37134848767
-0.204394026208875,1520.38134848767
-0.208413090621566,1520.39134848767
-0.2118821378481,1520.40134848767
-0.215707327322522,1520.41134848767
-0.219413817750971,1520.42134848767
-0.223312468241741,1520.43134848767
-0.22814816516234,1520.44134848767
-0.232683434527522,1520.45134848767
-0.237478360141709,1520.46134848767
-0.242210557242371,1520.47134848767
-0.24711678667869,1520.48134848767
-0.252153944172697,1520.49134848767
-0.257238678813014,1520.50134848767
-0.261911577223688,1520.51134848767
-0.266598229197067,1520.52134848767
-0.272124105275091,1520.53134848767
-0.27769114282975,1520.54134848767
-0.282403507704698,1520.55134848767
-0.286234852953969,1520.56134848767
-0.287895364709504,1520.57134848767
-0.286681988138462,1520.58134848767
-0.281412512469871,1520.59134848767
-0.271404767560233,1520.60134848767
-0.257244476250932,1520.61134848767
-0.239638154166526,1520.62134848767
-0.21905751720563,1520.63134848767
-0.198330266060678,1520.64134848767
-0.178584297841878,1520.65134848767
-0.160920035572944,1520.66134848767
-0.146219479310161,1520.67134848767
-0.134701569063839,1520.68134848767
-0.126458831460054,1520.69134848767
-0.120591403694053,1520.70134848767
-0.11716660125612,1520.71134848767
-0.115149876992276,1520.72134848767
-0.114475840196004,1520.73134848767
-0.11486593179065,1520.74134848767
-0.115669601282274,1520.75134848767
-0.117122545347593,1520.76134848767
-0.118691466680268,1520.77134848767
-0.120471449432607,1520.78134848767
-0.122899584967702,1520.79134848767
-0.123992411339047,1520.80134848767
-0.125470470468398,1520.81134848767
-0.12703891512237,1520.82134848767
-0.128939339848553,1520.83134848767
-0.131570018107729,1520.84134848767
-0.135263626991715,1520.85134848767
-0.139414006700727,1520.86134848767
-0.143249822758698,1520.87134848767
-0.147107824761353,1520.88134848767
-0.150679289533079,1520.89134848767
-0.153436047420114,1520.90134848767
-0.154970880886085,1520.91134848767
-0.155412225696941,1520.92134848767
-0.154870612102056,1520.93134848767
-0.15376622707887,1520.94134848767
-0.152135632640195,1520.95134848767
-0.150332848820141,1520.96134848767
-0.148396520910107,1520.97134848767
-0.146577228236754,1520.98134848767
-0.144789325901973,1520.99134848767
-0.144016158959501,1521.00134848767
-0.144913223497435,1521.01134848767
-0.146395470039104,1521.02134848767
-0.148619415906178,1521.03134848767
-0.151226700410277,1521.04134848767
-0.154281516795831,1521.05134848767
-0.157197893003302,1521.06134848767
-0.160292329041361,1521.07134848767
-0.163585153244009,1521.08134848767
-0.166943077864644,1521.09134848767
-0.171031709344009,1521.10134848767
-0.174807685084248,1521.11134848767
-0.17836229056419,1521.12134848767
-0.181690802370324,1521.13134848767
-0.185174234712171,1521.14134848767
-0.188582868043628,1521.15134848767
-0.192394292168646,1521.16134848767
-0.196697067263284,1521.17134848767
-0.201468241307648,1521.18134848767
-0.205892477937127,1521.19134848767
-0.21085127358505,1521.20134848767
-0.21533477683078,1521.21134848767
-0.219951193428173,1521.22134848767
-0.224931780635878,1521.23134848767
-0.229787086749459,1521.24134848767
-0.234869578141094,1521.25134848767
-0.240032401847046,1521.26134848767
-0.243979570623621,1521.27134848767
-0.248460105341035,1521.28134848767
-0.252891735141505,1521.29134848767
-0.257162663650906,1521.30134848767
-0.261865033897108,1521.31134848767
-0.267137326912731,1521.32134848767
-0.271924810522565,1521.33134848767
-0.277047121949884,1521.34134848767
-0.281742691733787,1521.35134848767
-0.286344385891948,1521.36134848767
-0.291267679509832,1521.37134848767
-0.296308292542604,1521.38134848767
-0.300916687391167,1521.39134848767
-0.305315856457081,1521.40134848767
-0.309879334339419,1521.41134848767
-0.31388997849547,1521.42134848767
-0.316617790472516,1521.43134848767
-0.317713592359319,1521.44134848767
-0.315471310421917,1521.45134848767
-0.309574827220679,1521.46134848767
-0.298592261680958,1521.47134848767
-0.283119877463077,1521.48134848767
-0.26396593584497,1521.49134848767
-0.242606771613672,1521.50134848767
-0.220167263134044,1521.51134848767
-0.198555481264791,1521.52134848767
-0.179137470559945,1521.53134848767
-0.162399967866378,1521.54134848767
-0.148722231615497,1521.55134848767
-0.138092890119054,1521.56134848767
-0.130365537525948,1521.57134848767
-0.125191328447847,1521.58134848767
-0.121508228318382,1521.59134848767
-0.119334324129013,1521.60134848767
-0.118131310049763,1521.61134848767
-0.117072627654217,1521.62134848767
-0.116968042024215,1521.63134848767
-0.116891938942719,1521.64134848767
-0.11749064793434,1521.65134848767
-0.118196470353394,1521.66134848767
-0.1186389442056,1521.67134848767
-0.11931414819485,1521.68134848767
-0.120295696579245,1521.69134848767
-0.121756643139325,1521.70134848767
-0.123464620993267,1521.71134848767
-0.12539735390739,1521.72134848767
-0.127811188850926,1521.73134848767
-0.130657884133897,1521.74134848767
-0.133351406507684,1521.75134848767
-0.136427183431049,1521.76134848767
-0.139234238318828,1521.77134848767
-0.14128900456239,1521.78134848767
-0.143049030054145,1521.79134848767
-0.143349405211586,1521.80134848767
-0.143044087572811,1521.81134848767
-0.141930666740903,1521.82134848767
-0.139702239292776,1521.83134848767
-0.137107502941073,1521.84134848767
-0.134753860927111,1521.85134848767
-0.132218948933783,1521.86134848767
-0.129992264702837,1521.87134848767
-0.128488636973187,1521.88134848767
-0.127697838507294,1521.89134848767
-0.128010550936672,1521.90134848767
-0.128831812294586,1521.91134848767
-0.131021924290022,1521.92134848767
-0.133983678800453,1521.93134848767
-0.137138891195889,1521.94134848767
-0.140824711558779,1521.95134848767
-0.143916977172495,1521.96134848767
-0.147376483460279,1521.97134848767
-0.150933101821704,1521.98134848767
-0.154528424381426,1521.99134848767
-0.158495831117269,1522.00134848767
-0.161993549036234,1522.01134848767
-0.164993495545437,1522.02134848767
-0.168296884356917,1522.03134848767
-0.171143550156993,1522.04134848767
-0.174121001874503,1522.05134848767
-0.176893178278298,1522.06134848767
-0.180191140773562,1522.07134848767
-0.183406358206107,1522.08134848767
-0.185602948355508,1522.09134848767
-0.187075866010844,1522.10134848767
-0.187216497917579,1522.11134848767
-0.186959995845743,1522.12134848767
-0.186153600455764,1522.13134848767
-0.185308346175185,1522.14134848767
-0.18420433400048,1522.15134848767
-0.184136389266883,1522.16134848767
-0.185559538310212,1522.17134848767
-0.188395635802912,1522.18134848767
-0.192459587899412,1522.19134848767
-0.19760603084498,1522.20134848767
-0.203312180957421,1522.21134848767
-0.208841232289745,1522.22134848767
-0.214576184616505,1522.23134848767
-0.219129232286673,1522.24134848767
-0.223412470323097,1522.25134848767
-0.227412854736925,1522.26134848767
-0.231302252110826,1522.27134848767
-0.235479464372449,1522.28134848767
-0.239516529113224,1522.29134848767
-0.243750653496143,1522.30134848767
-0.248216187816428,1522.31134848767
-0.252498520705221,1522.32134848767
-0.256361876408523,1522.33134848767
-0.260328038018644,1522.34134848767
-0.263784356824543,1522.35134848767
-0.266833868563541,1522.36134848767
-0.269543196670625,1522.37134848767
-0.271139518685475,1522.38134848767
-0.270286641776139,1522.39134848767
-0.265399832740773,1522.40134848767
-0.25573939321741,1522.41134848767
-0.241151391795737,1522.42134848767
-0.221560329100515,1522.43134848767
-0.198983014262933,1522.44134848767
-0.174893839442602,1522.45134848767
-0.150950875653971,1522.46134848767
-0.128346879651788,1522.47134848767
-0.108475049084626,1522.48134848767
-0.0924646609368068,1522.49134848767
-0.0798724990591259,1522.50134848767
-0.0699288293883467,1522.51134848767
-0.0625424779705344,1522.52134848767
-0.0570109086454146,1522.53134848767
-0.0532366157594689,1522.54134848767
-0.0507775956005561,1522.55134848767
-0.0493438215427171,1522.56134848767
-0.0487075750440543,1522.57134848767
-0.0483851003223994,1522.58134848767
-0.0481897668938666,1522.59134848767
-0.047541902786623,1522.60134848767
-0.0468236038209364,1522.61134848767
-0.0459090963065256,1522.62134848767
-0.0453613647874097,1522.63134848767
-0.0456709935620097,1522.64134848767
-0.0466534876650916,1522.65134848767
-0.0481052204863854,1522.66134848767
-0.0501490146088287,1522.67134848767
-0.0513933544990217,1522.68134848767
-0.0529545424515009,1522.69134848767
-0.0544776908866517,1522.70134848767
-0.0559097426655297,1522.71134848767
-0.057482941150243,1522.72134848767
-0.0585831500235324,1522.73134848767
-0.0592614887617663,1522.74134848767
-0.0586921880156718,1522.75134848767
-0.0572337447745479,1522.76134848767
-0.0555678651326408,1522.77134848767
-0.0541477157955841,1522.78134848767
-0.0523000573902649,1522.79134848767
-0.0507218079778126,1522.80134848767
-0.0485306147412769,1522.81134848767
-0.0465714577125369,1522.82134848767
-0.0451871661708926,1522.83134848767
-0.0446735017283658,1522.84134848767
-0.0451493356280128,1522.85134848767
-0.0465711654688644,1522.86134848767
-0.0487683573251233,1522.87134848767
-0.0509968239370974,1522.88134848767
-0.0535930444626347,1522.89134848767
-0.0568496743189275,1522.90134848767
-0.0601879813875171,1522.91134848767
-0.0633980645023376,1522.92134848767
-0.0670349012939011,1522.93134848767
-0.0708092740614835,1522.94134848767
-0.074048909002308,1522.95134848767
-0.0772717344872624,1522.96134848767
-0.0802460705068339,1522.97134848767
-0.0829466159823641,1522.98134848767
-0.0852715440278232,1522.99134848767
-0.0882161199897157,1523.00134848767
-0.0916568473742536,1523.01134848767
-0.0950798565654531,1523.02134848767
-0.0989436849358578,1523.03134848767
-0.102826325952529,1523.04134848767
-0.107104870816892,1523.05134848767
-0.1109645443228,1523.06134848767
-0.114682759782749,1523.07134848767
-0.11905272378038,1523.08134848767
-0.123819670806147,1523.09134848767
-0.128814985744187,1523.10134848767
-0.133981274541122,1523.11134848767
-0.13908456890085,1523.12134848767
-0.143953231872038,1523.13134848767
-0.148586026597604,1523.14134848767
-0.152983517381488,1523.15134848767
-0.157250562568281,1523.16134848767
-0.16122293441674,1523.17134848767
-0.165517907132889,1523.18134848767
-0.169597130332015,1523.19134848767
-0.173806117131433,1523.20134848767
-0.178677053194053,1523.21134848767
-0.183590157343489,1523.22134848767
-0.187770467044935,1523.23134848767
-0.192272702537026,1523.24134848767
-0.196686785802265,1523.25134848767
-0.201288173544448,1523.26134848767
-0.206261920730326,1523.27134848767
-0.211317797470601,1523.28134848767
-0.216453890530758,1523.29134848767
-0.221770695934972,1523.30134848767
-0.226969821889456,1523.31134848767
-0.23117046011516,1523.32134848767
-0.234265866129038,1523.33134848767
-0.235921078207033,1523.34134848767
-0.2345302604505,1523.35134848767
-0.23011907880484,1523.36134848767
-0.221735940273408,1523.37134848767
-0.208536406387769,1523.38134848767
-0.191496182053181,1523.39134848767
-0.171372651673728,1523.40134848767
-0.149835110072691,1523.41134848767
-0.127883128090068,1523.42134848767
-0.107850310845809,1523.43134848767
-0.0897425470363348,1523.44134848767
-0.0752550820868923,1523.45134848767
-0.0646069106498992,1523.46134848767
-0.0570297306090487,1523.47134848767
-0.0524126310742546,1523.48134848767
-0.050095227255935,1523.49134848767
-0.0494883646407122,1523.50134848767
-0.0500744675888031,1523.51134848767
-0.0509421149989595,1523.52134848767
-0.0521172193944425,1523.53134848767
-0.0536468596401624,1523.54134848767
-0.0550328285277421,1523.55134848767
-0.0556413576308133,1523.56134848767
-0.0563596422798661,1523.57134848767
-0.0572433810217924,1523.58134848767
-0.058399960234332,1523.59134848767
-0.0600206552726457,1523.60134848767
-0.0621891535309033,1523.61134848767
-0.0653727130897816,1523.62134848767
-0.0688876806502225,1523.63134848767
-0.0727329612495916,1523.64134848767
-0.0766369550528094,1523.65134848767
-0.0797711801169092,1523.66134848767
-0.082506272462858,1523.67134848767
-0.0846512909113429,1523.68134848767
-0.0854150718705614,1523.69134848767
-0.0849341026718257,1523.70134848767
-0.0835570701704728,1523.71134848767
-0.0815665631192467,1523.72134848767
-0.0787495077993892,1523.73134848767
-0.0760443570323777,1523.74134848767
-0.0743239536935963,1523.75134848767
-0.0724446852411011,1523.76134848767
-0.0709531356468699,1523.77134848767
-0.0704190842422219,1523.78134848767
-0.0703847873363453,1523.79134848767
-0.0709018397346478,1523.80134848767
-0.07221414925048,1523.81134848767
-0.0737582420741911,1523.82134848767
-0.0755862325999959,1523.83134848767
-0.076583297518854,1523.84134848767
-0.0778768249531309,1523.85134848767
-0.0798349362611805,1523.86134848767
-0.0819734363626224,1523.87134848767
-0.0846301889687785,1523.88134848767
-0.0880591572860452,1523.89134848767
-0.0922681489144166,1523.90134848767
-0.0960165087150218,1523.91134848767
-0.0993056787401559,1523.92134848767
-0.102575439582672,1523.93134848767
-0.105318741545764,1523.94134848767
-0.108347058228377,1523.95134848767
-0.110861921003808,1523.96134848767
-0.113716452382999,1523.97134848767
-0.116631889215066,1523.98134848767
-0.119888412242539,1523.99134848767
-0.123370759407102,1524.00134848767
-0.126965575925002,1524.01134848767
-0.130484787675656,1524.02134848767
-0.133943287165773,1524.03134848767
-0.137434746242994,1524.04134848767
-0.140162876010293,1524.05134848767
-0.142820811686636,1524.06134848767
-0.145563098525231,1524.07134848767
-0.148094301299034,1524.08134848767
-0.151216286572774,1524.09134848767
-0.154513590372393,1524.10134848767
-0.157863977066977,1524.11134848767
-0.161666544653179,1524.12134848767
-0.165274658074279,1524.13134848767
-0.168814128717422,1524.14134848767
-0.172869233149352,1524.15134848767
-0.176999943222281,1524.16134848767
-0.18068290300066,1524.17134848767
-0.184841973761394,1524.18134848767
-0.18963497871613,1524.19134848767
-0.194542894191362,1524.20134848767
-0.199317472492774,1524.21134848767
-0.203605886077874,1524.22134848767
-0.20722117727307,1524.23134848767
-0.208596259021155,1524.24134848767
-0.208061693275244,1524.25134848767
-0.203636128855192,1524.26134848767
-0.194628801975447,1524.27134848767
-0.180883443213792,1524.28134848767
-0.162931281847567,1524.29134848767
-0.142121773092493,1524.30134848767
-0.120380384592097,1524.31134848767
-0.0993919530986715,1524.32134848767
-0.0796554568986193,1524.33134848767
-0.062570527998558,1524.34134848767
-0.0486822116626134,1524.35134848767
-0.0376070027524779,1524.36134848767
-0.0292195070174459,1524.37134848767
-0.0237122835055848,1524.38134848767
-0.0199674301182091,1524.39134848767
-0.017959957660702,1524.40134848767
-0.0170849755687918,1524.41134848767
-0.0167516513487626,1524.42134848767
-0.0171673554419799,1524.43134848767
-0.0179620280836776,1524.44134848767
-0.0184791266520697,1524.45134848767
-0.0193416187978971,1524.46134848767
-0.0202231574953228,1524.47134848767
-0.0214468256963675,1524.48134848767
-0.0224835124479319,1524.49134848767
-0.023956718276854,1524.50134848767
-0.025688475556558,1524.51134848767
-0.0279895353951606,1524.52134848767
-0.0306258800919358,1524.53134848767
-0.0330813944508343,1524.54134848767
-0.0351425667224471,1524.55134848767
-0.0370975379915208,1524.56134848767
-0.0386348351185595,1524.57134848767
-0.039873284013286,1524.58134848767
-0.0399348730279035,1524.59134848767
-0.0383988183446937,1524.60134848767
-0.0361236106854526,1524.61134848767
-0.0329798517348374,1524.62134848767
-0.0298499346151842,1524.63134848767
-0.0264056023104559,1524.64134848767
-0.0231029641305954,1524.65134848767
-0.020079228470311,1524.66134848767
-0.0170430856441372,1524.67134848767
-0.0145675168367118,1524.68134848767
-0.0127998184239322,1524.69134848767
-0.0120683712402559,1524.70134848767
-0.0123939146779108,1524.71134848767
-0.0131498857923162,1524.72134848767
-0.0145493490948584,1524.73134848767
-0.0169069152125844,1524.74134848767
-0.0196069794951208,1524.75134848767
-0.0223679556683339,1524.76134848767
-0.0251467702107449,1524.77134848767
-0.0276846087484954,1524.78134848767
-0.0303956772360657,1524.79134848767
-0.0330106164887225,1524.80134848767
-0.0353362965155504,1524.81134848767
-0.03802349623199,1524.82134848767
-0.0407362333417581,1524.83134848767
-0.0438674918633798,1524.84134848767
-0.0472045506372279,1524.85134848767
-0.0508270325492125,1524.86134848767
-0.0540600118782611,1524.87134848767
-0.0575923427383385,1524.88134848767
-0.0606677220699784,1524.89134848767
-0.063590976464488,1524.90134848767
-0.0664177119990507,1524.91134848767
-0.0691946759168602,1524.92134848767
-0.0724664434262006,1524.93134848767
-0.0752173002319985,1524.94134848767
-0.0786266745476789,1524.95134848767
-0.0821079374043843,1524.96134848767
-0.0854859337938924,1524.97134848767
-0.0896207837043321,1524.98134848767
-0.0938169698315988,1524.99134848767
-0.0984245969943267,1525.00134848767
-0.102604833081552,1525.01134848767
-0.106010926710625,1525.02134848767
-0.109134578329637,1525.03134848767
-0.112562891002294,1525.04134848767
-0.115766496440112,1525.05134848767
-0.11987601623727,1525.06134848767
-0.124237277445,1525.07134848767
-0.1286395254874,1525.08134848767
-0.132931825725467,1525.09134848767
-0.137615163070108,1525.10134848767
-0.142457969288017,1525.11134848767
-0.147310443699377,1525.12134848767
-0.151730897128613,1525.13134848767
-0.1553594211582,1525.14134848767
-0.158214620392402,1525.15134848767
-0.158677360637797,1525.16134848767
-0.155868817886152,1525.17134848767
-0.148642914561147,1525.18134848767
-0.136795881329942,1525.19134848767
-0.120316301289297,1525.20134848767
-0.0996690428185693,1525.21134848767
-0.076632834204037,1525.22134848767
-0.0529593416848484,1525.23134848767
-0.0303753662293534,1525.24134848767
-0.00973285790470401,1525.25134848767
0.00765262876026119,1525.26134848767
0.0216080218318498,1525.27134848767
0.0329942599441419,1525.28134848767
0.0420694744307454,1525.29134848767
0.0494634751733161,1525.30134848767
0.0551331769689632,1525.31134848767
0.0595036495558821,1525.32134848767
0.0631113494475825,1525.33134848767
0.0657633204372344,1525.34134848767
0.0681421001020249,1525.35134848767
0.0699807633082737,1525.36134848767
0.0713538989712454,1525.37134848767
0.0726456393950122,1525.38134848767
0.0737429471197091,1525.39134848767
0.0749425880501418,1525.40134848767
0.0755510602867766,1525.41134848767
0.0762379991630727,1525.42134848767
0.0757775917501176,1525.43134848767
0.0741144544738028,1525.44134848767
0.0720796958982373,1525.45134848767
0.0692398685766243,1525.46134848767
0.0667095073369493,1525.47134848767
0.0641432925424971,1525.48134848767
0.0619811869015446,1525.49134848767
0.061221802886971,1525.50134848767
0.0619327111277987,1525.51134848767
0.0634351932095119,1525.52134848767
0.065754741036522,1525.53134848767
0.0689538691212096,1525.54134848767
0.0722777185941527,1525.55134848767
0.0762742112060798,1525.56134848767
0.0796720508859069,1525.57134848767
0.0828107630411996,1525.58134848767
0.0851245474089113,1525.59134848767
0.0860972415293876,1525.60134848767
0.0865566455163316,1525.61134848767
0.0862610215952011,1525.62134848767
0.0860802669277191,1525.63134848767
0.0861361579268639,1525.64134848767
0.0863975797348167,1525.65134848767
0.0858959580997026,1525.66134848767
0.0850907980237395,1525.67134848767
0.0835450979407509,1525.68134848767
0.0814046822326882,1525.69134848767
0.0794664508524647,1525.70134848767
0.0770280372044386,1525.71134848767
0.0746240870530826,1525.72134848767
0.0720632048000295,1525.73134848767
0.0690798505374451,1525.74134848767
0.0658386510441116,1525.75134848767
0.0624599726960403,1525.76134848767
0.0588352545312276,1525.77134848767
0.0552213351386294,1525.78134848767
0.051492679553964,1525.79134848767
0.0476789813649499,1525.80134848767
0.0440567343595865,1525.81134848767
0.0403919003758227,1525.82134848767
0.037381393334479,1525.83134848767
0.03459219051373,1525.84134848767
0.0320683165096706,1525.85134848767
0.0295469138435446,1525.86134848767
0.0263258375889729,1525.87134848767
0.0225975503371737,1525.88134848767
0.0183599187756454,1525.89134848767
0.0140637232156479,1525.90134848767
0.00867247122081997,1525.91134848767
0.00404085952932321,1525.92134848767
-0.000622945703059724,1525.93134848767
-0.00477259198919235,1525.94134848767
-0.00857631322006242,1525.95134848767
-0.0124317330214911,1525.96134848767
-0.0164703721570505,1525.97134848767
-0.0207711348001757,1525.98134848767
-0.0249693288904496,1525.99134848767
-0.029834589424482,1526.00134848767
-0.0348180211758499,1526.01134848767
-0.0398533836774049,1526.02134848767
-0.0453416223240537,1526.03134848767
-0.0509545051663647,1526.04134848767
-0.0562891289445255,1526.05134848767
-0.0609997089151511,1526.06134848767
-0.064981426637607,1526.07134848767
-0.0677338064858086,1526.08134848767
-0.0688686054039455,1526.09134848767
-0.0672813387314258,1526.10134848767
-0.0622060773794575,1526.11134848767
-0.0525965288958991,1526.12134848767
-0.0379793761173555,1526.13134848767
-0.0189290084444594,1526.14134848767
0.00326947450555446,1526.15134848767
0.0272587648696979,1526.16134848767
0.0515201188712312,1526.17134848767
0.0749352249267167,1526.18134848767
0.0962207902560152,1526.19134848767
0.11496638005838,1526.20134848767
0.131002586264052,1526.21134848767
0.14346939217833,1526.22134848767
0.153037399806634,1526.23134848767
0.159825218277031,1526.24134848767
0.163878548500351,1526.25134848767
0.167195309219232,1526.26134848767
0.169179033971555,1526.27134848767
0.170478232344838,1526.28134848767
0.171934637323919,1526.29134848767
0.172049430353772,1526.30134848767
0.172439706677109,1526.31134848767
0.173007952160274,1526.32134848767
0.173589250804951,1526.33134848767
0.173906283191608,1526.34134848767
0.173251307983943,1526.35134848767
0.171447122841147,1526.36134848767
0.168346190847165,1526.37134848767
0.16526236183052,1526.38134848767
0.161663522723454,1526.39134848767
0.158268287999203,1526.40134848767
0.155499959941609,1526.41134848767
0.153521898009976,1526.42134848767
0.151957383797784,1526.43134848767
0.151194647582584,1526.44134848767
0.150014417796641,1526.45134848767
0.149956666142023,1526.46134848767
0.151098739788084,1526.47134848767
0.153064015413481,1526.48134848767
0.155581631083368,1526.49134848767
0.158703191176296,1526.50134848767
0.161619904614479,1526.51134848767
0.164251631745229,1526.52134848767
0.166309913507868,1526.53134848767
0.167998422569769,1526.54134848767
0.168425014353413,1526.55134848767
0.168437068163762,1526.56134848767
0.167245608659597,1526.57134848767
0.164779457636435,1526.58134848767
0.16211751403517,1526.59134848767
0.159151375108607,1526.60134848767
0.156361533011151,1526.61134848767
0.153754601634031,1526.62134848767
0.150810783481101,1526.63134848767
0.147308529217167,1526.64134848767
0.144096997047617,1526.65134848767
0.140582829436866,1526.66134848767
0.137320394507386,1526.67134848767
0.133948576259674,1526.68134848767
0.130283716334925,1526.69134848767
0.126896318187159,1526.70134848767
0.123292079382048,1526.71134848767
0.119725037539228,1526.72134848767
0.116045155270633,1526.73134848767
0.112452102055229,1526.74134848767
0.108742744288068,1526.75134848767
0.104950377671715,1526.76134848767
0.100885694011176,1526.77134848767
0.0961673396781267,1526.78134848767
0.0916951921403889,1526.79134848767
0.0867720053363934,1526.80134848767
0.0820277013795537,1526.81134848767
0.0772250812327781,1526.82134848767
0.0725392768718865,1526.83134848767
0.0685327043248791,1526.84134848767
0.0644039862491916,1526.85134848767
0.0600806427020851,1526.86134848767
0.0556634375945587,1526.87134848767
0.0511991448800428,1526.88134848767
0.0462045709007285,1526.89134848767
0.0414811166366396,1526.90134848767
0.0368724564958696,1526.91134848767
0.0318347306412756,1526.92134848767
0.026650183624014,1526.93134848767
0.0212276012121258,1526.94134848767
0.0153020632697795,1526.95134848767
0.00892381242925694,1526.96134848767
0.0030158572276003,1526.97134848767
-0.00148348834222807,1526.98134848767
-0.00451783261377458,1526.99134848767
-0.00444100155805727,1527.00134848767
-0.000314656602237868,1527.01134848767
0.00784169664737101,1527.02134848767
0.0216303487952529,1527.03134848767
0.039483929047619,1527.04134848767
0.0609531419384135,1527.05134848767
0.0834454210775637,1527.06134848767
0.106150013201358,1527.07134848767
0.127537437810878,1527.08134848767
0.146865710803722,1527.09134848767
0.163375960644605,1527.10134848767
0.176135016934757,1527.11134848767
0.186038989959238,1527.12134848767
0.193361434020336,1527.13134848767
0.198942887026162,1527.14134848767
0.202178415525642,1527.15134848767
0.204332656786913,1527.16134848767
0.205213451790782,1527.17134848767
0.205249220700396,1527.18134848767
0.204458775212307,1527.19134848767
0.203643414454657,1527.20134848767
0.202859614684534,1527.21134848767
0.201553652731939,1527.22134848767
0.199722047432939,1527.23134848767
0.197368253015711,1527.24134848767
0.194467909916601,1527.25134848767
0.190595368129499,1527.26134848767
0.186260160257278,1527.27134848767
0.181207904203926,1527.28134848767
0.17630824766286,1527.29134848767
0.171789721693866,1527.30134848767
0.167933676170343,1527.31134848767
0.16496544130239,1527.32134848767
0.163170125795212,1527.33134848767
0.162914616382603,1527.34134848767
0.163365717161351,1527.35134848767
0.165171309736745,1527.36134848767
0.167552759088258,1527.37134848767
0.170515915717299,1527.38134848767
0.173655558474037,1527.39134848767
0.176611773425758,1527.40134848767
0.179082918454272,1527.41134848767
0.181553116420939,1527.42134848767
0.183163058417998,1527.43134848767
0.183931995171507,1527.44134848767
0.18374730726319,1527.45134848767
0.183159802913293,1527.46134848767
0.181452419545763,1527.47134848767
0.179019343155685,1527.48134848767
0.176510729038227,1527.49134848767
0.173765290995758,1527.50134848767
0.170956018236308,1527.51134848767
0.168143741965391,1527.52134848767
0.165442854372181,1527.53134848767
0.162335044185305,1527.54134848767
0.159580345745078,1527.55134848767
0.15644072519629,1527.56134848767
0.15312728658074,1527.57134848767
0.14873501143744,1527.58134848767
0.144363932186842,1527.59134848767
0.140062502571181,1527.60134848767
0.135565183443306,1527.61134848767
0.131434527250114,1527.62134848767
0.126922384037343,1527.63134848767
0.122536394594924,1527.64134848767
0.117951845636013,1527.65134848767
0.113672895990009,1527.66134848767
0.109626066516172,1527.67134848767
0.105569066741024,1527.68134848767
0.101826057468923,1527.69134848767
0.0979805617889925,1527.70134848767
0.0943495942667289,1527.71134848767
0.0904879314411369,1527.72134848767
0.0869054013292445,1527.73134848767
0.0831606604800601,1527.74134848767
0.0795901640872521,1527.75134848767
0.0756612375322698,1527.76134848767
0.0716974229926498,1527.77134848767
0.0671367656483681,1527.78134848767
0.0616751555794173,1527.79134848767
0.0560323565692798,1527.80134848767
0.0502429338105042,1527.81134848767
0.0444912263029562,1527.82134848767
0.0389620543616961,1527.83134848767
0.0351927859283796,1527.84134848767
0.0337630130879501,1527.85134848767
0.0357265795432603,1527.86134848767
0.0418163432189143,1527.87134848767
0.0527832002008337,1527.88134848767
0.0685714238554227,1527.89134848767
0.0891027022709712,1527.90134848767
0.112645864103184,1527.91134848767
0.137639264923051,1527.92134848767
0.162251149324679,1527.93134848767
0.18467750696195,1527.94134848767
0.204088761819321,1527.95134848767
0.220078191691144,1527.96134848767
0.232444049731408,1527.97134848767
0.24184112346658,1527.98134848767
0.248338912091184,1527.99134848767
0.252791023729669,1528.00134848767
0.255438850348108,1528.01134848767
0.256438600923516,1528.02134848767
0.256666323268412,1528.03134848767
0.256420777600098,1528.04134848767
0.256232248773167,1528.05134848767
0.255681896149657,1528.06134848767
0.255470820360906,1528.07134848767
0.256020992814165,1528.08134848767
0.256285389673508,1528.09134848767
0.255670991614145,1528.10134848767
0.253898460034633,1528.11134848767
0.251138645410867,1528.12134848767
0.247476073385949,1528.13134848767
0.243457571152005,1528.14134848767
0.239270968301849,1528.15134848767
0.234777370877295,1528.16134848767
0.23083809109903,1528.17134848767
0.227837572380837,1528.18134848767
0.226009982200341,1528.19134848767
0.225827069744112,1528.20134848767
0.225797961336937,1528.21134848767
0.227164568466591,1528.22134848767
0.228899645561373,1528.23134848767
0.230529397419815,1528.24134848767
0.23283060103185,1528.25134848767
0.235130839354781,1528.26134848767
0.23748277474892,1528.27134848767
0.239694919556334,1528.28134848767
0.241025895190709,1528.29134848767
0.241044171210283,1528.30134848767
0.240387204315562,1528.31134848767
0.238278867672403,1528.32134848767
0.236327266606621,1528.33134848767
0.233850575239546,1528.34134848767
0.231522505475306,1528.35134848767
0.228604019633442,1528.36134848767
0.225075567340272,1528.37134848767
0.221944386867502,1528.38134848767
0.218536530854117,1528.39134848767
0.214837969103681,1528.40134848767
0.211184973367038,1528.41134848767
0.207208989863231,1528.42134848767
0.202905153511717,1528.43134848767
0.198803006271615,1528.44134848767
0.194823043949977,1528.45134848767
0.191761872589951,1528.46134848767
0.188736649991122,1528.47134848767
0.186103781398712,1528.48134848767
0.182672137649358,1528.49134848767
0.178529668018165,1528.50134848767
0.174185972536363,1528.51134848767
0.16901279477851,1528.52134848767
0.163661564196676,1528.53134848767
0.157734703948168,1528.54134848767
0.151828296420952,1528.55134848767
0.146852371856846,1528.56134848767
0.142346493657216,1528.57134848767
0.137993327376259,1528.58134848767
0.133453637761215,1528.59134848767
0.128755289134523,1528.60134848767
0.123893143257873,1528.61134848767
0.118893859476168,1528.62134848767
0.114273934136531,1528.63134848767
0.109850366164682,1528.64134848767
0.105255676618554,1528.65134848767
0.100642134679369,1528.66134848767
0.0957354328282446,1528.67134848767
0.0912018929733913,1528.68134848767
0.087490008194024,1528.69134848767
0.0847904346064276,1528.70134848767
0.084286549878854,1528.71134848767
0.0852056973734693,1528.72134848767
0.0875236649842568,1528.73134848767
0.0918516284970293,1528.74134848767
0.0998849244694669,1528.75134848767
0.111863330064849,1528.76134848767
0.128562372211019,1528.77134848767
0.148726026948965,1528.78134848767
0.17110623738882,1528.79134848767
0.194750470470161,1528.80134848767
0.217280225344681,1528.81134848767
0.2377352053634,1528.82134848767
0.256079930817893,1528.83134848767
0.271056515796743,1528.84134848767
0.283108124186146,1528.85134848767
0.2922062945595,1528.86134848767
0.299168805476916,1528.87134848767
0.304019629769581,1528.88134848767
0.307578964525448,1528.89134848767
0.309539787517379,1528.90134848767
0.310592264010474,1528.91134848767
0.310764820482172,1528.92134848767
0.31096234895494,1528.93134848767
0.31086245379765,1528.94134848767
0.311138326893127,1528.95134848767
0.311295088449921,1528.96134848767
0.311081569402563,1528.97134848767
0.31044628231145,1528.98134848767
0.309089720121393,1528.99134848767
0.306642055520361,1529.00134848767
0.303483430491511,1529.01134848767
0.299628847789768,1529.02134848767
0.295853382137414,1529.03134848767
0.291862803527143,1529.04134848767
0.288051181399171,1529.05134848767
0.284814701483079,1529.06134848767
0.281861040994952,1529.07134848767
0.279519332298411,1529.08134848767
0.277652072665582,1529.09134848767
0.277246993053345,1529.10134848767
0.277444515413758,1529.11134848767
0.278712323412721,1529.12134848767
0.280391704694088,1529.13134848767
0.282845450666997,1529.14134848767
0.285189282943661,1529.15134848767
0.286686755528874,1529.16134848767
0.287737229569314,1529.17134848767
0.287861380293518,1529.18134848767
0.286866761551388,1529.19134848767
0.285454602231252,1529.20134848767
0.283301094191368,1529.21134848767
0.280539110095398,1529.22134848767
0.277505355486618,1529.23134848767
0.274235678660766,1529.24134848767
0.27045105427375,1529.25134848767
0.266588440658964,1529.26134848767
0.262606960774671,1529.27134848767
0.258873316522167,1529.28134848767
0.255583680088329,1529.29134848767
0.251577712652393,1529.30134848767
0.247287408741791,1529.31134848767
0.242494098172468,1529.32134848767
0.237642012088052,1529.33134848767
0.23282801229273,1529.34134848767
0.227947554870949,1529.35134848767
0.223619051276667,1529.36134848767
0.219130608001093,1529.37134848767
0.214822452213484,1529.38134848767
0.209922840412276,1529.39134848767
0.204993920163921,1529.40134848767
0.20052184363859,1529.41134848767
0.196049760468011,1529.42134848767
0.191067516728356,1529.43134848767
0.185933815876705,1529.44134848767
0.180872340815071,1529.45134848767
0.175708090795626,1529.46134848767
0.170388564191901,1529.47134848767
0.164975993017517,1529.48134848767
0.159783736355123,1529.49134848767
0.154306228408946,1529.50134848767
0.149084393537096,1529.51134848767
0.143888642236952,1529.52134848767
0.138582637542202,1529.53134848767
0.133014979988212,1529.54134848767
0.127427451282599,1529.55134848767
0.121482537428923,1529.56134848767
0.114896765130828,1529.57134848767
0.10844668210035,1529.58134848767
0.102495454701944,1529.59134848767
0.0964742764261453,1529.60134848767
0.0909007084132999,1529.61134848767
0.0853427617162695,1529.62134848767
0.0800576480318261,1529.63134848767
0.0748336009010159,1529.64134848767
0.0696819514460408,1529.65134848767
0.0658277006353976,1529.66134848767
0.0644452636220067,1529.67134848767
0.0663456529826771,1529.68134848767
0.0729095963567818,1529.69134848767
0.0847555205325421,1529.70134848767
0.102001924050076,1529.71134848767
0.122967032902984,1529.72134848767
0.146771644524636,1529.73134848767
0.171506475887636,1529.74134848767
0.19557982573172,1529.75134848767
0.21804611459622,1529.76134848767
0.237970063692061,1529.77134848767
0.254798855910545,1529.78134848767
0.268444133675203,1529.79134848767
0.27866509207404,1529.80134848767
0.286898754885775,1529.81134848767
0.29315469500532,1529.82134848767
0.296780140919332,1529.83134848767
0.299204086550752,1529.84134848767
0.300449260588729,1529.85134848767
0.300714289940852,1529.86134848767
0.30066590272025,1529.87134848767
0.300298618572739,1529.88134848767
0.299905316646778,1529.89134848767
0.299346119460772,1529.90134848767
0.298825590798715,1529.91134848767
0.297493261212046,1529.92134848767
0.295456957718731,1529.93134848767
0.292950111872316,1529.94134848767
0.289375047416483,1529.95134848767
0.285223055959105,1529.96134848767
0.280714315398604,1529.97134848767
0.276515050902568,1529.98134848767
0.272125614463333,1529.99134848767
0.268569481159488,1530.00134848767
0.265918914853017,1530.01134848767
0.264414938743787,1530.02134848767
0.263840914188513,1530.03134848767
0.264339226809607,1530.04134848767
0.265840411268926,1530.05134848767
0.268252686443118,1530.06134848767
0.271699163675677,1530.07134848767
0.275092816459071,1530.08134848767
0.277846375952625,1530.09134848767
0.279803696162925,1530.10134848767
0.28089760505621,1530.11134848767
0.281128444165747,1530.12134848767
0.280734206263337,1530.13134848767
0.27927500454167,1530.14134848767
0.276662378497271,1530.15134848767
0.273495768161487,1530.16134848767
0.270553806603945,1530.17134848767
0.267320826248998,1530.18134848767
0.264652324498235,1530.19134848767
0.261783669538077,1530.20134848767
0.259056622404689,1530.21134848767
0.255557646716533,1530.22134848767
0.251623633728032,1530.23134848767
0.247718868114351,1530.24134848767
0.243209791843692,1530.25134848767
0.23843463762658,1530.26134848767
0.233628726275421,1530.27134848767
0.228712751736058,1530.28134848767
0.223476460723968,1530.29134848767
0.218381655776279,1530.30134848767
0.213362435334726,1530.31134848767
0.20760380333567,1530.32134848767
0.202122757378893,1530.33134848767
0.196888654105289,1530.34134848767
0.192094132647875,1530.35134848767
0.187278887009144,1530.36134848767
0.182639702961145,1530.37134848767
0.177515736568161,1530.38134848767
0.171987021192738,1530.39134848767
0.166145817967874,1530.40134848767
0.1602512715543,1530.41134848767
0.154346313251187,1530.42134848767
0.14882342621546,1530.43134848767
0.143574103860778,1530.44134848767
0.138645724879287,1530.45134848767
0.133954631582492,1530.46134848767
0.129041893348799,1530.47134848767
0.123824292332339,1530.48134848767
0.118693633619403,1530.49134848767
0.113095668819672,1530.50134848767
0.107737204266186,1530.51134848767
0.101878380498499,1530.52134848767
0.0958848722520523,1530.53134848767
0.0894107536093646,1530.54134848767
0.0830153283702937,1530.55134848767
0.076339118633535,1530.56134848767
0.0695138260757212,1530.57134848767
0.062653553643099,1530.58134848767
0.0571123194149399,1530.59134848767
0.0529566134510644,1530.60134848767
0.0509800132559622,1530.61134848767
0.0530152487424313,1530.62134848767
0.0592204534343392,1530.63134848767
0.0709937538357453,1530.64134848767
0.0874606905175471,1530.65134848767
0.107924664391562,1530.66134848767
0.131616460726404,1530.67134848767
0.156443200805734,1530.68134848767
0.181183227846307,1530.69134848767
0.204172502132592,1530.70134848767
0.224276390476319,1530.71134848767
0.24168992692199,1530.72134848767
0.255177654299449,1530.73134848767
0.265281304125096,1530.74134848767
0.272351629782022,1530.75134848767
0.276745631753798,1530.76134848767
0.279260146926988,1530.77134848767
0.280520553948094,1530.78134848767
0.280442806861562,1530.79134848767
0.279670727679238,1530.80134848767
0.278748052748206,1530.81134848767
0.276827442008396,1530.82134848767
0.275127952218631,1530.83134848767
0.272876678964187,1530.84134848767
0.270092091592274,1530.85134848767
0.266943076500791,1530.86134848767
0.263579697292223,1530.87134848767
0.259509575460407,1530.88134848767
0.254750301664954,1530.89134848767
0.249371113168061,1530.90134848767
0.244142891397037,1530.91134848767
0.23794547489735,1530.92134848767
0.231692821847882,1530.93134848767
0.226238591361715,1530.94134848767
0.221384457186299,1530.95134848767
0.217712989419245,1530.96134848767
0.215482249939301,1530.97134848767
0.215115256692869,1530.98134848767
0.216563790111201,1530.99134848767
0.218633390037439,1531.00134848767
0.220812699662497,1531.01134848767
0.222241974177355,1531.02134848767
0.223510553917826,1531.03134848767
0.223748269481548,1531.04134848767
0.22348728823998,1531.05134848767
0.222637180323877,1531.06134848767
0.220957082946399,1531.07134848767
0.218789868457314,1531.08134848767
0.216515612380694,1531.09134848767
0.21315686248019,1531.10134848767
0.209569374794309,1531.11134848767
0.204860318254579,1531.12134848767
0.19962388683567,1531.13134848767
0.193900510372277,1531.14134848767
0.187872311511163,1531.15134848767
0.182327835345437,1531.16134848767
0.176803037338533,1531.17134848767
0.171516088359404,1531.18134848767
0.16622115894875,1531.19134848767
0.160910423500575,1531.20134848767
0.155931165106788,1531.21134848767
0.150972815384331,1531.22134848767
0.146257116602864,1531.23134848767
0.141085106649993,1531.24134848767
0.135949375177263,1531.25134848767
0.130183657070361,1531.26134848767
0.124779580144257,1531.27134848767
0.119451209126879,1531.28134848767
0.114219823691399,1531.29134848767
0.109315701700164,1531.30134848767
0.104073864134667,1531.31134848767
0.0985683223619701,1531.32134848767
0.0928107105737166,1531.33134848767
0.0868825993148827,1531.34134848767
0.0809994164072282,1531.35134848767
0.0749687925151019,1531.36134848767
0.0688377392921547,1531.37134848767
0.0625360691206634,1531.38134848767
0.0563733936132458,1531.39134848767
0.0498733780017541,1531.40134848767
0.0434169382262316,1531.41134848767
0.0365312387790455,1531.42134848767
0.0300668150186664,1531.43134848767
0.0235677499560023,1531.44134848767
0.0172319361583934,1531.45134848767
0.0112103467827183,1531.46134848767
0.00498751047800084,1531.47134848767
-0.000705432012890952,1531.48134848767
-0.00580591564646441,1531.49134848767
-0.00976590256633225,1531.50134848767
-0.0121141657680105,1531.51134848767
-0.0113610849599925,1531.52134848767
-0.00597059555548977,1531.53134848767
0.00481106067306861,1531.54134848767
0.0203959198966478,1531.55134848767
0.0406247540266394,1531.56134848767
0.0646874794145716,1531.57134848767
0.0906007464212454,1531.58134848767
0.116112609078964,1531.59134848767
0.140166076002723,1531.60134848767
0.161740866819344,1531.61134848767
0.179836969400407,1531.62134848767
0.194735720398581,1531.63134848767
0.205842686635536,1531.64134848767
0.214574093726466,1531.65134848767
0.220825876054196,1531.66134848767
0.224944126802692,1531.67134848767
0.227605995703648,1531.68134848767
0.228713243360784,1531.69134848767
0.228601902820731,1531.70134848767
0.228527800384575,1531.71134848767
0.228042474867468,1531.72134848767
0.227483080254758,1531.73134848767
0.226420062083692,1531.74134848767
0.225582278728691,1531.75134848767
0.224373403794851,1531.76134848767
0.222668787644542,1531.77134848767
0.220683599217268,1531.78134848767
0.216980910556415,1531.79134848767
0.212667459103592,1531.80134848767
0.20750513233938,1531.81134848767
0.202476738779704,1531.82134848767
0.197347134062111,1531.83134848767
0.192809651383192,1531.84134848767
0.18924951793977,1531.85134848767
0.186992654811748,1531.86134848767
0.185829201381492,1531.87134848767
0.187093014974517,1531.88134848767
0.18937277097071,1531.89134848767
0.192016099243983,1531.90134848767
0.195224778435817,1531.91134848767
0.19746388228021,1531.92134848767
0.198988382120791,1531.93134848767
0.200340459122819,1531.94134848767
0.201355946976466,1531.95134848767
0.201943566570402,1531.96134848767
0.201592865251106,1531.97134848767
0.200035088556802,1531.98134848767
0.197961121903318,1531.99134848767
0.195565699193801,1532.00134848767
0.192488109745276,1532.01134848767
0.189418122694904,1532.02134848767
0.185366802219406,1532.03134848767
0.181398832156662,1532.04134848767
0.178033753340562,1532.05134848767
0.174304033506829,1532.06134848767
0.170371560120502,1532.07134848767
0.166056011647565,1532.08134848767
0.161606437452427,1532.09134848767
0.156701124263759,1532.10134848767
0.151401432618884,1532.11134848767
0.145709198239613,1532.12134848767
0.139750211296426,1532.13134848767
0.133835917273093,1532.14134848767
0.127290103769299,1532.15134848767
0.121246909287027,1532.16134848767
0.114506058362517,1532.17134848767
0.10862327598888,1532.18134848767
0.102615737670498,1532.19134848767
0.0963148270469212,1532.20134848767
0.0903009928258089,1532.21134848767
0.0846673691323406,1532.22134848767
0.0789092648759864,1532.23134848767
0.0732086188265239,1532.24134848767
0.0674685472913812,1532.25134848767
0.0618118917898576,1532.26134848767
0.0561213761952312,1532.27134848767
0.050153541795248,1532.28134848767
0.0448415990122703,1532.29134848767
0.0391400017070256,1532.30134848767
0.0336292898586482,1532.31134848767
0.0284107845872546,1532.32134848767
0.0228513812622835,1532.33134848767
0.0166828687440694,1532.34134848767
0.0102239317644155,1532.35134848767
0.00375798068722414,1532.36134848767
-0.00294930167296294,1532.37134848767
-0.00919290493710897,1532.38134848767
-0.0152324636920338,1532.39134848767
-0.0210207519472346,1532.40134848767
-0.0267792634806235,1532.41134848767
-0.0324778718698142,1532.42134848767
-0.038102637494237,1532.43134848767
-0.0428570649133788,1532.44134848767
-0.0464156812815482,1532.45134848767
-0.0473463771575111,1532.46134848767
-0.0440572400886485,1532.47134848767
-0.0354727160542051,1532.48134848767
-0.0209038234810508,1532.49134848767
-0.00085544016809847,1532.50134848767
0.0243388249746744,1532.51134848767
0.0530358654398331,1532.52134848767
0.0834307410474296,1532.53134848767
0.113374072684614,1532.54134848767
0.141059745307774,1532.55134848767
0.165672522850877,1532.56134848767
0.186102937211125,1532.57134848767
0.202685814909638,1532.58134848767
0.215581631923623,1532.59134848767
0.22484295077847,1532.60134848767
0.232673679280986,1532.61134848767
0.238595935409889,1532.62134848767
0.242618703322961,1532.63134848767
0.246080137625035,1532.64134848767
0.248458443054874,1532.65134848767
0.250279289036486,1532.66134848767
0.252288977256628,1532.67134848767
0.253769404438467,1532.68134848767
0.254885770744327,1532.69134848767
0.255237780894474,1532.70134848767
0.255255796614062,1532.71134848767
0.254343241739748,1532.72134848767
0.252172558889472,1532.73134848767
0.249778595821161,1532.74134848767
0.246516950552059,1532.75134848767
0.243009612163445,1532.76134848767
0.239352426854023,1532.77134848767
0.2362581834062,1532.78134848767
0.23310965871252,1532.79134848767
0.23058311194071,1532.80134848767
0.229246806572313,1532.81134848767
0.228551152009313,1532.82134848767
0.229647499220796,1532.83134848767
0.231155595337672,1532.84134848767
0.234459707681915,1532.85134848767
0.238059061324848,1532.86134848767
0.241678361142425,1532.87134848767
0.245130775567393,1532.88134848767
0.248056541420605,1532.89134848767
0.250722028750407,1532.90134848767
0.252424026927787,1532.91134848767
0.252946657339048,1532.92134848767
0.253129054571384,1532.93134848767
0.252005728525171,1532.94134848767
0.250159322631033,1532.95134848767
0.247217894697251,1532.96134848767
0.243958857879458,1532.97134848767
0.23976212206069,1532.98134848767
0.235288942364738,1532.99134848767
0.230740298772433,1533.00134848767
0.226206990511027,1533.01134848767
0.221858840113025,1533.02134848767
0.21720128610908,1533.03134848767
0.212749750343434,1533.04134848767
0.207820978513173,1533.05134848767
0.202512788148329,1533.06134848767
0.196684325746686,1533.07134848767
0.190442837062702,1533.08134848767
0.184692206949603,1533.09134848767
0.178718638776993,1533.10134848767
0.172000919949899,1533.11134848767
0.165118906076761,1533.12134848767
0.157898525112347,1533.13134848767
0.150758934967421,1533.14134848767
0.144045234188352,1533.15134848767
0.137889464369219,1533.16134848767
0.131868106789145,1533.17134848767
0.125728451378465,1533.18134848767
0.118895522780359,1533.19134848767
0.112492922838672,1533.20134848767
0.105684254307181,1533.21134848767
0.0989779098390534,1533.22134848767
0.0923975236043588,1533.23134848767
0.085968149800578,1533.24134848767
0.0798280220196195,1533.25134848767
0.0739922546250012,1533.26134848767
0.068074272393755,1533.27134848767
0.0619093494665845,1533.28134848767
0.0553400252822087,1533.29134848767
0.0487830366235731,1533.30134848767
0.0422649647310856,1533.31134848767
0.0350549306986728,1533.32134848767
0.0279639794581642,1533.33134848767
0.0211153967834525,1533.34134848767
0.0137106687660509,1533.35134848767
0.00657053174247228,1533.36134848767
-0.000760600534499814,1533.37134848767
-0.00727972554684472,1533.38134848767
-0.0143255966234882,1533.39134848767
-0.0208575902508535,1533.40134848767
-0.0262615837271486,1533.41134848767
-0.0291960649622306,1533.42134848767
-0.0281760102113275,1533.43134848767
-0.0215873231801443,1533.44134848767
-0.00958313349913801,1533.45134848767
0.00794974893796465,1533.46134848767
0.0306387862405636,1533.47134848767
0.0565601035298768,1533.48134848767
0.0846450596797259,1533.49134848767
0.111999612943323,1533.50134848767
0.137659366213187,1533.51134848767
0.159880932357393,1533.52134848767
0.178342786256343,1533.53134848767
0.193424068960903,1533.54134848767
0.204876901520513,1533.55134848767
0.213360984526879,1533.56134848767
0.219693844523092,1533.57134848767
0.223969783013674,1533.58134848767
0.226792275042001,1533.59134848767
0.228622169447724,1533.60134848767
0.228876287379724,1533.61134848767
0.228502577646888,1533.62134848767
0.227779002409787,1533.63134848767
0.227161521499398,1533.64134848767
0.22598141276822,1533.65134848767
0.225143303351459,1533.66134848767
0.224030921915856,1533.67134848767
0.222399015531972,1533.68134848767
0.220291410039023,1533.69134848767
0.216725250432468,1533.70134848767
0.212536809359038,1533.71134848767
0.207771215397201,1533.72134848767
0.202933918700834,1533.73134848767
0.198034098382766,1533.74134848767
0.19373054891369,1533.75134848767
0.190016637359592,1533.76134848767
0.186989391980838,1533.77134848767
0.185834956502222,1533.78134848767
0.18587642654253,1533.79134848767
0.186806950170692,1533.80134848767
0.188365214000749,1533.81134848767
0.190216621066898,1533.82134848767
0.192238791966581,1533.83134848767
0.193560469356356,1533.84134848767
0.194563299265643,1533.85134848767
0.195623044072032,1533.86134848767
0.195928186158821,1533.87134848767
0.195687115072922,1533.88134848767
0.193965819919307,1533.89134848767
0.191174144417506,1533.90134848767
0.187076167445889,1533.91134848767
0.183099608837282,1533.92134848767
0.178124037235774,1533.93134848767
0.173069568530207,1533.94134848767
0.168146779992794,1533.95134848767
0.163007750377134,1533.96134848767
0.157848879348759,1533.97134848767
0.152974000113333,1533.98134848767
0.147973696151261,1533.99134848767
0.142773911619107,1534.00134848767
0.137684547059847,1534.01134848767
0.132088280787968,1534.02134848767
0.126263467960972,1534.03134848767
0.120625280990061,1534.04134848767
0.114351839136043,1534.05134848767
0.108850135758142,1534.06134848767
0.103160759895332,1534.07134848767
0.0970318397122506,1534.08134848767
0.0907327099746811,1534.09134848767
0.0839929874276601,1534.10134848767
0.0777519163536739,1534.11134848767
0.0714787597099213,1534.12134848767
0.0658038633772222,1534.13134848767
0.0609423704940569,1534.14134848767
0.0550425872332248,1534.15134848767
0.0491207535474014,1534.16134848767
0.0428156164362482,1534.17134848767
0.0363307698332422,1534.18134848767
0.0294757088727481,1534.19134848767
0.0221200490255946,1534.20134848767
0.0149380602254831,1534.21134848767
0.00823941811817743,1534.22134848767
0.00214829016936565,1534.23134848767
-0.00303410521471973,1534.24134848767
-0.00821788489632994,1534.25134848767
-0.0141395718598811,1534.26134848767
-0.0207255068753693,1534.27134848767
-0.028071116825266,1534.28134848767
-0.0355489445097167,1534.29134848767
-0.0430344199093686,1534.30134848767
-0.0501200036835967,1534.31134848767
-0.0575123372018107,1534.32134848767
-0.0644550577406617,1534.33134848767
-0.0712213191604572,1534.34134848767
-0.0775851751578837,1534.35134848767
-0.0829228288208573,1534.36134848767
-0.0861194136536757,1534.37134848767
-0.0863167337030456,1534.38134848767
-0.0818530293089328,1534.39134848767
-0.0720328070146794,1534.40134848767
-0.0566123556260711,1534.41134848767
-0.0363952342506565,1534.42134848767
-0.0130978088162291,1534.43134848767
0.0125020478472693,1534.44134848767
0.0382924424909399,1534.45134848767
0.0624426567956816,1534.46134848767
0.0847545876383713,1534.47134848767
0.103352701024747,1534.48134848767
0.11898469295409,1534.49134848767
0.131495356327329,1534.50134848767
0.140761924976086,1534.51134848767
0.147126766390056,1534.52134848767
0.151181243904376,1534.53134848767
0.153757473992267,1534.54134848767
0.154891531141539,1534.55134848767
0.155136678074016,1534.56134848767
0.154735527865204,1534.57134848767
0.153980663361784,1534.58134848767
0.152898081508291,1534.59134848767
0.15180467000911,1534.60134848767
0.15093695699889,1534.61134848767
0.149840518013516,1534.62134848767
0.147892112893326,1534.63134848767
0.145569296630753,1534.64134848767
0.142206771498371,1534.65134848767
0.137890125326456,1534.66134848767
0.133282714446319,1534.67134848767
0.128119113309657,1534.68134848767
0.123355283478592,1534.69134848767
0.11870114166251,1534.70134848767
0.114918683660254,1534.71134848767
0.112252164392869,1534.72134848767
0.110594930453542,1534.73134848767
0.109558056164559,1534.74134848767
0.109376547657139,1534.75134848767
0.109581181009946,1534.76134848767
0.110310203234189,1534.77134848767
0.111648275117422,1534.78134848767
0.112949294702238,1534.79134848767
0.114148383893915,1534.80134848767
0.11473917248631,1534.81134848767
0.114498791041703,1534.82134848767
0.113468127811997,1534.83134848767
0.111224840884084,1534.84134848767
0.108412202303179,1534.85134848767
0.105044935631678,1534.86134848767
0.101800824211977,1534.87134848767
0.0982418642805404,1534.88134848767
0.0944175765610966,1534.89134848767
0.0902902922091249,1534.90134848767
0.0856917036072288,1534.91134848767
0.0804146084498157,1534.92134848767
0.074589669656082,1534.93134848767
0.0692048145404802,1534.94134848767
0.0644441731073163,1534.95134848767
0.0600246159827388,1534.96134848767
0.0556428880123177,1534.97134848767
0.0507463264307478,1534.98134848767
0.0457476918562815,1534.99134848767
0.0405422864362697,1535.00134848767
0.0354263664773857,1535.01134848767
0.0308551564970677,1535.02134848767
0.0259115842288084,1535.03134848767
0.0205492200332263,1535.04134848767
0.014821900266311,1535.05134848767
0.00850616572102748,1535.06134848767
0.00188775186296347,1535.07134848767
-0.00439688934972949,1535.08134848767
-0.0111393426641793,1535.09134848767
-0.0171202591888165,1535.10134848767
-0.0234294822740223,1535.11134848767
-0.0299054196153395,1535.12134848767
-0.0358308625097469,1535.13134848767
-0.0411541084616973,1535.14134848767
-0.0461890923289944,1535.15134848767
-0.0515708162613485,1535.16134848767
-0.0568355494468705,1535.17134848767
-0.062155319622195,1535.18134848767
-0.0677617172014186,1535.19134848767
-0.0737837135467369,1535.20134848767
-0.0802570604407408,1535.21134848767
-0.0868582057967943,1535.22134848767
-0.0941529381503003,1535.23134848767
-0.10163035114436,1535.24134848767
-0.109036697233284,1535.25134848767
-0.115970322640349,1535.26134848767
-0.122606271663579,1535.27134848767
-0.129002778220635,1535.28134848767
-0.135074494111642,1535.29134848767
-0.141157336133533,1535.30134848767
-0.146315702828929,1535.31134848767
-0.150333702188689,1535.32134848767
-0.151446350862014,1535.33134848767
-0.148727759975465,1535.34134848767
-0.141643877608172,1535.35134848767
-0.128546501484304,1535.36134848767
-0.110415655573406,1535.37134848767
-0.0878660645011059,1535.38134848767
-0.0629917800290934,1535.39134848767
-0.0380981078728761,1535.40134848767
-0.0140363991628299,1535.41134848767
0.00737570100970908,1535.42134848767
0.0253650178682152,1535.43134848767
0.0400602978665421,1535.44134848767
0.0513989657192776,1535.45134848767
0.0596250668127183,1535.46134848767
0.0652314946064349,1535.47134848767
0.0686817502485388,1535.48134848767
0.0710300476673442,1535.49134848767
0.0721821749952364,1535.50134848767
0.072692473044836,1535.51134848767
0.0737769837048251,1535.52134848767
0.0736759309581655,1535.53134848767
0.0734566162251069,1535.54134848767
0.0726498774448413,1535.55134848767
0.0710218622539861,1535.56134848767
0.0687334887923619,1535.57134848767
0.0657494191253318,1535.58134848767
0.0619980645070229,1535.59134848767
0.0577567722206177,1535.60134848767
0.0527605899754425,1535.61134848767
0.0475016563325707,1535.62134848767
0.0422413577012628,1535.63134848767
0.0373232668854156,1535.64134848767
0.0330310331285185,1535.65134848767
0.0298008250580217,1535.66134848767
0.0273268625878461,1535.67134848767
0.0267084391673044,1535.68134848767
0.0270886321814258,1535.69134848767
0.0282188898071749,1535.70134848767
0.030002603877289,1535.71134848767
0.0322028664200977,1535.72134848767
0.0347499133991253,1535.73134848767
0.0364314758013142,1535.74134848767
0.0382697751270222,1535.75134848767
0.0393536401811134,1535.76134848767
0.0394603077749197,1535.77134848767
0.0390428363731656,1535.78134848767
0.037674929093389,1535.79134848767
0.0358072780281528,1535.80134848767
0.0336724472126129,1535.81134848767
0.0305854539046137,1535.82134848767
0.0271902577949826,1535.83134848767
0.0237302507656791,1535.84134848767
0.0201703130534917,1535.85134848767
0.016583846403048,1535.86134848767
0.0132327273863575,1535.87134848767
0.00999036093207449,1535.88134848767
0.0060648688745412,1535.89134848767
0.00183028436790786,1535.90134848767
-0.00251820554351758,1535.91134848767
-0.00791286075925961,1535.92134848767
-0.0135733508779931,1535.93134848767
-0.0196600138709522,1535.94134848767
-0.0250952331127596,1535.95134848767
-0.0305080969206391,1535.96134848767
-0.0356819487491916,1535.97134848767
-0.0408782402775187,1535.98134848767
-0.0455637781709846,1535.99134848767
-0.0506271612757576,1536.00134848767
-0.0554214096461058,1536.01134848767
-0.060137977774567,1536.02134848767
-0.0646028260635265,1536.03134848767
-0.0690103357095806,1536.04134848767
-0.0736135931353036,1536.05134848767
-0.0782406160951091,1536.06134848767
-0.0832023720574962,1536.07134848767
-0.0883782103683745,1536.08134848767
-0.0939850409810116,1536.09134848767
-0.0990729384968506,1536.10134848767
-0.104412351401301,1536.11134848767
-0.10953885634884,1536.12134848767
-0.114377254592692,1536.13134848767
-0.119394286335515,1536.14134848767
-0.124737185765016,1536.15134848767
-0.130359956130722,1536.16134848767
-0.135848994548195,1536.17134848767
-0.140924653818232,1536.18134848767
-0.145516710274726,1536.19134848767
-0.148625185613272,1536.20134848767
-0.149199593438096,1536.21134848767
-0.146403444851308,1536.22134848767
-0.138893037821964,1536.23134848767
-0.126402977341172,1536.24134848767
-0.109355250258179,1536.25134848767
-0.0883201740281683,1536.26134848767
-0.0646656881813419,1536.27134848767
-0.0400425167922928,1536.28134848767
-0.0160937340846501,1536.29134848767
0.00551488875022507,1536.30134848767
0.0239164287004775,1536.31134848767
0.0395138740876395,1536.32134848767
0.051800497076502,1536.33134848767
0.0619316889216755,1536.34134848767
0.0692430799122918,1536.35134848767
0.0743263313867322,1536.36134848767
0.0777078313039609,1536.37134848767
0.0798170233950595,1536.38134848767
0.08047363239151,1536.39134848767
0.0805094393137271,1536.40134848767
0.0802674415152547,1536.41134848767
0.0801983986035841,1536.42134848767
0.0801592290882458,1536.43134848767
0.0798685333115638,1536.44134848767
0.0795716600201015,1536.45134848767
0.0781462916439669,1536.46134848767
0.0758526077798518,1536.47134848767
0.0727179705775614,1536.48134848767
0.068930694151781,1536.49134848767
0.0649342571216124,1536.50134848767
0.0612521216449315,1536.51134848767
0.0577859444381049,1536.52134848767
0.0547468947847767,1536.53134848767
0.0521961451852008,1536.54134848767
0.0507406559872587,1536.55134848767
0.0498645068397475,1536.56134848767
0.0503888840497466,1536.57134848767
0.0520060229088616,1536.58134848767
0.0539752537921805,1536.59134848767
0.0567176203957199,1536.60134848767
0.0600766573569098,1536.61134848767
0.0630504476912755,1536.62134848767
0.0658065233901716,1536.63134848767
0.0672192305890742,1536.64134848767
0.0675205596092018,1536.65134848767
0.0668637918594613,1536.66134848767
0.0651211889171493,1536.67134848767
0.063081301803499,1536.68134848767
0.060139444337237,1536.69134848767
0.0572156358825749,1536.70134848767
0.0541495084710295,1536.71134848767
0.0505726566611796,1536.72134848767
0.0460770410013688,1536.73134848767
0.0413474604808963,1536.74134848767
0.0360769354504935,1536.75134848767
0.0307188571963042,1536.76134848767
0.0260348604561953,1536.77134848767
0.021057384672545,1536.78134848767
0.0158114753994742,1536.79134848767
0.0105236661859754,1536.80134848767
0.00519316252108142,1536.81134848767
-8.74273675308099e-05,1536.82134848767
-0.00489059004168631,1536.83134848767
-0.00974942174282686,1536.84134848767
-0.0148154659049357,1536.85134848767
-0.0196786496726386,1536.86134848767
-0.0242265500520197,1536.87134848767
-0.0295535617066013,1536.88134848767
-0.0351559600173482,1536.89134848767
-0.0410673255102857,1536.90134848767
-0.0472137842243652,1536.91134848767
-0.0528442709360126,1536.92134848767
-0.0579499799416591,1536.93134848767
-0.0630744197645576,1536.94134848767
-0.068444404317685,1536.95134848767
-0.0742259505796317,1536.96134848767
-0.0808272143035483,1536.97134848767
-0.087057562258384,1536.98134848767
-0.0931527685705536,1536.99134848767
-0.0993747800184239,1537.00134848767
-0.105741239071969,1537.01134848767
-0.112019150765618,1537.02134848767
-0.118762278202674,1537.03134848767
-0.124903503913714,1537.04134848767
-0.130719701960665,1537.05134848767
-0.136192918588007,1537.06134848767
-0.14037597159363,1537.07134848767
-0.142947512630852,1537.08134848767
-0.141933631558313,1537.09134848767
-0.13568154832002,1537.10134848767
-0.124481963861531,1537.11134848767
-0.107839970676501,1537.12134848767
-0.0864461957392766,1537.13134848767
-0.0615602301960797,1537.14134848767
-0.035341767851757,1537.15134848767
-0.0093210236706878,1537.16134848767
0.0150622002051098,1537.17134848767
0.0367608246744445,1537.18134848767
0.0550706975658466,1537.19134848767
0.0698638871461561,1537.20134848767
0.0812274710238687,1537.21134848767
0.0897912458709246,1537.22134848767
0.0954517152858768,1537.23134848767
0.0992353887299622,1537.24134848767
0.101055951658518,1537.25134848767
0.10168185613601,1537.26134848767
0.102016983250348,1537.27134848767
0.102556360493937,1537.28134848767
0.102638800765221,1537.29134848767
0.102807271670623,1537.30134848767
0.103538237110737,1537.31134848767
0.104162902236314,1537.32134848767
0.103941522662874,1537.33134848767
0.102890076065309,1537.34134848767
0.101172588404601,1537.35134848767
0.0985239775097121,1537.36134848767
0.0948670046587099,1537.37134848767
0.0907465717643673,1537.38134848767
0.0864677563969981,1537.39134848767
0.0831352793485295,1537.40134848767
0.0806660396956718,1537.41134848767
0.079554979377936,1537.42134848767
0.0789580057075078,1537.43134848767
0.0789475492519836,1537.44134848767
0.0791083143609671,1537.45134848767
0.0797545252854655,1537.46134848767
0.0809014305118722,1537.47134848767
0.0830642747571846,1537.48134848767
0.0855848865771214,1537.49134848767
0.0881557133748056,1537.50134848767
0.0897336583284531,1537.51134848767
0.0900545607782781,1537.52134848767
0.0892888869526235,1537.53134848767
0.0876665868829607,1537.54134848767
0.0857046394620491,1537.55134848767
0.0835337899839125,1537.56134848767
0.0810502021921147,1537.57134848767
0.0780160402646901,1537.58134848767
0.0743196352676805,1537.59134848767
0.0705695673248817,1537.60134848767
0.0668734992819707,1537.61134848767
0.0632967205297195,1537.62134848767
0.0595617554903821,1537.63134848767
0.0554683375766018,1537.64134848767
0.0505247370882339,1537.65134848767
0.0447350136434963,1537.66134848767
0.0380627045820255,1537.67134848767
0.0311865937489049,1537.68134848767
0.0241842753322899,1537.69134848767
0.0171238240360706,1537.70134848767
0.011045157796117,1537.71134848767
0.00537195961383398,1537.72134848767
-0.000314229742185846,1537.73134848767
-0.00520093702324152,1537.74134848767
-0.0106948057126169,1537.75134848767
-0.0160766461684676,1537.76134848767
-0.0215245572123434,1537.77134848767
-0.0266617906312197,1537.78134848767
-0.031348158887077,1537.79134848767
-0.0362241240436748,1537.80134848767
-0.0403394444447777,1537.81134848767
-0.0444919785174226,1537.82134848767
-0.049562962299558,1537.83134848767
-0.0546820829858405,1537.84134848767
-0.0601245676351137,1537.85134848767
-0.0659256531520626,1537.86134848767
-0.072205056920714,1537.87134848767
-0.0782782936253362,1537.88134848767
-0.0847938392519023,1537.89134848767
-0.0910297818180227,1537.90134848767
-0.0962914027073531,1537.91134848767
-0.10002380311661,1537.92134848767
-0.101955844151904,1537.93134848767
-0.100631834961495,1537.94134848767
-0.0946452120718308,1537.95134848767
-0.0832385782242758,1537.96134848767
-0.0663169619803527,1537.97134848767
-0.0453788362707736,1537.98134848767
-0.0216243100477981,1537.99134848767
0.002996502367133,1538.00134848767
0.0261394412087611,1538.01134848767
0.0468596024528014,1538.02134848767
0.0643056020464681,1538.03134848767
0.0779863211957856,1538.04134848767
0.0882507459615423,1538.05134848767
0.0955141047056789,1538.06134848767
0.100326736560791,1538.07134848767
0.103890050566274,1538.08134848767
0.106345161650244,1538.09134848767
0.108245840047489,1538.10134848767
0.109069463953551,1538.11134848767
0.109314684456231,1538.12134848767
0.109767086184721,1538.13134848767
0.110071980681851,1538.14134848767
0.110874117310156,1538.15134848767
0.111347759588359,1538.16134848767
0.111532516936985,1538.17134848767
0.110809722183229,1538.18134848767
0.109312181599447,1538.19134848767
0.107533723596304,1538.20134848767
0.104912385629366,1538.21134848767
0.101909114555335,1538.22134848767
0.0989331058964519,1538.23134848767
0.0957204267798733,1538.24134848767
0.0930419434924526,1538.25134848767
0.0904631671815719,1538.26134848767
0.0888398260140276,1538.27134848767
0.0876557902170587,1538.28134848767
0.0875699822303875,1538.29134848767
0.0881170845310046,1538.30134848767
0.0888328218342961,1538.31134848767
0.0891836970151016,1538.32134848767
0.0898110489945916,1538.33134848767
0.0902932092770115,1538.34134848767
0.0906060125580981,1538.35134848767
0.0904606712473844,1538.36134848767
0.0892466265298229,1538.37134848767
0.0872654100980669,1538.38134848767
0.0851350011883375,1538.39134848767
0.0826815812032118,1538.40134848767
0.0798192516181159,1538.41134848767
0.0760393088167079,1538.42134848767
0.071549316527202,1538.43134848767
0.0666936637518344,1538.44134848767
0.0615656254556265,1538.45134848767
0.0565188745429192,1538.46134848767
0.0515794661654365,1538.47134848767
0.0463529911024669,1538.48134848767
0.0413944408061041,1538.49134848767
0.0363347180996116,1538.50134848767
0.031385498017031,1538.51134848767
0.0264022158103675,1538.52134848767
0.021586244226277,1538.53134848767
0.0165232627326889,1538.54134848767
0.0106529958270987,1538.55134848767
0.00497047394901595,1538.56134848767
-0.000557057297381387,1538.57134848767
-0.00632016851003424,1538.58134848767
-0.0121867258706119,1538.59134848767
-0.0175594792342275,1538.60134848767
-0.0230728659234715,1538.61134848767
-0.0282976195756903,1538.62134848767
-0.0330458335008131,1538.63134848767
-0.0381825448409069,1538.64134848767
-0.0436483722589774,1538.65134848767
-0.0495719581179391,1538.66134848767
-0.0562315258215525,1538.67134848767
-0.0630481378481707,1538.68134848767
-0.0692361985306467,1538.69134848767
-0.0746289565632639,1538.70134848767
-0.0785755501744771,1538.71134848767
-0.0806274770640938,1538.72134848767
-0.0783270938885987,1538.73134848767
-0.0718554570129414,1538.74134848767
-0.0603915573293481,1538.75134848767
-0.0441714875109899,1538.76134848767
-0.0241906043823841,1538.77134848767
-0.00241942148928703,1538.78134848767
0.0196883517552783,1538.79134848767
0.0407753646051626,1538.80134848767
0.0589776206124161,1538.81134848767
0.0748375928550633,1538.82134848767
0.0868068613139509,1538.83134848767
0.0957654158901436,1538.84134848767
0.10268792457774,1538.85134848767
0.106889103813399,1538.86134848767
0.109336148001649,1538.87134848767
0.110032334581221,1538.88134848767
0.109955603397783,1538.89134848767
0.109466731633116,1538.90134848767
0.108727691585543,1538.91134848767
0.108736954081607,1538.92134848767
0.1091153913852,1538.93134848767
0.109455021505581,1538.94134848767
0.109605125987437,1538.95134848767
0.108938533998672,1538.96134848767
0.106966593766948,1538.97134848767
0.10388064311752,1538.98134848767
0.0998954888454147,1538.99134848767
0.0949230456640258,1539.00134848767
0.0898071516934303,1539.01134848767
0.0850386020808821,1539.02134848767
0.0806372731129516,1539.03134848767
0.0767087946795361,1539.04134848767
0.0734123209279438,1539.05134848767
0.0704775543888535,1539.06134848767
0.0685680663231996,1539.07134848767
0.0672393569343603,1539.08134848767
0.066839842131529,1539.09134848767
0.0673080160589483,1539.10134848767
0.068208450415942,1539.11134848767
0.0689789768620336,1539.12134848767
0.0695058604923151,1539.13134848767
0.0698623504670101,1539.14134848767
0.0692475229159787,1539.15134848767
0.0676825476006789,1539.16134848767
0.0660036821454219,1539.17134848767
0.0631510769372873,1539.18134848767
0.0597257941075872,1539.19134848767
0.0552993446764009,1539.20134848767
0.050631094843261,1539.21134848767
0.0456901111687664,1539.22134848767
0.0404087827795568,1539.23134848767
0.0352865993387327,1539.24134848767
0.03017350411669,1539.25134848767
0.0252890444592649,1539.26134848767
0.0204247975811766,1539.27134848767
0.0154604244853597,1539.28134848767
0.0105637141909757,1539.29134848767
0.00627559824119253,1539.30134848767
0.00191281630328997,1539.31134848767
-0.00272559283470441,1539.32134848767
-0.00792262783535716,1539.33134848767
-0.0138934523119318,1539.34134848767
-0.0199967038335703,1539.35134848767
-0.0260472783377668,1539.36134848767
-0.0324272742262385,1539.37134848767
-0.0388352611109838,1539.38134848767
-0.044990066539042,1539.39134848767
-0.0508068725605366,1539.40134848767
-0.0570396221624772,1539.41134848767
-0.0634439480056226,1539.42134848767
-0.0697852561875947,1539.43134848767
-0.0749902210190275,1539.44134848767
-0.0781750063788029,1539.45134848767
-0.0780132203281464,1539.46134848767
-0.0736568532345887,1539.47134848767
-0.0650836124160092,1539.48134848767
-0.0525038222859321,1539.49134848767
-0.0364967114078219,1539.50134848767
-0.0185842633464731,1539.51134848767
-0.000139540989893405,1539.52134848767
0.0179042179856628,1539.53134848767
0.0345280905233997,1539.54134848767
0.0490540808224406,1539.55134848767
0.0608549534350122,1539.56134848767
0.0696538803388272,1539.57134848767
0.0758612774529585,1539.58134848767
0.0795096664421979,1539.59134848767
0.0809557512475461,1539.60134848767
0.0811777207229564,1539.61134848767
0.0802630393844004,1539.62134848767
0.0789501500286176,1539.63134848767
0.0766831712008733,1539.64134848767
0.0752011298556076,1539.65134848767
0.0734354294895189,1539.66134848767
0.0721311798133878,1539.67134848767
0.0711803550337652,1539.68134848767
0.0698416061936947,1539.69134848767
0.0683710068208666,1539.70134848767
0.065758441540785,1539.71134848767
0.0619805112402141,1539.72134848767
0.0573804534065713,1539.73134848767
0.0526465315461834,1539.74134848767
0.0477655756208731,1539.75134848767
0.0431283718032424,1539.76134848767
0.0388758487683244,1539.77134848767
0.035117723907485,1539.78134848767
0.0317761506342087,1539.79134848767
0.0297199239266831,1539.80134848767
0.0283744738103802,1539.81134848767
0.0281952247463413,1539.82134848767
0.0282264475467539,1539.83134848767
0.0283946199404466,1539.84134848767
0.028772907805773,1539.85134848767
0.0284434406515882,1539.86134848767
0.0279622748279761,1539.87134848767
0.0263460168349457,1539.88134848767
0.0243729968812997,1539.89134848767
0.0212217270241201,1539.90134848767
0.0171860505079775,1539.91134848767
0.0129088171191311,1539.92134848767
0.00857038726311094,1539.93134848767
0.00411667509473511,1539.94134848767
-0.000693478411878445,1539.95134848767
-0.00580533610000539,1539.96134848767
-0.0113857594663035,1539.97134848767
-0.016820386423173,1539.98134848767
-0.0222580487044827,1539.99134848767
-0.0275031669529114,1540.00134848767
-0.0326714662582319,1540.01134848767
-0.0378677308003993,1540.02134848767
-0.0435025828707946,1540.03134848767
-0.049350820553776,1540.04134848767
-0.0552182821642901,1540.05134848767
-0.060830421764398,1540.06134848767
-0.066422662706312,1540.07134848767
-0.0711071277775309,1540.08134848767
-0.0762969700535852,1540.09134848767
-0.0819292662016426,1540.10134848767
-0.0879524289988479,1540.11134848767
-0.0948100851322127,1540.12134848767
-0.101675310009785,1540.13134848767
-0.109008834842141,1540.14134848767
-0.116364253407447,1540.15134848767
-0.122830391697904,1540.16134848767
-0.129469390508107,1540.17134848767
-0.136124142038895,1540.18134848767
-0.142645852602583,1540.19134848767
-0.148004053960519,1540.20134848767
-0.151917083201517,1540.21134848767
-0.152748796588693,1540.22134848767
-0.14937604317232,1540.23134848767
-0.141434485594228,1540.24134848767
-0.128654664915243,1540.25134848767
-0.112563088934482,1540.26134848767
-0.0940702247740921,1540.27134848767
-0.0741610298362993,1540.28134848767
-0.0551724963441957,1540.29134848767
-0.0379126085574833,1540.30134848767
-0.0236005883988112,1540.31134848767
-0.0124308143638287,1540.32134848767
-0.00479685507675879,1540.33134848767
-0.000344860688953896,1540.34134848767
0.00210090630680204,1540.35134848767
0.00225913274157862,1540.36134848767
0.00133867729540038,1540.37134848767
-0.000347450415906266,1540.38134848767
-0.00251691025998168,1540.39134848767
-0.00508386199162466,1540.40134848767
-0.00788838445091648,1540.41134848767
-0.0103522473998731,1540.42134848767
-0.0127298597894496,1540.43134848767
-0.014695625161885,1540.44134848767
-0.0174898804209021,1540.45134848767
-0.0203042896600497,1540.46134848767
-0.0240982774823792,1540.47134848767
-0.0282018765161119,1540.48134848767
-0.0328238575216589,1540.49134848767
-0.0378522991759717,1540.50134848767
-0.0425503395857121,1540.51134848767
-0.0463857718229274,1540.52134848767
-0.0498998991944127,1540.53134848767
-0.0528126074381789,1540.54134848767
-0.0543912581922276,1540.55134848767
-0.0555245212592424,1540.56134848767
-0.0557955202234015,1540.57134848767
-0.0552903927366082,1540.58134848767
-0.0547005132285556,1540.59134848767
-0.0540641050033224,1540.60134848767
-0.0539302394996675,1540.61134848767
-0.0548034969149658,1540.62134848767
-0.056085273785333,1540.63134848767
-0.0579886369891144,1540.64134848767
-0.0606449914766451,1540.65134848767
-0.0640041592889195,1540.66134848767
-0.067408311868139,1540.67134848767
-0.0715799959734396,1540.68134848767
-0.0751896031384551,1540.69134848767
-0.0794435011526229,1540.70134848767
-0.0836796914453201,1540.71134848767
-0.0873271125232129,1540.72134848767
-0.0911652327478416,1540.73134848767
-0.0953742931502952,1540.74134848767
-0.0996662527748055,1540.75134848767
-0.104114197027435,1540.76134848767
-0.1089048580821,1540.77134848767
-0.114119498803516,1540.78134848767
-0.11934715757325,1540.79134848767
-0.124873286440842,1540.80134848767
-0.130067339922446,1540.81134848767
-0.134804121713117,1540.82134848767
-0.139460577899336,1540.83134848767
-0.14395672013224,1540.84134848767
-0.149050257481258,1540.85134848767
-0.153909870849647,1540.86134848767
-0.15868275917815,1540.87134848767
-0.163660164075373,1540.88134848767
-0.168299220443748,1540.89134848767
-0.173453132339349,1540.90134848767
-0.17819526394788,1540.91134848767
-0.183664444494852,1540.92134848767
-0.189701624758059,1540.93134848767
-0.196049651751464,1540.94134848767
-0.203221518403839,1540.95134848767
-0.209887982556879,1540.96134848767
-0.215927855763085,1540.97134848767
-0.22075443741434,1540.98134848767
-0.223277398987508,1540.99134848767
-0.223412032330678,1541.00134848767
-0.220003960917175,1541.01134848767
-0.212282559869544,1541.02134848767
-0.200468756718065,1541.03134848767
-0.184992212067329,1541.04134848767
-0.167601627321115,1541.05134848767
-0.148831482930538,1541.06134848767
-0.130498481925513,1541.07134848767
-0.113052714653511,1541.08134848767
-0.0986412753706077,1541.09134848767
-0.0872352395394838,1541.10134848767
-0.0789280381724407,1541.11134848767
-0.0736453990827922,1541.12134848767
-0.0702301010533838,1541.13134848767
-0.0688944571986253,1541.14134848767
-0.0690017823114457,1541.15134848767
-0.0708315326806798,1541.16134848767
-0.073462296899443,1541.17134848767
-0.0766379619923454,1541.18134848767
-0.079853380453871,1541.19134848767
-0.0828622169616696,1541.20134848767
-0.0859727725396456,1541.21134848767
-0.0884846066723066,1541.22134848767
-0.091327245989846,1541.23134848767
-0.0943265902829,1541.24134848767
-0.0978158326215822,1541.25134848767
-0.101612907816078,1541.26134848767
-0.105291735322026,1541.27134848767
-0.109158994970657,1541.28134848767
-0.112445727803325,1541.29134848767
-0.115416586198977,1541.30134848767
-0.117935463246705,1541.31134848767
-0.11968132364224,1541.32134848767
-0.12084073370543,1541.33134848767
-0.120226947766703,1541.34134848767
-0.119680964707262,1541.35134848767
-0.118381393428518,1541.36134848767
-0.116632241374476,1541.37134848767
-0.115169800925049,1541.38134848767
-0.113714027019469,1541.39134848767
-0.112850131940532,1541.40134848767
-0.112680764731481,1541.41134848767
-0.11287847425479,1541.42134848767
-0.113838340158192,1541.43134848767
-0.115106741094178,1541.44134848767
-0.116357128866918,1541.45134848767
-0.118144393421763,1541.46134848767
-0.120517930256015,1541.47134848767
-0.123353672964041,1541.48134848767
-0.127387620348665,1541.49134848767
-0.131685918155848,1541.50134848767
-0.136088828153457,1541.51134848767
-0.140223074345445,1541.52134848767
-0.143893622477494,1541.53134848767
-0.147279119788538,1541.54134848767
-0.149729656304715,1541.55134848767
-0.151501000247729,1541.56134848767
-0.152986976596039,1541.57134848767
-0.155488789085991,1541.58134848767
-0.159524779022059,1541.59134848767
-0.165342799469656,1541.60134848767
-0.172199630188536,1541.61134848767
-0.18032236250688,1541.62134848767
-0.188663558070156,1541.63134848767
-0.197275700047127,1541.64134848767
-0.205453490796182,1541.65134848767
-0.21308340921203,1541.66134848767
-0.220655081173412,1541.67134848767
-0.227652414255185,1541.68134848767
-0.23389622509404,1541.69134848767
-0.23945148303354,1541.70134848767
-0.24477175462533,1541.71134848767
-0.249769692298988,1541.72134848767
-0.25475339215485,1541.73134848767
-0.259503952396527,1541.74134848767
-0.263990145998879,1541.75134848767
-0.26833018215014,1541.76134848767
-0.273635934821948,1541.77134848767
-0.278831116599062,1541.78134848767
-0.284218662954279,1541.79134848767
-0.289146328502724,1541.80134848767
-0.293593188781472,1541.81134848767
-0.295467900111598,1541.82134848767
-0.294260448923158,1541.83134848767
-0.288869647490508,1541.84134848767
-0.278296284363155,1541.85134848767
-0.26317453316579,1541.86134848767
-0.244479525127371,1541.87134848767
-0.223244924207672,1541.88134848767
-0.201610151770683,1541.89134848767
-0.180991219013255,1541.90134848767
-0.162092061520457,1541.91134848767
-0.146173513148674,1541.92134848767
-0.13339830391697,1541.93134848767
-0.123929447525154,1541.94134848767
-0.116433698603161,1541.95134848767
-0.111066202931454,1541.96134848767
-0.107131934647763,1541.97134848767
-0.104587693778518,1541.98134848767
-0.103250514738914,1541.99134848767
-0.102679975803297,1542.00134848767
-0.102758117916758,1542.01134848767
-0.102623497024918,1542.02134848767
-0.102284243162586,1542.03134848767
-0.10124189598638,1542.04134848767
-0.100063523563116,1542.05134848767
-0.0987717181339832,1542.06134848767
-0.0979417530593092,1542.07134848767
-0.0974269043078727,1542.08134848767
-0.0976456057770774,1542.09134848767
-0.0985874703917879,1542.10134848767
-0.0999974523996373,1542.11134848767
-0.102163473524799,1542.12134848767
-0.104137663742146,1542.13134848767
-0.105590468070171,1542.14134848767
-0.106512473027649,1542.15134848767
-0.107851871332977,1542.16134848767
-0.107491721815089,1542.17134848767
-0.106815837697402,1542.18134848767
-0.105423025224175,1542.19134848767
-0.103794933122857,1542.20134848767
-0.101803155767992,1542.21134848767
-0.0993164176269057,1542.22134848767
-0.0966186539655587,1542.23134848767
-0.0941241703023303,1542.24134848767
-0.092477551869028,1542.25134848767
-0.0915824901115681,1542.26134848767
-0.0915703984632492,1542.27134848767
-0.09191201379942,1542.28134848767
-0.0930649127226799,1542.29134848767
-0.0943080817134051,1542.30134848767
-0.0960058312797295,1542.31134848767
-0.0980489645592618,1542.32134848767
-0.100610445803881,1542.33134848767
-0.103223731042033,1542.34134848767
-0.106304768932558,1542.35134848767
-0.110066242434446,1542.36134848767
-0.11369740740041,1542.37134848767
-0.11721772888023,1542.38134848767
-0.120760100011622,1542.39134848767
-0.123689921253555,1542.40134848767
-0.126563713055316,1542.41134848767
-0.130220939648273,1542.42134848767
-0.13419401592842,1542.43134848767
-0.138221741520128,1542.44134848767
-0.142316676499618,1542.45134848767
-0.146570982314396,1542.46134848767
-0.150863794215058,1542.47134848767
-0.154646283004782,1542.48134848767
-0.159010314528256,1542.49134848767
-0.163478285483867,1542.50134848767
-0.167715195751318,1542.51134848767
-0.171769534929252,1542.52134848767
-0.175206262956559,1542.53134848767
-0.178839624438503,1542.54134848767
-0.182548447567708,1542.55134848767
-0.186852901735628,1542.56134848767
-0.191363428580126,1542.57134848767
-0.195474029181722,1542.58134848767
-0.199860761171896,1542.59134848767
-0.203915015786426,1542.60134848767
-0.208356488356937,1542.61134848767
-0.213045004243773,1542.62134848767
-0.217895777944755,1542.63134848767
-0.222834727016471,1542.64134848767
-0.227410034889607,1542.65134848767
-0.232435719415184,1542.66134848767
-0.235763617887297,1542.67134848767
-0.237086284250702,1542.68134848767
-0.234821478447742,1542.69134848767
-0.227858671710316,1542.70134848767
-0.216468451933073,1542.71134848767
-0.200372300719342,1542.72134848767
-0.180269604897288,1542.73134848767
-0.157995375532741,1542.74134848767
-0.135234580398727,1542.75134848767
-0.113536188172629,1542.76134848767
-0.0940503216571761,1542.77134848767
-0.0775682325752278,1542.78134848767
-0.0637405963774751,1542.79134848767
-0.0526521280833367,1542.80134848767
-0.0442123811396654,1542.81134848767
-0.0377870869096742,1542.82134848767
-0.0329642107217445,1542.83134848767
-0.0293734038810173,1542.84134848767
-0.026586546223627,1542.85134848767
-0.0241975276691409,1542.86134848767
-0.0218312550104149,1542.87134848767
-0.0197628961426845,1542.88134848767
-0.0177297594016244,1542.89134848767
-0.0159109098679857,1542.90134848767
-0.0139955581005137,1542.91134848767
-0.0125166048368997,1542.92134848767
-0.0117868840439177,1542.93134848767
-0.0118225723247387,1542.94134848767
-0.0129993200174735,1542.95134848767
-0.0151280715150647,1542.96134848767
-0.0174830309877182,1542.97134848767
-0.0202744375758051,1542.98134848767
-0.0225457032056712,1542.99134848767
-0.0234084812358361,1543.00134848767
-0.0238605141197828,1543.01134848767
-0.0231470528912007,1543.02134848767
-0.0217983036504709,1543.03134848767
-0.0201033279246766,1543.04134848767
-0.0179763011039949,1543.05134848767
-0.0162169253623237,1543.06134848767
-0.0147552318553953,1543.07134848767
-0.0130156914060329,1543.08134848767
-0.0111580430825816,1543.09134848767
-0.00855920799064376,1543.10134848767
-0.00635014822877185,1543.11134848767
-0.00462959864287959,1543.12134848767
-0.00374785722995712,1543.13134848767
-0.00397528192811627,1543.14134848767
-0.0049496907314829,1543.15134848767
-0.00671189070168964,1543.16134848767
-0.00960384536836369,1543.17134848767
-0.0128728162828933,1543.18134848767
-0.0162324758027377,1543.19134848767
-0.0193001496132073,1543.20134848767
-0.0221776826511352,1543.21134848767
-0.024680441213244,1543.22134848767
-0.0274899097472345,1543.23134848767
-0.0305331660801476,1543.24134848767
-0.0340830536624841,1543.25134848767
-0.0378256118292355,1543.26134848767
-0.0422147027600912,1543.27134848767
-0.0467510249418289,1543.28134848767
-0.0508727124204173,1543.29134848767
-0.0548872210130528,1543.30134848767
-0.0587489935445082,1543.31134848767
-0.0625929941150952,1543.32134848767
-0.0669073240934556,1543.33134848767
-0.070832251887943,1543.34134848767
-0.0752906429590521,1543.35134848767
-0.0800603436597525,1543.36134848767
-0.084626382257013,1543.37134848767
-0.0891652931550346,1543.38134848767
-0.094044440405176,1543.39134848767
-0.0992811788359908,1543.40134848767
-0.104353283972329,1543.41134848767
-0.109374888628565,1543.42134848767
-0.114359352355312,1543.43134848767
-0.118977808064234,1543.44134848767
-0.123686625963865,1543.45134848767
-0.128376033490126,1543.46134848767
-0.132830980782288,1543.47134848767
-0.137827303329317,1543.48134848767
-0.14251585606846,1543.49134848767
-0.147275074013363,1543.50134848767
-0.152380933964886,1543.51134848767
-0.157751359692588,1543.52134848767
-0.16339171608,1543.53134848767
-0.169994673019488,1543.54134848767
-0.176586684249683,1543.55134848767
-0.182813549705261,1543.56134848767
-0.188063968680301,1543.57134848767
-0.191270523178369,1543.58134848767
-0.191686867805338,1543.59134848767
-0.188151054172805,1543.60134848767
-0.180491156935247,1543.61134848767
-0.167174026409427,1543.62134848767
-0.150109591215972,1543.63134848767
-0.129658441812049,1543.64134848767
-0.107282152713421,1543.65134848767
-0.0844245199478164,1543.66134848767
-0.0628766207024047,1543.67134848767
-0.0437545009647926,1543.68134848767
-0.0273542495210144,1543.69134848767
-0.0146687578035916,1543.70134848767
-0.00458756545030762,1543.71134848767
0.00185222492319683,1543.72134848767
0.00575384799907236,1543.73134848767
0.00809961418983354,1543.74134848767
0.008821053676458,1543.75134848767
0.00875396571573307,1543.76134848767
0.00785768702093682,1543.77134848767
0.00702552705659446,1543.78134848767
0.00567789621127429,1543.79134848767
0.00459071922815269,1543.80134848767
0.00402781489733905,1543.81134848767
0.00327652096792123,1543.82134848767
0.00247330465608086,1543.83134848767
0.00114946644577874,1543.84134848767
-0.000875187189446927,1543.85134848767
-0.00329684169336451,1543.86134848767
-0.00648715026412773,1543.87134848767
-0.0091583337846673,1543.88134848767
-0.0126049703434833,1543.89134848767
-0.0157868638218403,1543.90134848767
-0.0182273391058095,1543.91134848767
-0.0196588187887531,1543.92134848767
-0.0204210225573204,1543.93134848767
-0.0197533958950396,1543.94134848767
-0.0184727831924603,1543.95134848767
-0.0162725437287233,1543.96134848767
-0.0133665858493788,1543.97134848767
-0.0102498002945872,1543.98134848767
-0.00759370601590975,1543.99134848767
