PPG,time
912.312753297118,3170.01967373249
1811.60408017772,3170.02967373249
1621.19436176374,3170.03967373249
1784.94544642981,3170.04967373249
1781.43881149965,3170.05967373249
1917.89090195676,3170.06967373249
1994.05755259176,3170.07967373249
2132.64598640349,3170.08967373249
2247.18187437127,3170.09967373249
2387.05643790672,3170.10967373249
2530.08503351446,3170.11967373249
2646.73593345029,3170.12967373249
2751.49104908703,3170.13967373249
2841.34982767555,3170.14967373249
2916.90691974466,3170.15967373249
2975.96110108009,3170.16967373249
3021.45760325378,3170.17967373249
3053.32673743152,3170.18967373249
3070.53059413224,3170.19967373249
3076.56384750213,3170.20967373249
3071.46026259259,3170.21967373249
3056.62232377112,3170.22967373249
3033.17722485999,3170.23967373249
3002.94342040566,3170.24967373249
2968.87509935892,3170.25967373249
2929.93875985572,3170.26967373249
2895.55732682475,3170.27967373249
2851.77253717674,3170.28967373249
2809.74885390279,3170.29967373249
2767.80039341811,3170.30967373249
2724.19614085867,3170.31967373249
2677.62540268575,3170.32967373249
2629.50120565615,3170.33967373249
2583.07858002892,3170.34967373249
2536.72581712874,3170.35967373249
2493.34467290642,3170.36967373249
2454.34126127271,3170.37967373249
2418.75795627331,3170.38967373249
2384.81366978052,3170.39967373249
2352.39483775055,3170.40967373249
2324.13996535396,3170.41967373249
2300.58813624903,3170.42967373249
2283.42243933651,3170.43967373249
2269.63334256083,3170.44967373249
2257.11015716502,3170.45967373249
2246.59328080225,3170.46967373249
2235.98710685845,3170.47967373249
2224.87548029337,3170.48967373249
2212.09690811395,3170.49967373249
2199.64443920544,3170.50967373249
2181.9594809136,3170.51967373249
2162.54957426417,3170.52967373249
2141.35188024564,3170.53967373249
2118.39718911303,3170.54967373249
2093.08928554401,3170.55967373249
2066.60966897076,3170.56967373249
2041.01559714867,3170.57967373249
2014.84163274018,3170.58967373249
1990.76569523177,3170.59967373249
1967.91741608623,3170.60967373249
1943.90745257732,3170.61967373249
1922.77386296795,3170.62967373249
1904.0983856075,3170.63967373249
1882.62664700963,3170.64967373249
1864.99707716748,3170.65967373249
1845.62437977103,3170.66967373249
1828.97015861788,3170.67967373249
1812.81244327647,3170.68967373249
1797.89056552799,3170.69967373249
1783.00588157834,3170.70967373249
1768.05432066796,3170.71967373249
1753.19109564838,3170.72967373249
1740.57697152752,3170.73967373249
1727.27660025886,3170.74967373249
1714.236810669,3170.75967373249
1702.34683529591,3170.76967373249
1691.56744738785,3170.77967373249
1679.37600777064,3170.78967373249
1669.1308681848,3170.79967373249
1657.53968120691,3170.80967373249
1646.95931389912,3170.81967373249
1637.15760649402,3170.82967373249
1629.00163699121,3170.83967373249
1620.17811755544,3170.84967373249
1611.22678766729,3170.85967373249
1603.44857014099,3170.86967373249
1596.41015699906,3170.87967373249
1589.36649469029,3170.88967373249
1585.01429753785,3170.89967373249
1580.71151490411,3170.90967373249
1575.89937685338,3170.91967373249
1572.14572535923,3170.92967373249
1566.74557880497,3170.93967373249
1563.49812546091,3170.94967373249
1561.75538545387,3170.95967373249
1566.09743026917,3170.96967373249
1582.02869021305,3170.97967373249
1620.56365351095,3170.98967373249
1670.6342109663,3170.99967373249
1745.60064380357,3171.00967373249
1852.82729789132,3171.01967373249
1964.84550519622,3171.02967373249
2094.27916383649,3171.03967373249
2226.13095039133,3171.04967373249
2364.27437409035,3171.05967373249
2496.10501930333,3171.06967373249
2620.89491557712,3171.07967373249
2733.57687308209,3171.08967373249
2831.7534627228,3171.09967373249
2912.8559216803,3171.10967373249
2979.24095195691,3171.11967373249
3028.34687631243,3171.12967373249
3061.37414134016,3171.13967373249
3079.02068879154,3171.14967373249
3083.34748169058,3171.15967373249
3077.73121934465,3171.16967373249
3061.63057878814,3171.17967373249
3037.30935154471,3171.18967373249
3007.01782189162,3171.19967373249
2970.85220209258,3171.20967373249
2932.5046494634,3171.21967373249
2889.04202122479,3171.22967373249
2845.4660737013,3171.23967373249
2799.52298938069,3171.24967373249
2749.92162249819,3171.25967373249
2696.27193316186,3171.26967373249
2641.11122716885,3171.27967373249
2586.46794257774,3171.28967373249
2531.44422657496,3171.29967373249
2477.7746656539,3171.30967373249
2427.69201306324,3171.31967373249
2379.53652929187,3171.32967373249
2335.7646285188,3171.33967373249
2296.11373830315,3171.34967373249
2266.01573625298,3171.35967373249
2231.23375736493,3171.36967373249
2203.76829190704,3171.37967373249
2181.35126003363,3171.38967373249
2162.07365480034,3171.39967373249
2146.05425913927,3171.40967373249
2132.06407826541,3171.41967373249
2119.7080313696,3171.42967373249
2106.32112067667,3171.43967373249
2091.3138200701,3171.44967373249
2076.79421997431,3171.45967373249
2060.41599484941,3171.46967373249
2038.56615256816,3171.47967373249
2009.26205836492,3171.48967373249
1975.38722243137,3171.49967373249
1938.64291783354,3171.50967373249
1900.7836295846,3171.51967373249
1859.97276084681,3171.52967373249
1821.53965013454,3171.53967373249
1782.45202877209,3171.54967373249
1740.47996791671,3171.55967373249
1698.33171002953,3171.56967373249
1657.30362793208,3171.57967373249
1619.20496208279,3171.58967373249
1581.8471429124,3171.59967373249
1547.61468424253,3171.60967373249
1516.70414582297,3171.61967373249
1491.15709367849,3171.62967373249
1468.20092350758,3171.63967373249
1447.92609222308,3171.64967373249
1424.38273804906,3171.65967373249
1402.3325132119,3171.66967373249
1379.895186283,3171.67967373249
1357.29438422688,3171.68967373249
1335.53934679817,3171.69967373249
1313.5989286579,3171.70967373249
1294.87428250934,3171.71967373249
1277.58704765115,3171.72967373249
1259.91969703366,3171.73967373249
1239.28922923161,3171.74967373249
1219.26798342908,3171.75967373249
1197.1738107426,3171.76967373249
1176.07107455338,3171.77967373249
1155.44620949629,3171.78967373249
1133.7782494783,3171.79967373249
1111.62674023955,3171.80967373249
1090.26572487932,3171.81967373249
1070.93290143251,3171.82967373249
1054.41912746352,3171.83967373249
1046.42506465619,3171.84967373249
1050.58282896595,3171.85967373249
1063.86456735476,3171.86967373249
1102.64761224686,3171.87967373249
1159.36727282483,3171.88967373249
1249.06076216519,3171.89967373249
1378.60945558172,3171.90967373249
1521.9916150712,3171.91967373249
1703.09174105242,3171.92967373249
1882.96201541122,3171.93967373249
2111.03256517077,3171.94967373249
2280.17611954689,3171.95967373249
2459.72410353882,3171.96967373249
2635.0085910847,3171.97967373249
2787.46056847825,3171.98967373249
2918.58323492164,3171.99967373249
3025.72659093297,3172.00967373249
3110.3238627402,3172.01967373249
3170.87751004226,3172.02967373249
3210.58506362769,3172.03967373249
3231.85887195019,3172.04967373249
3232.58250481617,3172.05967373249
3218.32545057904,3172.06967373249
3187.15077157388,3172.07967373249
3140.07003416378,3172.08967373249
3085.526121388,3172.09967373249
3022.56847756705,3172.10967373249
2953.99275627507,3172.11967373249
2879.25754431298,3172.12967373249
2799.7212866109,3172.13967373249
2716.34518900834,3172.14967373249
2627.25649573284,3172.15967373249
2538.20463262112,3172.16967373249
2447.41488269978,3172.17967373249
2358.76865856069,3172.18967373249
2275.53345872929,3172.19967373249
2197.31667778995,3172.20967373249
2123.11320677028,3172.21967373249
2053.61702429075,3172.22967373249
1991.75315162129,3172.23967373249
1939.67452166841,3172.24967373249
1899.67913240536,3172.25967373249
1869.24224321793,3172.26967373249
1846.77572353891,3172.27967373249
1828.47503981393,3172.28967373249
1814.67891061884,3172.29967373249
1800.49190567882,3172.30967373249
1786.87211218711,3172.31967373249
1773.36496116523,3172.32967373249
1758.72222266239,3172.33967373249
1743.99084058525,3172.34967373249
1726.7084884944,3172.35967373249
1705.46689843238,3172.36967373249
1682.48882880939,3172.37967373249
1658.4172330852,3172.38967373249
1634.81011792323,3172.39967373249
1609.46256421136,3172.40967373249
1581.02251705155,3172.41967373249
1558.0092437698,3172.42967373249
1530.15541565177,3172.43967373249
1500.77376855903,3172.44967373249
1470.47304679522,3172.45967373249
1442.82915863234,3172.46967373249
1415.05333702311,3172.47967373249
1389.29667131407,3172.48967373249
1367.01793700923,3172.49967373249
1342.75751146119,3172.50967373249
1319.80751246014,3172.51967373249
1296.08236575505,3172.52967373249
1273.49380288795,3172.53967373249
1252.58577018436,3172.54967373249
1233.70804152785,3172.55967373249
1216.87448961739,3172.56967373249
1202.46575460712,3172.57967373249
1190.18652144551,3172.58967373249
1179.54656788539,3172.59967373249
1173.06074320088,3172.60967373249
1166.63800741686,3172.61967373249
1158.23647574216,3172.62967373249
1151.26290306374,3172.63967373249
1146.3050480973,3172.64967373249
1140.41690973738,3172.65967373249
1138.60681563703,3172.66967373249
1137.5905734108,3172.67967373249
1139.9480003692,3172.68967373249
1152.2716696967,3172.69967373249
1181.84079047759,3172.70967373249
1237.76331532904,3172.71967373249
1324.43831717293,3172.72967373249
1444.48344605352,3172.73967373249
1595.96576959912,3172.74967373249
1778.67894417679,3172.75967373249
1977.12389850169,3172.76967373249
2193.83315392462,3172.77967373249
2409.14235776122,3172.78967373249
2648.39335039951,3172.79967373249
2856.90325935412,3172.80967373249
3048.28589129171,3172.81967373249
3219.77391953643,3172.82967373249
3368.42815686564,3172.83967373249
3492.89332429512,3172.84967373249
3590.37741699148,3172.85967373249
3664.00917336124,3172.86967373249
3714.71130423909,3172.87967373249
3744.10016429164,3172.88967373249
3753.44079067626,3172.89967373249
3743.34434644919,3172.90967373249
3719.32605159655,3172.91967373249
3681.07632920348,3172.92967373249
3634.11904292773,3172.93967373249
3576.69795017439,3172.94967373249
3513.7182548073,3172.95967373249
3447.65751750518,3172.96967373249
3367.03554100947,3172.97967373249
3282.03750595732,3172.98967373249
3192.6426059828,3172.99967373249
3100.41162999347,3173.00967373249
3013.43368524755,3173.01967373249
2928.12966751434,3173.02967373249
2843.88913884983,3173.03967373249
2760.91293826716,3173.04967373249
2683.06484737018,3173.05967373249
2609.01282423493,3173.06967373249
2541.54766616899,3173.07967373249
2485.27820178626,3173.08967373249
2440.06458423157,3173.09967373249
2402.92273186206,3173.10967373249
2374.77047513114,3173.11967373249
2351.05299957495,3173.12967373249
2334.31752813038,3173.13967373249
2320.60499139738,3173.14967373249
2308.11150585912,3173.15967373249
2294.79220915292,3173.16967373249
2280.38377466373,3173.17967373249
2265.36936724841,3173.18967373249
2246.63847673982,3173.19967373249
2223.0997120506,3173.20967373249
2196.22778349395,3173.21967373249
2162.94267649604,3173.22967373249
2127.87393048391,3173.23967373249
2090.59375503698,3173.24967373249
2053.32789838032,3173.25967373249
2015.8990097563,3173.26967373249
1975.48014127028,3173.27967373249
1938.9589298693,3173.28967373249
1904.51195279163,3173.29967373249
1869.38224176769,3173.30967373249
1837.90452200762,3173.31967373249
1808.62952683131,3173.32967373249
1780.00787460849,3173.33967373249
1751.4305712742,3173.34967373249
1723.83901476542,3173.35967373249
1698.3081519063,3173.36967373249
1673.93559365439,3173.37967373249
1651.98310436333,3173.38967373249
1632.07808478783,3173.39967373249
1612.884412588,3173.40967373249
1591.11345500901,3173.41967373249
1569.26594701561,3173.42967373249
1550.7134083999,3173.43967373249
1536.4598374091,3173.44967373249
1523.17199346554,3173.45967373249
1512.86848906888,3173.46967373249
1504.337966039,3173.47967373249
1497.61651466983,3173.48967373249
1490.36051766699,3173.49967373249
1483.60344731905,3173.50967373249
1474.16573315751,3173.51967373249
1465.05245314409,3173.52967373249
1456.3044567156,3173.53967373249
1448.19366033417,3173.54967373249
1441.07118460942,3173.55967373249
1438.25333006417,3173.56967373249
1447.12724954233,3173.57967373249
1477.15280894424,3173.58967373249
1535.70427482776,3173.59967373249
1626.65663577361,3173.60967373249
1752.94932020042,3173.61967373249
1911.55278887499,3173.62967373249
2095.63146927126,3173.63967373249
2299.07193034843,3173.64967373249
2515.72394142637,3173.65967373249
2739.11247168441,3173.66967373249
2961.02356694282,3173.67967373249
3173.16399472586,3173.68967373249
3369.42132869103,3173.69967373249
3542.46424832043,3173.70967373249
3686.3025497641,3173.71967373249
3806.48366179479,3173.72967373249
3899.91397576861,3173.73967373249
3968.47351808694,3173.74967373249
4011.05371452964,3173.75967373249
4028.14354875316,3173.76967373249
4028.22939216885,3173.77967373249
4010.93549380701,3173.78967373249
3979.12097552206,3173.79967373249
3933.16007742735,3173.80967373249
3876.01090764281,3173.81967373249
3809.66549790506,3173.82967373249
3738.58444553408,3173.83967373249
3660.64559951412,3173.84967373249
3578.96421230165,3173.85967373249
3492.461870704,3173.86967373249
3401.59509969988,3173.87967373249
3305.44950163007,3173.88967373249
3207.87974708979,3173.89967373249
3107.94290580659,3173.90967373249
3007.07433310091,3173.91967373249
2911.48650638694,3173.92967373249
2818.49456844329,3173.93967373249
2733.30343540177,3173.94967373249
2655.51980346064,3173.95967373249
2585.04880373912,3173.96967373249
2524.39344520185,3173.97967373249
2470.66373678608,3173.98967373249
2424.28626384868,3173.99967373249
2380.3299097475,3174.00967373249
2342.74586030669,3174.01967373249
2311.06058149787,3174.02967373249
2283.10033433883,3174.03967373249
2256.48726717436,3174.04967373249
2232.66044052745,3174.05967373249
2206.66345468511,3174.06967373249
2179.23016331828,3174.07967373249
2150.96442910428,3174.08967373249
2119.92497617324,3174.09967373249
2087.54810577443,3174.10967373249
2052.29508154871,3174.11967373249
2014.2762634703,3174.12967373249
1978.1575956325,3174.13967373249
1940.22883037033,3174.14967373249
1903.17340314514,3174.15967373249
1869.25032724818,3174.16967373249
1834.81499286071,3174.17967373249
1800.91276578378,3174.18967373249
1767.22799228621,3174.19967373249
1733.20235032899,3174.20967373249
1701.38924940529,3174.21967373249
1672.10978149328,3174.22967373249
1645.81027377201,3174.23967373249
1619.57711912727,3174.24967373249
1595.78348114752,3174.25967373249
1568.78947503032,3174.26967373249
1536.70510479063,3174.27967373249
1505.67306825398,3174.28967373249
1473.79840642209,3174.29967373249
1442.57967287061,3174.30967373249
1412.89458761487,3174.31967373249
1385.97176734012,3174.32967373249
1360.03282865372,3174.33967373249
1334.36904320447,3174.34967373249
1310.51412447684,3174.35967373249
1284.655852021,3174.36967373249
1259.65042492676,3174.37967373249
1235.67454986521,3174.38967373249
1212.27989018244,3174.39967373249
1192.25985423587,3174.40967373249
1173.89626188976,3174.41967373249
1155.80931303531,3174.42967373249
1137.41873582843,3174.43967373249
1118.25553548679,3174.44967373249
1101.95168959681,3174.45967373249
1089.22033792488,3174.46967373249
1083.63016071891,3174.47967373249
1088.77052303988,3174.48967373249
1107.32618593936,3174.49967373249
1149.61944249096,3174.50967373249
1221.62652606599,3174.51967373249
1323.35838734635,3174.52967373249
1452.52091853605,3174.53967373249
1613.38050522417,3174.54967373249
1792.22477157815,3174.55967373249
1988.50269105905,3174.56967373249
2190.42433464678,3174.57967373249
2393.48958964,3174.58967373249
2587.48218569447,3174.59967373249
2765.93847176883,3174.60967373249
2924.05143009762,3174.61967373249
3057.39291015321,3174.62967373249
3164.4267572027,3174.63967373249
3243.52824496139,3174.64967373249
3296.55529467837,3174.65967373249
3323.8152182285,3174.66967373249
3329.42384664439,3174.67967373249
3314.20620092019,3174.68967373249
3284.08420737561,3174.69967373249
3239.38999687963,3174.70967373249
3185.3865092275,3174.71967373249
3123.98856289079,3174.72967373249
3056.11643835414,3174.73967373249
2985.05131809424,3174.74967373249
2908.82732443772,3174.75967373249
2831.22532948153,3174.76967373249
2744.68306567483,3174.77967373249
2651.96889398151,3174.78967373249
2555.07982422437,3174.79967373249
2455.19189402127,3174.80967373249
2360.50539914627,3174.81967373249
2267.80834072911,3174.82967373249
2180.8202010564,3174.83967373249
2098.30694009966,3174.84967373249
2024.5069058087,3174.85967373249
1957.20719370444,3174.86967373249
1896.7341915651,3174.87967373249
1847.07548180849,3174.88967373249
1805.2813409769,3174.89967373249
1767.9181729483,3174.90967373249
1736.9525456884,3174.91967373249
1710.51106315006,3174.92967373249
1688.43671048874,3174.93967373249
1667.71251707613,3174.94967373249
1646.02559866795,3174.95967373249
1619.8566930575,3174.96967373249
1595.61427268935,3174.97967373249
1570.74774116044,3174.98967373249
1546.30193768604,3174.99967373249
1516.87525778885,3175.00967373249
1484.65128103653,3175.01967373249
1450.85299825564,3175.02967373249
1415.36284333862,3175.03967373249
1379.0811480222,3175.04967373249
1340.03784021596,3175.05967373249
1302.99428615178,3175.06967373249
1266.03695695318,3175.07967373249
1232.96916612088,3175.08967373249
1200.67948347323,3175.09967373249
1170.86171043391,3175.10967373249
1143.94904608787,3175.11967373249
1117.26582789623,3175.12967373249
1092.30807911321,3175.13967373249
1066.75898322449,3175.14967373249
1040.92093306908,3175.15967373249
1016.14593107053,3175.16967373249
991.52206080323,3175.17967373249
967.790858417549,3175.18967373249
947.715197400297,3175.19967373249
929.056559608376,3175.20967373249
914.966178128596,3175.21967373249
900.739378299092,3175.22967373249
887.6739766926,3175.23967373249
874.525532830014,3175.24967373249
857.7192461578,3175.25967373249
841.064850500516,3175.26967373249
822.497568409281,3175.27967373249
806.218185862919,3175.28967373249
788.814824994301,3175.29967373249
773.24455255763,3175.30967373249
759.635384294033,3175.31967373249
752.713240347646,3175.32967373249
754.192279217275,3175.33967373249
770.403520413691,3175.34967373249
810.054748252123,3175.35967373249
873.988581561989,3175.36967373249
964.497987849971,3175.37967373249
1080.11152779145,3175.38967373249
1217.18321771311,3175.39967373249
1368.94552313424,3175.40967373249
1530.1416814292,3175.41967373249
1695.16245254161,3175.42967373249
1853.56188727985,3175.43967373249
2000.10291064325,3175.44967373249
2132.79272368525,3175.45967373249
2245.08514745048,3175.46967373249
2336.30805719128,3175.47967373249
2404.58331876758,3175.48967373249
2450.90215287992,3175.49967373249
2475.50094913236,3175.50967373249
2479.43388170122,3175.51967373249
2467.82706815262,3175.52967373249
2441.74130151705,3175.53967373249
2402.39127573829,3175.54967373249
2351.99989215619,3175.55967373249
2294.84560271422,3175.56967373249
2231.07342950709,3175.57967373249
2164.74816332764,3175.58967373249
2098.71639648397,3175.59967373249
2029.35263147957,3175.60967373249
1957.65434839117,3175.61967373249
1885.10925304406,3175.62967373249
1815.6149011797,3175.63967373249
1746.98372102793,3175.64967373249
1681.56229253479,3175.65967373249
1620.75874687297,3175.66967373249
1566.38598481856,3175.67967373249
1517.62416117958,3175.68967373249
1476.49261152856,3175.69967373249
1438.50680494879,3175.70967373249
1410.53085338052,3175.71967373249
1395.49659861165,3175.72967373249
1387.6004848011,3175.73967373249
1390.62111061001,3175.74967373249
1395.47491500698,3175.75967373249
1404.61651448281,3175.76967373249
1414.97638355878,3175.77967373249
1426.9160505984,3175.78967373249
1438.23107875868,3175.79967373249
1446.70235223867,3175.80967373249
1452.71648874147,3175.81967373249
1455.12418544043,3175.82967373249
1455.11135155777,3175.83967373249
1448.9855599657,3175.84967373249
1437.31942856639,3175.85967373249
1420.83668219061,3175.86967373249
1402.05178486728,3175.87967373249
1380.36853214883,3175.88967373249
1360.38783270705,3175.89967373249
1342.03558856968,3175.90967373249
1326.40101126304,3175.91967373249
1316.24748911972,3175.92967373249
1307.56938096198,3175.93967373249
1301.74634301701,3175.94967373249
1299.44407649812,3175.95967373249
1299.02876667144,3175.96967373249
1301.40922875007,3175.97967373249
1304.27310854582,3175.98967373249
1305.36731841962,3175.99967373249
1307.56360620998,3176.00967373249
1309.67442048599,3176.01967373249
1311.66170200883,3176.02967373249
1314.47978483786,3176.03967373249
1316.20910928181,3176.04967373249
1315.56172466556,3176.05967373249
1318.32737274725,3176.06967373249
1320.65621743315,3176.07967373249
1324.55562247497,3176.08967373249
1330.7490273085,3176.09967373249
1343.88139912014,3176.10967373249
1367.97934454959,3176.11967373249
1407.96375714668,3176.12967373249
1469.93576060725,3176.13967373249
1552.89830474722,3176.14967373249
1664.57038982998,3176.15967373249
1797.25954256476,3176.16967373249
1947.58652573796,3176.17967373249
2091.95109344557,3176.18967373249
2209.21138673015,3176.19967373249
2326.14469484996,3176.20967373249
2434.07694686144,3176.21967373249
2530.05481661416,3176.22967373249
2613.42391928328,3176.23967373249
2682.85183335134,3176.24967373249
2738.31987932001,3176.25967373249
2780.0368015403,3176.26967373249
2807.43405000012,3176.27967373249
2820.34856858314,3176.28967373249
2823.79071162908,3176.29967373249
2818.48154324634,3176.30967373249
2804.96724562033,3176.31967373249
2786.80665554015,3176.32967373249
2764.037129979,3176.33967373249
2738.00006597583,3176.34967373249
2710.32530696546,3176.35967373249
2679.5924604095,3176.36967373249
2646.40680324194,3176.37967373249
2613.03150717705,3176.38967373249
2578.12847917098,3176.39967373249
2541.29789659274,3176.40967373249
2503.7027040203,3176.41967373249
2464.02149537507,3176.42967373249
2424.14919839072,3176.43967373249
2385.66682315181,3176.44967373249
2349.37005161417,3176.45967373249
2317.31415520304,3176.46967373249
2289.75935280301,3176.47967373249
2265.92328188261,3176.48967373249
2248.87974194449,3176.49967373249
2234.47029509861,3176.50967373249
2225.64593275473,3176.51967373249
2219.86545430361,3176.52967373249
2215.54377489301,3176.53967373249
2212.0070109071,3176.54967373249
2208.89580040859,3176.55967373249
2206.51594772753,3176.56967373249
2201.81441497549,3176.57967373249
2195.50938746861,3176.58967373249
2189.05392534287,3176.59967373249
2182.19669778421,3176.60967373249
2173.62339422018,3176.61967373249
2162.98527727745,3176.62967373249
2151.81307520788,3176.63967373249
2137.73026612148,3176.64967373249
2122.0693667759,3176.65967373249
2103.91966920829,3176.66967373249
2085.67915349334,3176.67967373249
2067.06989637774,3176.68967373249
2049.87766931181,3176.69967373249
2031.77316515936,3176.70967373249
2012.08182243464,3176.71967373249
1994.83959458575,3176.72967373249
1978.90495712111,3176.73967373249
1964.48812209646,3176.74967373249
1951.45284639601,3176.75967373249
1938.59177270204,3176.76967373249
1927.23552132415,3176.77967373249
1914.89935145091,3176.78967373249
1903.1204221095,3176.79967373249
1891.57079682721,3176.80967373249
1879.38213311706,3176.81967373249
1868.05400506433,3176.82967373249
1855.98814467028,3176.83967373249
1845.54232454533,3176.84967373249
1838.50683118425,3176.85967373249
1833.21682848129,3176.86967373249
1828.14762913801,3176.87967373249
1824.46491401533,3176.88967373249
1821.821184708,3176.89967373249
1819.02966239166,3176.90967373249
1816.53354238345,3176.91967373249
1815.86931929663,3176.92967373249
1814.94083177009,3176.93967373249
1810.82921976796,3176.94967373249
1803.44254620786,3176.95967373249
1793.11410459127,3176.96967373249
1783.42097982983,3176.97967373249
1775.68246392467,3176.98967373249
1771.66779011267,3176.99967373249
1770.99609300862,3177.00967373249
1780.63197628259,3177.01967373249
1803.86266369877,3177.02967373249
1848.65240512055,3177.03967373249
1913.51075901201,3177.04967373249
1998.42171180805,3177.05967373249
2099.80398086253,3177.06967373249
2209.04924273452,3177.07967373249
2321.33223629056,3177.08967373249
2433.24791950302,3177.09967373249
2539.28394694547,3177.10967373249
2636.5155643307,3177.11967373249
2721.86276960393,3177.12967373249
2791.13496142834,3177.13967373249
2844.26413538089,3177.14967373249
2879.01532824656,3177.15967373249
2898.96204385418,3177.16967373249
2907.13319561112,3177.17967373249
2904.80941810665,3177.18967373249
2894.01266223371,3177.19967373249
2877.0325420009,3177.20967373249
2853.72480845978,3177.21967373249
2824.76587835808,3177.22967373249
2791.44181671458,3177.23967373249
2757.07401047906,3177.24967373249
2720.35119884559,3177.25967373249
2682.41791644608,3177.26967373249
2646.84159369693,3177.27967373249
2610.39902514108,3177.28967373249
2573.65172354143,3177.29967373249
2536.97092482502,3177.30967373249
2500.57230522736,3177.31967373249
2464.072188756,3177.32967373249
2426.08729123828,3177.33967373249
2387.89787883166,3177.34967373249
2352.07211153798,3177.35967373249
2320.14868471407,3177.36967373249
2292.90538017315,3177.37967373249
2269.9167869728,3177.38967373249
2250.02448127193,3177.39967373249
2231.19442351999,3177.40967373249
2213.64004768544,3177.41967373249
2199.86984356848,3177.42967373249
2187.67913577484,3177.43967373249
2176.91103810121,3177.44967373249
2167.76609794196,3177.45967373249
2158.36258152361,3177.46967373249
2149.06676547758,3177.47967373249
2138.9712624947,3177.48967373249
2129.04833257848,3177.49967373249
2118.77199193696,3177.50967373249
2106.53451198189,3177.51967373249
2092.44273530614,3177.52967373249
2076.80918609386,3177.53967373249
2059.97917444013,3177.54967373249
2043.31643047604,3177.55967373249
2024.61924771254,3177.56967373249
2006.57031046572,3177.57967373249
1986.90387199551,3177.58967373249
1968.21039252933,3177.59967373249
1950.65111816542,3177.60967373249
1931.64379455657,3177.61967373249
1913.49329887351,3177.62967373249
1895.76549047591,3177.63967373249
1879.00051498278,3177.64967373249
1864.02150210427,3177.65967373249
1849.4385396984,3177.66967373249
1836.46212108537,3177.67967373249
1821.83182526238,3177.68967373249
1807.98377222823,3177.69967373249
1793.80916392125,3177.70967373249
1779.71436622794,3177.71967373249
1769.00336634906,3177.72967373249
1758.65062999142,3177.73967373249
1747.89728597439,3177.74967373249
1738.04024416367,3177.75967373249
1728.74680715721,3177.76967373249
1719.93204637794,3177.77967373249
1709.67554487166,3177.78967373249
1698.05298492307,3177.79967373249
1688.27927017362,3177.80967373249
1681.76982509007,3177.81967373249
1675.62713090196,3177.82967373249
1670.09995351778,3177.83967373249
1663.16014252442,3177.84967373249
1655.54371143859,3177.85967373249
1647.93261060651,3177.86967373249
1637.93048073172,3177.87967373249
1628.43381395746,3177.88967373249
1618.29796391534,3177.89967373249
1607.18046685924,3177.90967373249
1599.50653300927,3177.91967373249
1594.99064196219,3177.92967373249
1598.29971686231,3177.93967373249
1613.64792156941,3177.94967373249
1645.54266342831,3177.95967373249
1695.13823648026,3177.96967373249
1764.45533675319,3177.97967373249
1848.0357086983,3177.98967373249
1940.99290280567,3177.99967373249
2038.99623039637,3178.00967373249
2136.33641457508,3178.01967373249
2227.1245524894,3178.02967373249
2307.83447460054,3178.03967373249
2378.47963718805,3178.04967373249
2436.24008859759,3178.05967373249
2481.6118722114,3178.06967373249
2512.49627321775,3178.07967373249
2530.45215561914,3178.08967373249
2534.85206820647,3178.09967373249
2529.51202735744,3178.10967373249
2516.52619275013,3178.11967373249
2495.44024828899,3178.12967373249
2465.8268039766,3178.13967373249
2432.52001529742,3178.14967373249
2395.58163058971,3178.15967373249
2356.48968911952,3178.16967373249
2319.37022286953,3178.17967373249
2283.01847251734,3178.18967373249
2247.85508023873,3178.19967373249
2210.91081527922,3178.20967373249
2174.92924753023,3178.21967373249
2138.96571968651,3178.22967373249
2105.12409141234,3178.23967373249
2072.53031525881,3178.24967373249
2042.20897819714,3178.25967373249
2012.26398596387,3178.26967373249
1985.0511694328,3178.27967373249
1961.83614909894,3178.28967373249
1942.4646143785,3178.29967373249
1927.61308334921,3178.30967373249
1917.89217077853,3178.31967373249
1911.03315969319,3178.32967373249
1907.72402023105,3178.33967373249
1905.10034758247,3178.34967373249
1906.21199842014,3178.35967373249
1908.72492319975,3178.36967373249
1910.93689528403,3178.37967373249
1911.36933702498,3178.38967373249
1907.63849435945,3178.39967373249
1902.26508908045,3178.40967373249
1893.298963259,3178.41967373249
1878.58679018297,3178.42967373249
1860.93650241172,3178.43967373249
1842.34700969523,3178.44967373249
1821.59502550039,3178.45967373249
1801.78840360134,3178.46967373249
1781.41192777687,3178.47967373249
1760.20830525349,3178.48967373249
1737.36165947039,3178.49967373249
1713.95400922638,3178.50967373249
1690.76250882951,3178.51967373249
1666.91983667698,3178.52967373249
1646.59098017982,3178.53967373249
1627.4365264476,3178.54967373249
1607.40167757091,3178.55967373249
1589.41813126098,3178.56967373249
1572.60458831738,3178.57967373249
1556.83035812816,3178.58967373249
1541.89443684808,3178.59967373249
1528.70356761518,3178.60967373249
1514.98494195838,3178.61967373249
1500.83541626282,3178.62967373249
1487.7828210397,3178.63967373249
1474.86746848332,3178.64967373249
1463.85917139051,3178.65967373249
1454.12577743868,3178.66967373249
1446.20793456208,3178.67967373249
1440.11306406796,3178.68967373249
1433.42242725113,3178.69967373249
1427.93727731777,3178.70967373249
1423.71254521765,3178.71967373249
1419.67412900577,3178.72967373249
1417.19309146624,3178.73967373249
1422.21076726098,3178.74967373249
1437.89064235009,3178.75967373249
1470.02113445781,3178.76967373249
1519.00033519063,3178.77967373249
1586.46656697158,3178.78967373249
1668.91796632733,3178.79967373249
1764.33372090786,3178.80967373249
1865.59453316971,3178.81967373249
1971.86815541993,3178.82967373249
2072.4865769944,3178.83967373249
2152.83665795472,3178.84967373249
2225.95724045359,3178.85967373249
2288.44717035077,3178.86967373249
2339.21869280227,3178.87967373249
2379.35716415745,3178.88967373249
2410.95792478021,3178.89967373249
2434.88840017806,3178.90967373249
2449.91529559028,3178.91967373249
2457.44388420965,3178.92967373249
2457.78379283425,3178.93967373249
2452.04604028891,3178.94967373249
2441.33282345675,3178.95967373249
2429.96884392085,3178.96967373249
2417.04977440799,3178.97967373249
2402.99684083631,3178.98967373249
2387.38608619177,3178.99967373249
2371.78719119926,3179.00967373249
2356.52345515468,3179.01967373249
2340.92361169532,3179.02967373249
2324.04102186107,3179.03967373249
2305.49391571922,3179.04967373249
2285.90404462749,3179.05967373249
2267.14474117222,3179.06967373249
2248.28280787297,3179.07967373249
2231.24594021409,3179.08967373249
2215.53817834733,3179.09967373249
2203.21669267381,3179.10967373249
2194.5666641225,3179.11967373249
2190.44226366157,3179.12967373249
2189.99338106712,3179.13967373249
2191.5231088832,3179.14967373249
2193.17861848879,3179.15967373249
2195.38623371999,3179.16967373249
2198.11986799083,3179.17967373249
2201.53795764363,3179.18967373249
2204.6182341323,3179.19967373249
2207.26681071083,3179.20967373249
2208.42975599714,3179.21967373249
2207.30742497549,3179.22967373249
2203.20566112652,3179.23967373249
2197.096184446,3179.24967373249
2190.06415084663,3179.25967373249
2180.54845373948,3179.26967373249
2169.67386757977,3179.27967373249
2157.92530745541,3179.28967373249
2144.62684836873,3179.29967373249
2131.6996117911,3179.30967373249
2119.83979965538,3179.31967373249
2107.80234508996,3179.32967373249
2096.52086997996,3179.33967373249
2086.25483140434,3179.34967373249
2077.13961731311,3179.35967373249
2067.63809641462,3179.36967373249
2060.07344226659,3179.37967373249
2052.88401356979,3179.38967373249
2046.69733538112,3179.39967373249
2039.86145581582,3179.40967373249
2032.9714728015,3179.41967373249
2027.02294971599,3179.42967373249
2022.19735411333,3179.43967373249
2018.98417688745,3179.44967373249
2015.97363817702,3179.45967373249
2014.40811030251,3179.46967373249
2012.87609737567,3179.47967373249
2010.18427446497,3179.48967373249
2005.52408283886,3179.49967373249
2001.63884868656,3179.50967373249
1998.38833640961,3179.51967373249
1994.67755378394,3179.52967373249
1991.08583366252,3179.53967373249
1986.20451446006,3179.54967373249
1980.41164974405,3179.55967373249
1973.15771528144,3179.56967373249
1965.85897195287,3179.57967373249
1959.89148169453,3179.58967373249
1956.72608985363,3179.59967373249
1957.54467080669,3179.60967373249
1967.04194352407,3179.61967373249
1989.31735862663,3179.62967373249
2025.54859397763,3179.63967373249
2077.38910921743,3179.64967373249
2143.75268128004,3179.65967373249
2220.00698611661,3179.66967373249
2302.85981016412,3179.67967373249
2388.57188311107,3179.68967373249
2471.22563016867,3179.69967373249
2548.21423748378,3179.70967373249
2616.58494138323,3179.71967373249
2675.63425665147,3179.72967373249
2725.1032599526,3179.73967373249
2763.63414613917,3179.74967373249
2790.85483639689,3179.75967373249
2809.90018428708,3179.76967373249
2819.43093588822,3179.77967373249
2821.3843294944,3179.78967373249
2814.94900986406,3179.79967373249
2801.18959489016,3179.80967373249
2783.05085256034,3179.81967373249
2760.84590260777,3179.82967373249
2737.92709304535,3179.83967373249
2714.01761681605,3179.84967373249
2689.99267802944,3179.85967373249
2666.77615194401,3179.86967373249
2642.27995484707,3179.87967373249
2617.28539235069,3179.88967373249
2590.6256676664,3179.89967373249
2563.28888678291,3179.90967373249
2534.25765550493,3179.91967373249
2506.52024419818,3179.92967373249
2479.20986840245,3179.93967373249
2451.41886200916,3179.94967373249
2424.5458518112,3179.95967373249
2398.49228660109,3179.96967373249
2375.14535399053,3179.97967373249
2355.94130672863,3179.98967373249
2340.38357649879,3179.99967373249
2328.49916422049,3180.00967373249
2317.89087231017,3180.01967373249
2308.2410054776,3180.02967373249
2300.41620280292,3180.03967373249
2294.42569717199,3180.04967373249
2288.30143020033,3180.05967373249
2282.56475285733,3180.06967373249
2274.68965409129,3180.07967373249
2264.39413996011,3180.08967373249
2253.19923960367,3180.09967373249
2241.3981716578,3180.10967373249
2231.36392601366,3180.11967373249
2221.36212120899,3180.12967373249
2212.10459630873,3180.13967373249
2200.97138641868,3180.14967373249
2187.39252111589,3180.15967373249
2172.19577526543,3180.16967373249
2156.50787235894,3180.17967373249
2140.32737847205,3180.18967373249
2125.31617180396,3180.19967373249
2109.12992601051,3180.20967373249
2092.80653852895,3180.21967373249
2076.36191664808,3180.22967373249
2060.66746385257,3180.23967373249
2045.78204820362,3180.24967373249
2030.70003165588,3180.25967373249
2016.5842205188,3180.26967373249
2003.35536824558,3180.27967373249
1990.74994871932,3180.28967373249
1979.58859205806,3180.29967373249
1968.88375038125,3180.30967373249
1958.50601146876,3180.31967373249
1949.26162304415,3180.32967373249
1940.44631643228,3180.33967373249
1931.7489331257,3180.34967373249
1921.60844619209,3180.35967373249
1911.07878460126,3180.36967373249
1901.32494846754,3180.37967373249
1892.00988132878,3180.38967373249
1882.26663649495,3180.39967373249
1873.33460753523,3180.40967373249
1865.19484950389,3180.41967373249
1857.10219357364,3180.42967373249
1851.98163587047,3180.43967373249
1847.22544368245,3180.44967373249
1842.77407774939,3180.45967373249
1839.99062759551,3180.46967373249
1837.67840648975,3180.47967373249
1835.7570661697,3180.48967373249
1832.93709235855,3180.49967373249
1829.29208493294,3180.50967373249
1823.93610116649,3180.51967373249
1818.93276501668,3180.52967373249
1816.44006934767,3180.53967373249
1818.83080698718,3180.54967373249
1831.38628408793,3180.55967373249
1857.27524713784,3180.56967373249
1899.33629351262,3180.57967373249
1956.70508066991,3180.58967373249
2025.47844453526,3180.59967373249
2104.80602642924,3180.60967373249
2189.15666779065,3180.61967373249
2273.52688520031,3180.62967373249
2356.68726940722,3180.63967373249
2433.94046314999,3180.64967373249
2503.0596624015,3180.65967373249
2563.16502523157,3180.66967373249
2614.65810252745,3180.67967373249
2654.94519925091,3180.68967373249
2683.65112960622,3180.69967373249
2700.9264934906,3180.70967373249
2708.11825803109,3180.71967373249
2707.78335187573,3180.72967373249
2700.27833772364,3180.73967373249
2686.49249317991,3180.74967373249
2668.4846279855,3180.75967373249
2646.58180244348,3180.76967373249
2621.98161110311,3180.77967373249
2595.6852616824,3180.78967373249
2569.4058469929,3180.79967373249
2543.4860270505,3180.80967373249
2516.61190337751,3180.81967373249
2489.34805108407,3180.82967373249
2460.04288682241,3180.83967373249
2429.22852176632,3180.84967373249
2397.81675840448,3180.85967373249
2365.81657670598,3180.86967373249
2333.4700631502,3180.87967373249
2300.59907866013,3180.88967373249
2269.36404335815,3180.89967373249
2242.14250708615,3180.90967373249
2217.77587226962,3180.91967373249
2196.78788592834,3180.92967373249
2177.53777726189,3180.93967373249
2161.36011093476,3180.94967373249
2146.07920987306,3180.95967373249
2132.62610723055,3180.96967373249
2121.64301906918,3180.97967373249
2111.60435252227,3180.98967373249
2103.52616439958,3180.99967373249
2096.3063863832,3181.00967373249
2087.90841221683,3181.01967373249
2077.80132642457,3181.02967373249
2065.52484566824,3181.03967373249
2052.4358353626,3181.04967373249
2037.94980620335,3181.05967373249
2022.94704887937,3181.06967373249
2006.35889659033,3181.07967373249
1988.69029333059,3181.08967373249
1967.77481419125,3181.09967373249
1946.99863110303,3181.10967373249
1925.09713069488,3181.11967373249
1902.72239926132,3181.12967373249
1880.80216918677,3181.13967373249
1859.0662126716,3181.14967373249
1838.16127345124,3181.15967373249
1818.15526011597,3181.16967373249
1799.74132897121,3181.17967373249
1782.97659097812,3181.18967373249
1766.31062926373,3181.19967373249
1750.44911157694,3181.20967373249
1733.27476663096,3181.21967373249
1715.88756603913,3181.22967373249
1699.60930361733,3181.23967373249
1685.85536939365,3181.24967373249
1673.00037544924,3181.25967373249
1659.63495887439,3181.26967373249
1646.33639433866,3181.27967373249
1633.74659263056,3181.28967373249
1621.82111865427,3181.29967373249
1611.31492847644,3181.30967373249
1601.32148654985,3181.31967373249
1592.89201586829,3181.32967373249
1582.98690123663,3181.33967373249
1573.76950926249,3181.34967373249
1564.29417914506,3181.35967373249
1555.92830236177,3181.36967373249
1546.35954752203,3181.37967373249
1537.77564738764,3181.38967373249
1529.41986586544,3181.39967373249
1520.00923510436,3181.40967373249
1513.41716338085,3181.41967373249
1509.02846326199,3181.42967373249
1509.98096475508,3181.43967373249
1523.73296766588,3181.44967373249
1551.17114929135,3181.45967373249
1592.51386438074,3181.46967373249
1647.30689633455,3181.47967373249
1714.72300734146,3181.48967373249
1790.80000240989,3181.49967373249
1871.27814653631,3181.50967373249
1951.42495749429,3181.51967373249
2028.42996621957,3181.52967373249
2101.5851150112,3181.53967373249
2168.73877890381,3181.54967373249
2225.79863612008,3181.55967373249
2272.20867531437,3181.56967373249
2307.03182482791,3181.57967373249
2331.90425280923,3181.58967373249
2345.54913938338,3181.59967373249
2349.58124981427,3181.60967373249
2342.892827391,3181.61967373249
2329.27669,3181.62967373249
2310.053862746,3181.63967373249
2286.59975537181,3181.64967373249
2259.91491772439,3181.65967373249
2231.75875608924,3181.66967373249
2202.96646316158,3181.67967373249
2173.11037930756,3181.68967373249
2143.5281226979,3181.69967373249
2113.78338994446,3181.70967373249
2083.9334644861,3181.71967373249
2051.88470621739,3181.72967373249
2018.50482578786,3181.73967373249
1984.21070342452,3181.74967373249
1950.7827264275,3181.75967373249
1922.19458208362,3181.76967373249
1894.04185580224,3181.77967373249
1866.50277324527,3181.78967373249
1840.97539092151,3181.79967373249
1817.08050419955,3181.80967373249
1797.11332757118,3181.81967373249
1782.30535313765,3181.82967373249
1773.35158851047,3181.83967373249
1767.6048945179,3181.84967373249
1764.40207594191,3181.85967373249
1762.96133346557,3181.86967373249
1761.70538310547,3181.87967373249
1759.67446795524,3181.88967373249
1758.24587327654,3181.89967373249
1756.45701704133,3181.90967373249
1753.24033067125,3181.91967373249
1750.07112883838,3181.92967373249
1744.09501992343,3181.93967373249
1736.8169784695,3181.94967373249
1727.81931020952,3181.95967373249
1718.14411193194,3181.96967373249
1707.61611821979,3181.97967373249
1696.98028046665,3181.98967373249
1687.75892379324,3181.99967373249
1679.19064918484,3182.00967373249
1670.30397214549,3182.01967373249
1661.67886622808,3182.02967373249
1653.36897134667,3182.03967373249
1644.58051640268,3182.04967373249
1637.54101718,3182.05967373249
1632.12855236829,3182.06967373249
1628.28125155885,3182.07967373249
1626.05285352383,3182.08967373249
1625.73900628399,3182.09967373249
1624.50558513942,3182.10967373249
1623.99166793774,3182.11967373249
1623.09567942761,3182.12967373249
1624.00799106802,3182.13967373249
1625.44113141037,3182.14967373249
1626.70944706199,3182.15967373249
1627.01179151115,3182.16967373249
1626.50256139941,3182.17967373249
1625.72013667922,3182.18967373249
1626.3211877051,3182.19967373249
1631.94204620016,3182.20967373249
1646.97158051252,3182.21967373249
1672.07633077209,3182.22967373249
1712.39375848066,3182.23967373249
1767.47736523528,3182.24967373249
1837.52841085204,3182.25967373249
1918.38750324994,3182.26967373249
2007.07066991302,3182.27967373249
2099.18484041784,3182.28967373249
2191.25461400531,3182.29967373249
2280.38316984132,3182.30967373249
2364.10692277625,3182.31967373249
2438.87511292505,3182.32967373249
2504.49080916032,3182.33967373249
2558.94164352426,3182.34967373249
2601.32859790035,3182.35967373249
2632.73868178057,3182.36967373249
2655.53509577418,3182.37967373249
2671.64687422558,3182.38967373249
2681.72489653291,3182.39967373249
2685.40090679864,3182.40967373249
2681.86259764141,3182.41967373249
2673.22235128059,3182.42967373249
2661.32191402668,3182.43967373249
2647.29982997448,3182.44967373249
2632.74489060152,3182.45967373249
2617.24681755187,3182.46967373249
2599.28497942896,3182.47967373249
2579.33493850023,3182.48967373249
2558.7059674702,3182.49967373249
2535.74257337616,3182.50967373249
2512.37193719617,3182.51967373249
2488.44162098908,3182.52967373249
2463.01025722919,3182.53967373249
2438.34316025256,3182.54967373249
2417.07430003614,3182.55967373249
2397.74436251273,3182.56967373249
2379.85803804448,3182.57967373249
2365.17972214574,3182.58967373249
2353.02763431887,3182.59967373249
2343.98812690703,3182.60967373249
2336.54110986006,3182.61967373249
2330.24741315922,3182.62967373249
2323.96609967734,3182.63967373249
2318.32161162656,3182.64967373249
2312.75127079124,3182.65967373249
2308.46834662985,3182.66967373249
2304.25625214618,3182.67967373249
2298.63600915541,3182.68967373249
2292.45671258115,3182.69967373249
2284.24403856084,3182.70967373249
2273.71458150477,3182.71967373249
2260.74218419621,3182.72967373249
2246.63456862677,3182.73967373249
2232.31765687703,3182.74967373249
2216.52145364487,3182.75967373249
2200.02551343809,3182.76967373249
2184.22027287597,3182.77967373249
2167.59436495989,3182.78967373249
2151.44238202759,3182.79967373249
2134.20642118349,3182.80967373249
2116.54361195929,3182.81967373249
2098.36617067451,3182.82967373249
2080.68027337179,3182.83967373249
2064.98321888224,3182.84967373249
2049.63077771731,3182.85967373249
2034.78673774316,3182.86967373249
2020.48708309709,3182.87967373249
2007.63933571019,3182.88967373249
1996.34804975373,3182.89967373249
1987.62220299663,3182.90967373249
1981.12355982719,3182.91967373249
1973.64790339897,3182.92967373249
1965.19067358496,3182.93967373249
1957.11631094503,3182.94967373249
1949.54848810027,3182.95967373249
1942.23404139234,3182.96967373249
1935.23605949334,3182.97967373249
1929.53661046126,3182.98967373249
1924.62047915689,3182.99967373249
1920.06096357367,3183.00967373249
1913.65787908997,3183.01967373249
1906.94206562978,3183.02967373249
1898.40212783799,3183.03967373249
1889.87504768131,3183.04967373249
1882.54622424904,3183.05967373249
1875.45489890503,3183.06967373249
1869.06428975697,3183.07967373249
1867.24924991827,3183.08967373249
1876.09569092457,3183.09967373249
1901.18208197036,3183.10967373249
1944.3441671535,3183.11967373249
2003.44541313741,3183.12967373249
2076.39742990449,3183.13967373249
2160.39527322184,3183.14967373249
2250.44227742948,3183.15967373249
2343.68749175503,3183.16967373249
2437.26555703276,3183.17967373249
2527.74170652785,3183.18967373249
2610.81177112057,3183.19967373249
2684.61202198813,3183.20967373249
2747.15034308834,3183.21967373249
2798.12431915809,3183.22967373249
2840.11794720731,3183.23967373249
2870.92171596521,3183.24967373249
2891.64403739059,3183.25967373249
2901.10572698478,3183.26967373249
2901.50155954413,3183.27967373249
2894.80800130267,3183.28967373249
2880.92039838743,3183.29967373249
2862.99375741168,3183.30967373249
2842.53227366683,3183.31967373249
2819.48256084637,3183.32967373249
2793.586625927,3183.33967373249
2766.08362417613,3183.34967373249
2735.8634418714,3183.35967373249
2703.25288527118,3183.36967373249
2669.12275326461,3183.37967373249
2632.66383284479,3183.38967373249
2596.38171543418,3183.39967373249
2559.32460240086,3183.40967373249
2521.14423202383,3183.41967373249
2483.96182347046,3183.42967373249
2446.54992774523,3183.43967373249
2410.99932971472,3183.44967373249
2377.90823255135,3183.45967373249
2346.61720302722,3183.46967373249
2318.23559239227,3183.47967373249
2294.5531805281,3183.48967373249
2273.93655435966,3183.49967373249
2253.91684749267,3183.50967373249
2235.84229802606,3183.51967373249
2218.54581560277,3183.52967373249
2202.53411045323,3183.53967373249
2188.97090214468,3183.54967373249
2176.65341048899,3183.55967373249
2164.4578662925,3183.56967373249
2149.8315821607,3183.57967373249
2132.203279125,3183.58967373249
2114.02568953821,3183.59967373249
2094.49538520399,3183.60967373249
2073.21306100548,3183.61967373249
2050.92087824283,3183.62967373249
2022.4283000385,3183.63967373249
1991.83569697571,3183.64967373249
1964.77155674939,3183.65967373249
1937.83844750443,3183.66967373249
1912.99332408321,3183.67967373249
1888.37709488751,3183.68967373249
1863.71496264745,3183.69967373249
1840.95636131861,3183.70967373249
1816.21048059913,3183.71967373249
1791.74797800416,3183.72967373249
1768.27651540747,3183.73967373249
1745.20350823215,3183.74967373249
1723.37155198851,3183.75967373249
1705.89244465117,3183.76967373249
1689.59500882411,3183.77967373249
1674.04040299612,3183.78967373249
1657.26875219549,3183.79967373249
1640.68010301705,3183.80967373249
1624.69553235589,3183.81967373249
1609.9327652881,3183.82967373249
1597.29107912755,3183.83967373249
1584.16040309877,3183.84967373249
1570.09817701729,3183.85967373249
1558.40177800473,3183.86967373249
1548.37162242575,3183.87967373249
1538.97197475477,3183.88967373249
1529.88489740896,3183.89967373249
1519.79272990531,3183.90967373249
1510.76799714978,3183.91967373249
1501.37929819495,3183.92967373249
1489.64768796625,3183.93967373249
1479.15445984015,3183.94967373249
1468.86553928073,3183.95967373249
1460.8293000418,3183.96967373249
1455.57043543122,3183.97967373249
1457.7268163778,3183.98967373249
1471.30813751501,3183.99967373249
1501.58626042445,3184.00967373249
1549.58822487622,3184.01967373249
1616.20071767545,3184.02967373249
1700.29216980873,3184.03967373249
1800.65423153909,3184.04967373249
1909.98516508523,3184.05967373249
2026.24344842224,3184.06967373249
2146.12657092831,3184.07967373249
2263.21687459612,3184.08967373249
2373.84122310718,3184.09967373249
2473.54837038553,3184.10967373249
2559.41320001375,3184.11967373249
2628.78329353452,3184.12967373249
2682.29581839783,3184.13967373249
2721.33879836703,3184.14967373249
2746.60426363945,3184.15967373249
2758.75326264147,3184.16967373249
2760.35133368713,3184.17967373249
2754.24356337856,3184.18967373249
2738.58276717229,3184.19967373249
2715.3410335619,3184.20967373249
2686.2452694113,3184.21967373249
2651.07440828299,3184.22967373249
2612.08448494874,3184.23967373249
2571.52706446923,3184.24967373249
2526.31292221092,3184.25967373249
2477.67318601212,3184.26967373249
2424.45681219156,3184.27967373249
2368.4429816391,3184.28967373249
2306.04936570214,3184.29967373249
2243.48257874934,3184.30967373249
2182.08491773633,3184.31967373249
2122.37474753025,3184.32967373249
2066.10771524272,3184.33967373249
2013.79725454169,3184.34967373249
1964.53052337062,3184.35967373249
1920.43075109048,3184.36967373249
1885.01623169136,3184.37967373249
1855.93858045269,3184.38967373249
1833.89107442758,3184.39967373249
1817.21902082219,3184.40967373249
1801.03881294009,3184.41967373249
1785.9483068212,3184.42967373249
1769.32728196302,3184.43967373249
1752.0843793575,3184.44967373249
1732.66779153477,3184.45967373249
1715.85344402777,3184.46967373249
1698.15241832207,3184.47967373249
1679.6798493178,3184.48967373249
1659.18219613219,3184.49967373249
1636.50295297452,3184.50967373249
1610.90186727376,3184.51967373249
1584.82980593645,3184.52967373249
1557.86040834244,3184.53967373249
1533.48774667674,3184.54967373249
1511.52214803177,3184.55967373249
1489.06375348877,3184.56967373249
1467.60109236611,3184.57967373249
1449.03562816561,3184.58967373249
1431.46548561174,3184.59967373249
1412.99905098337,3184.60967373249
1396.32707122349,3184.61967373249
1381.35687452354,3184.62967373249
1369.02171390312,3184.63967373249
1358.13059501709,3184.64967373249
1348.91829750719,3184.65967373249
1340.82315821615,3184.66967373249
1332.99659001512,3184.67967373249
1325.86005829563,3184.68967373249
1321.8968469096,3184.69967373249
1318.63307230292,3184.70967373249
1315.32026827216,3184.71967373249
1314.02742130183,3184.72967373249
1311.02150033515,3184.73967373249
1308.74695490286,3184.74967373249
1308.79761171579,3184.75967373249
1312.50138639993,3184.76967373249
1324.73305929083,3184.77967373249
1350.05986927935,3184.78967373249
1390.00728317303,3184.79967373249
1448.24049914531,3184.80967373249
1525.17562032922,3184.81967373249
1621.7586371797,3184.82967373249
1735.00471317314,3184.83967373249
1861.05200477506,3184.84967373249
1992.18987004206,3184.85967373249
2126.59149869374,3184.86967373249
2257.26369241366,3184.87967373249
2382.71634361954,3184.88967373249
2497.44309131298,3184.89967373249
2599.5467733263,3184.90967373249
2687.47454311956,3184.91967373249
2763.05626283582,3184.92967373249
2823.58978908594,3184.93967373249
2867.86479303564,3184.94967373249
2896.87273023066,3184.95967373249
2914.38970366563,3184.96967373249
2920.57854486349,3184.97967373249
2918.76595268531,3184.98967373249
2908.91950844913,3184.99967373249
2891.49465032134,3185.00967373249
2868.2432228904,3185.01967373249
2841.91708422621,3185.02967373249
2811.51288202716,3185.03967373249
2777.72394597684,3185.04967373249
2740.19539632899,3185.05967373249
2698.09649612237,3185.06967373249
2653.39511837513,3185.07967373249
2606.8406260399,3185.08967373249
2558.0165822048,3185.09967373249
2509.02079881855,3185.10967373249
2463.87912139167,3185.11967373249
2420.81771382841,3185.12967373249
2382.39727040149,3185.13967373249
2347.44475937321,3185.14967373249
2317.90935968693,3185.15967373249
2294.55171552489,3185.16967373249
2274.23695066187,3185.17967373249
2258.09143988604,3185.18967373249
2241.98234975809,3185.19967373249
2228.31420155554,3185.20967373249
2214.3857938119,3185.21967373249
2203.80193913711,3185.22967373249
2195.45626011606,3185.23967373249
2188.36006006981,3185.24967373249
2178.86805427556,3185.25967373249
2166.2096195339,3185.26967373249
2152.09594450986,3185.27967373249
2136.53805116834,3185.28967373249
2118.30419340019,3185.29967373249
2097.73494239808,3185.30967373249
2078.48138707988,3185.31967373249
2056.41689410569,3185.32967373249
2031.38595138068,3185.33967373249
2010.72358617369,3185.34967373249
1985.65212947306,3185.35967373249
1962.97193544575,3185.36967373249
1940.31847600233,3185.37967373249
1918.83137577662,3185.38967373249
1898.53417332421,3185.39967373249
1881.39880780348,3185.40967373249
1863.23692976803,3185.41967373249
1845.89438388463,3185.42967373249
1828.76859158246,3185.43967373249
1814.02585301889,3185.44967373249
1799.85198286565,3185.45967373249
1784.62915802508,3185.46967373249
1771.44858306149,3185.47967373249
1758.55639227117,3185.48967373249
1748.36207462726,3185.49967373249
1738.94057277733,3185.50967373249
1730.45099646864,3185.51967373249
1723.06787610091,3185.52967373249
1712.6813501982,3185.53967373249
1701.30385526631,3185.54967373249
1688.67198288528,3185.55967373249
1675.18713735273,3185.56967373249
1661.21317759834,3185.57967373249
1645.72831054576,3185.58967373249
1629.33626854022,3185.59967373249
1616.8967639824,3185.60967373249
1609.1600984745,3185.61967373249
1610.50833151155,3185.62967373249
1625.0709395312,3185.63967373249
1654.06360231462,3185.64967373249
1705.05022395792,3185.65967373249
1779.14308365377,3185.66967373249
1879.26249806244,3185.67967373249
1997.70732694008,3185.68967373249
2132.16616806005,3185.69967373249
2273.14756490668,3185.70967373249
2418.09490037294,3185.71967373249
2560.04619913084,3185.72967373249
2696.58719892199,3185.73967373249
2820.80441503454,3185.74967373249
2929.98776147137,3185.75967373249
3025.14738944377,3185.76967373249
3102.48278622824,3185.77967373249
3161.88173871711,3185.78967373249
3203.23187279735,3185.79967373249
3230.09989582955,3185.80967373249
3242.81674859984,3185.81967373249
3242.72315443925,3185.82967373249
3232.9671535905,3185.83967373249
3215.453387935,3185.84967373249
3190.66894515784,3185.85967373249
3159.89825536457,3185.86967373249
3125.20688216506,3185.87967373249
3087.12610781235,3185.88967373249
3045.27119277271,3185.89967373249
2999.65391107011,3185.90967373249
2949.47264921236,3185.91967373249
2895.53689014466,3185.92967373249
2838.73068475524,3185.93967373249
2780.47643824687,3185.94967373249
2723.30269605632,3185.95967373249
2664.71894013134,3185.96967373249
2609.42435477117,3185.97967373249
2556.55651580849,3185.98967373249
2506.25122735799,3185.99967373249
2459.50045577852,3186.00967373249
2415.35775803335,3186.01967373249
2376.99085040049,3186.02967373249
2342.32287578978,3186.03967373249
2310.86801408401,3186.04967373249
2283.42035038028,3186.05967373249
2259.01252545058,3186.06967373249
2237.7456895641,3186.07967373249
2218.28541372493,3186.08967373249
2200.97793494521,3186.09967373249
2183.1689866113,3186.10967373249
2166.29680081788,3186.11967373249
2148.5625825429,3186.12967373249
2128.39704623752,3186.13967373249
2108.39530195685,3186.14967373249
2086.85230375451,3186.15967373249
2067.60211424409,3186.16967373249
2045.7838873009,3186.17967373249
2025.90272863443,3186.18967373249
2003.37711950722,3186.19967373249
1978.76944442786,3186.20967373249
1955.01283691107,3186.21967373249
1932.51720525601,3186.22967373249
1911.84967034174,3186.23967373249
1892.71885086518,3186.24967373249
1874.10914292243,3186.25967373249
1855.62809822945,3186.26967373249
1836.64107974684,3186.27967373249
1816.4253788237,3186.28967373249
1794.12169523679,3186.29967373249
1772.44881228645,3186.30967373249
1751.8249645206,3186.31967373249
1728.61402862599,3186.32967373249
1706.44886929093,3186.33967373249
1684.41184569193,3186.34967373249
1663.77003186083,3186.35967373249
1643.44323390165,3186.36967373249
1622.06459394831,3186.37967373249
1602.07938892118,3186.38967373249
1582.49012901722,3186.39967373249
1564.41948135337,3186.40967373249
1547.45527989882,3186.41967373249
1532.74504330906,3186.42967373249
1519.16397159987,3186.43967373249
1508.29066364734,3186.44967373249
1497.70947182511,3186.45967373249
1486.80149459622,3186.46967373249
1477.28761292855,3186.47967373249
1469.13540066611,3186.48967373249
1461.82657487023,3186.49967373249
1454.78139886349,3186.50967373249
1448.24535350875,3186.51967373249
1439.6149585864,3186.52967373249
1431.62782681231,3186.53967373249
1425.78317048421,3186.54967373249
1427.00392394466,3186.55967373249
1440.42603589237,3186.56967373249
1468.906352505,3186.57967373249
1515.54028288492,3186.58967373249
1581.91501158088,3186.59967373249
1669.49902449898,3186.60967373249
1777.13820506551,3186.61967373249
1900.6000599565,3186.62967373249
2033.95884616191,3186.63967373249
2174.11208088729,3186.64967373249
2313.60896648448,3186.65967373249
2449.60441070297,3186.66967373249
2577.51303942514,3186.67967373249
2692.5360855648,3186.68967373249
2793.27723219193,3186.69967373249
2875.85852670108,3186.70967373249
2940.77240904125,3186.71967373249
2988.26603785093,3186.72967373249
3018.29207848881,3186.73967373249
3030.26054065888,3186.74967373249
3029.30750051214,3186.75967373249
3017.99332097908,3186.76967373249
2993.36492683983,3186.77967373249
2959.05961948883,3186.78967373249
2917.33012572667,3186.79967373249
2872.09857823117,3186.80967373249
2822.56353679194,3186.81967373249
2770.11686545291,3186.82967373249
2719.14321003506,3186.83967373249
2667.00213141766,3186.84967373249
2612.99790248328,3186.85967373249
2553.88041555574,3186.86967373249
2492.48501483849,3186.87967373249
2431.99335534148,3186.88967373249
2370.26813797265,3186.89967373249
2309.30477974924,3186.90967373249
2252.91083445675,3186.91967373249
2199.8639338338,3186.92967373249
2152.82018962638,3186.93967373249
2110.70085320602,3186.94967373249
2074.01895022116,3186.95967373249
2043.71199134196,3186.96967373249
2017.84565859798,3186.97967373249
1993.62132969749,3186.98967373249
1973.13495368141,3186.99967373249
1956.19980859523,3187.00967373249
1940.09867925874,3187.01967373249
1927.18225324851,3187.02967373249
1914.30143345264,3187.03967373249
1899.69133752043,3187.04967373249
1884.62650932522,3187.05967373249
1864.50891626228,3187.06967373249
1843.62605287541,3187.07967373249
1821.84592586701,3187.08967373249
1801.68682176689,3187.09967373249
1781.42558579287,3187.10967373249
1760.29836508537,3187.11967373249
1737.56716842874,3187.12967373249
1713.34561628252,3187.13967373249
1687.18449876589,3187.14967373249
1659.89228899425,3187.15967373249
1632.93359703,3187.16967373249
1606.37512344956,3187.17967373249
1580.44271697648,3187.18967373249
1555.70176200102,3187.19967373249
1530.96451720961,3187.20967373249
1505.05707938123,3187.21967373249
1482.43383403968,3187.22967373249
1461.20992200875,3187.23967373249
1439.01127047625,3187.24967373249
1417.45840589413,3187.25967373249
1396.20779920354,3187.26967373249
1375.79811009145,3187.27967373249
1357.47114366277,3187.28967373249
1341.90182806014,3187.29967373249
1326.6503971531,3187.30967373249
1309.57530233873,3187.31967373249
1292.52929227069,3187.32967373249
1277.04649272872,3187.33967373249
1262.83218623998,3187.34967373249
1249.05560288833,3187.35967373249
1234.22110741561,3187.36967373249
1219.78781350054,3187.37967373249
1207.19709076897,3187.38967373249
1194.83028844128,3187.39967373249
1185.95047502741,3187.40967373249
1183.47007259281,3187.41967373249
1188.64953694652,3187.42967373249
1204.4598505709,3187.43967373249
1234.73127554006,3187.44967373249
1284.76575577987,3187.45967373249
1356.01412657397,3187.46967373249
1448.28880894309,3187.47967373249
1557.71233699127,3187.48967373249
1681.35608464315,3187.49967373249
1813.36342565878,3187.50967373249
1949.72288588396,3187.51967373249
2083.55149578283,3187.52967373249
2212.39528881127,3187.53967373249
2331.44420482518,3187.54967373249
2439.56971929358,3187.55967373249
2532.03250563544,3187.56967373249
2606.16155769599,3187.57967373249
2664.23394473777,3187.58967373249
2705.79475787769,3187.59967373249
2732.70093234325,3187.60967373249
2744.06414243416,3187.61967373249
2743.6704904574,3187.62967373249
2733.23862720744,3187.63967373249
2714.26314688969,3187.64967373249
2690.13989150407,3187.65967373249
2659.47357314649,3187.66967373249
2623.39363823357,3187.67967373249
2580.01273966556,3187.68967373249
2530.68712371695,3187.69967373249
2477.88977362405,3187.70967373249
2420.71670856628,3187.71967373249
2360.58506652433,3187.72967373249
2298.75607204895,3187.73967373249
2237.56762141027,3187.74967373249
2177.12924499154,3187.75967373249
2119.64713905103,3187.76967373249
2066.04885363519,3187.77967373249
2016.32614556807,3187.78967373249
1970.94594930902,3187.79967373249
1928.70409312448,3187.80967373249
1891.74655812774,3187.81967373249
1861.08460971293,3187.82967373249
1839.38032318629,3187.83967373249
1822.14693341406,3187.84967373249
1806.90514089768,3187.85967373249
1792.12285993954,3187.86967373249
1778.15904568083,3187.87967373249
1764.92956200342,3187.88967373249
1749.74037291159,3187.89967373249
1735.7626265751,3187.90967373249
1719.47427854658,3187.91967373249
1703.04037704052,3187.92967373249
1686.01626390447,3187.93967373249
1664.94093941952,3187.94967373249
1642.89541862406,3187.95967373249
1620.85911642388,3187.96967373249
1597.54289143841,3187.97967373249
1576.77491437725,3187.98967373249
1557.32901979482,3187.99967373249
1539.73603537535,3188.00967373249
1521.57830285843,3188.01967373249
1501.6740200203,3188.02967373249
1483.18408887644,3188.03967373249
1466.74423159124,3188.04967373249
1449.58575920311,3188.05967373249
1432.46010742655,3188.06967373249
1416.39079603524,3188.07967373249
1401.07005920325,3188.08967373249
1387.8513102831,3188.09967373249
1379.1610573626,3188.10967373249
1371.87741306593,3188.11967373249
1364.80031232887,3188.12967373249
1357.88573052118,3188.13967373249
1352.34914947997,3188.14967373249
1348.73628620523,3188.15967373249
1347.1248193665,3188.16967373249
1345.75709694424,3188.17967373249
1345.07864695851,3188.18967373249
1345.51719013025,3188.19967373249
1347.67583627142,3188.20967373249
1351.01297670901,3188.21967373249
1361.44212886874,3188.22967373249
1381.28117400947,3188.23967373249
1418.73361823391,3188.24967373249
1474.35988512161,3188.25967373249
1548.15873570141,3188.26967373249
1638.83424613633,3188.27967373249
1743.71256659526,3188.28967373249
1860.92789877624,3188.29967373249
1983.29749486847,3188.30967373249
2111.26879099989,3188.31967373249
2235.58071607874,3188.32967373249
2356.3321026226,3188.33967373249
2468.45478649111,3188.34967373249
2567.36256530527,3188.35967373249
2651.01218378272,3188.36967373249
2720.49589634223,3188.37967373249
2772.89510871429,3188.38967373249
2810.14810881216,3188.39967373249
2836.18228690913,3188.40967373249
2850.11739497441,3188.41967373249
2853.90609386251,3188.42967373249
2848.21365342139,3188.43967373249
2833.29704082946,3188.44967373249
2811.55014410842,3188.45967373249
2786.03718448096,3188.46967373249
2757.78857181106,3188.47967373249
2729.0919434484,3188.48967373249
2697.61313810461,3188.49967373249
2661.46578375788,3188.50967373249
2623.77761849299,3188.51967373249
2582.22932991847,3188.52967373249
2539.20698008653,3188.53967373249
2493.86087858091,3188.54967373249
2446.88093466949,3188.55967373249
2399.51413291759,3188.56967373249
2352.77903859896,3188.57967373249
2310.81914538802,3188.58967373249
2273.95731956037,3188.59967373249
2243.25849772637,3188.60967373249
2218.1125476019,3188.61967373249
2196.11115336981,3188.62967373249
2178.66670078024,3188.63967373249
2163.4456086985,3188.64967373249
2152.00366911668,3188.65967373249
2142.0264603146,3188.66967373249
2132.42906631081,3188.67967373249
2122.79431350634,3188.68967373249
2112.22247967251,3188.69967373249
2100.38139556158,3188.70967373249
2089.37254765522,3188.71967373249
2076.50917863357,3188.72967373249
2062.20413751839,3188.73967373249
2043.57109840799,3188.74967373249
2022.9896378298,3188.75967373249
2002.79644685408,3188.76967373249
1981.53988323056,3188.77967373249
1961.84980345228,3188.78967373249
1942.56719440006,3188.79967373249
1921.85410029135,3188.80967373249
1901.57603597774,3188.81967373249
1881.15072048414,3188.82967373249
1860.97317314139,3188.83967373249
1841.73291666648,3188.84967373249
1824.19426689071,3188.85967373249
1808.71546571113,3188.86967373249
1793.16293650984,3188.87967373249
1779.12393056671,3188.88967373249
1767.38688953659,3188.89967373249
1755.54972903959,3188.90967373249
1742.2339416025,3188.91967373249
1728.57877635447,3188.92967373249
1715.27800105351,3188.93967373249
1702.51907186709,3188.94967373249
1692.0707221214,3188.95967373249
1682.38480533892,3188.96967373249
1672.83289616707,3188.97967373249
1662.90123755507,3188.98967373249
1654.5627799994,3188.99967373249
1650.37359458312,3189.00967373249
1649.05111307941,3189.01967373249
1646.59991818863,3189.02967373249
1644.42170536283,3189.03967373249
1640.83500829303,3189.04967373249
1639.06699653623,3189.05967373249
1638.10558090742,3189.06967373249
1637.92881106493,3189.07967373249
1638.65492914119,3189.08967373249
1639.11005818252,3189.09967373249
1637.80050734586,3189.10967373249
1633.7156426966,3189.11967373249
1632.00116242987,3189.12967373249
1633.35420614275,3189.13967373249
1645.23385055573,3189.14967373249
1672.21462869841,3189.15967373249
1716.41939382045,3189.16967373249
1782.07734664246,3189.17967373249
1867.17170797369,3189.18967373249
1969.38970508471,3189.19967373249
2085.63704568706,3189.20967373249
2211.04810031195,3189.21967373249
2338.40626559589,3189.22967373249
2463.01745535243,3189.23967373249
2581.37170990614,3189.24967373249
2689.63438941913,3189.25967373249
2784.65481654768,3189.26967373249
2862.71845733743,3189.27967373249
2926.24767403709,3189.28967373249
2974.42620845781,3189.29967373249
3007.84214552161,3189.30967373249
3031.04038144955,3189.31967373249
3043.19898467104,3189.32967373249
3046.04756630205,3189.33967373249
3038.77674635132,3189.34967373249
3022.40161461962,3189.35967373249
2998.36386162028,3189.36967373249
2970.63211150466,3189.37967373249
2941.22644587025,3189.38967373249
2910.80528358871,3189.39967373249
2877.36640215862,3189.40967373249
2842.60475022995,3189.41967373249
2804.36709205309,3189.42967373249
2763.09112381625,3189.43967373249
2718.12129752567,3189.44967373249
2669.04160439994,3189.45967373249
2618.4978138785,3189.46967373249
2569.22514355721,3189.47967373249
2523.13373837636,3189.48967373249
2478.1492466029,3189.49967373249
2434.57033533591,3189.50967373249
2394.01101755028,3189.51967373249
2357.1362566416,3189.52967373249
2324.23303370615,3189.53967373249
2294.67132548921,3189.54967373249
2267.77849387561,3189.55967373249
2243.79413295582,3189.56967373249
2221.89423900245,3189.57967373249
2204.27816822656,3189.58967373249
2187.23028672811,3189.59967373249
2169.51086120224,3189.60967373249
2151.94252625468,3189.61967373249
2132.54247674471,3189.62967373249
2116.73794746598,3189.63967373249
2096.94196176102,3189.64967373249
2077.16769217644,3189.65967373249
2055.50850946112,3189.66967373249
2032.76150530188,3189.67967373249
2010.52678446798,3189.68967373249
1987.88729460503,3189.69967373249
1967.42727870845,3189.70967373249
1945.35009642892,3189.71967373249
1922.91380113394,3189.72967373249
1900.87421525829,3189.73967373249
1877.81435427838,3189.74967373249
1855.96089952041,3189.75967373249
1832.66031664339,3189.76967373249
1811.81240671207,3189.77967373249
1793.70791383361,3189.78967373249
1777.75999827715,3189.79967373249
1761.70256753399,3189.80967373249
1744.69204934333,3189.81967373249
1727.1166656734,3189.82967373249
1709.5182825296,3189.83967373249
1691.66919540045,3189.84967373249
1673.99169445468,3189.85967373249
1657.61136843732,3189.86967373249
1642.08074852964,3189.87967373249
1628.36668900848,3189.88967373249
1614.90852973919,3189.89967373249
1602.75530034253,3189.90967373249
1589.98271029471,3189.91967373249
1577.90480235804,3189.92967373249
1568.40996050252,3189.93967373249
1558.90436615998,3189.94967373249
1550.32552005038,3189.95967373249
1541.17830137581,3189.96967373249
1530.26785182854,3189.97967373249
1518.68394940917,3189.98967373249
1507.40290212519,3189.99967373249
1496.89624466663,3190.00967373249
1489.85225167463,3190.01967373249
1488.6330441782,3190.02967373249
1496.24686044602,3190.03967373249
1518.6275975133,3190.04967373249
1557.947632305,3190.05967373249
1616.32750329837,3190.06967373249
1692.89306582217,3190.07967373249
1787.45287984741,3190.08967373249
1890.70088513181,3190.09967373249
2000.14781135972,3190.10967373249
2111.26996339965,3190.11967373249
2218.3326608937,3190.12967373249
2316.10906319004,3190.13967373249
2404.40404129772,3190.14967373249
2479.87510412492,3190.15967373249
2541.27045982698,3190.16967373249
2591.44873632366,3190.17967373249
2630.35307330395,3190.18967373249
2656.86747404941,3190.19967373249
2671.79672645839,3190.20967373249
2675.02431899029,3190.21967373249
2667.51290846554,3190.22967373249
2649.26826098207,3190.23967373249
2625.81002534895,3190.24967373249
2596.79365234965,3190.25967373249
2565.75206144595,3190.26967373249
2534.65220405392,3190.27967373249
2500.06206687283,3190.28967373249
2463.83075614767,3190.29967373249
2423.40502754331,3190.30967373249
2380.9213302316,3190.31967373249
2338.10206601106,3190.32967373249
2294.77607464387,3190.33967373249
2252.93340378086,3190.34967373249
2210.14427159502,3190.35967373249
2169.88524326855,3190.36967373249
2127.09304489174,3190.37967373249
2085.58750373748,3190.38967373249
2046.94124010153,3190.39967373249
2011.69763242842,3190.40967373249
1982.47888017053,3190.41967373249
1958.4341904142,3190.42967373249
1940.19366176244,3190.43967373249
1926.46862148187,3190.44967373249
1914.76948624342,3190.45967373249
1906.60196958267,3190.46967373249
1898.21946515329,3190.47967373249
1889.84499740618,3190.48967373249
1881.7612099584,3190.49967373249
1871.46954926113,3190.50967373249
1857.90344272528,3190.51967373249
1843.98869879202,3190.52967373249
1826.55448486986,3190.53967373249
1806.99437306574,3190.54967373249
1787.90048773755,3190.55967373249
1766.91612516123,3190.56967373249
1744.17758809128,3190.57967373249
1722.4373795104,3190.58967373249
1700.47355591991,3190.59967373249
1678.37776885514,3190.60967373249
1657.76610234402,3190.61967373249
1641.80441817428,3190.62967373249
1626.88847046665,3190.63967373249
1614.45393758432,3190.64967373249
1603.92716223838,3190.65967373249
1594.77047273547,3190.66967373249
1586.79431753572,3190.67967373249
1579.85639684158,3190.68967373249
1574.80882378274,3190.69967373249
1573.23879744525,3190.70967373249
1572.12669191871,3190.71967373249
1571.48397787511,3190.72967373249
1574.02729893702,3190.73967373249
1574.89500106524,3190.74967373249
1578.20901763364,3190.75967373249
1579.68288123185,3190.76967373249
1583.58887303928,3190.77967373249
1587.71518325671,3190.78967373249
1590.7664375215,3190.79967373249
1594.35335157129,3190.80967373249
1600.25707123579,3190.81967373249
1609.38597107504,3190.82967373249
1625.91599282655,3190.83967373249
1653.61692247927,3190.84967373249
1696.28260201304,3190.85967373249
1759.37622460932,3190.86967373249
1837.75729930449,3190.87967373249
1933.80277404586,3190.88967373249
2043.81759931823,3190.89967373249
2160.96412673001,3190.90967373249
2280.19276598294,3190.91967373249
2397.17306680052,3190.92967373249
2507.22810354618,3190.93967373249
2608.69674518523,3190.94967373249
2697.71696265839,3190.95967373249
2775.71890823835,3190.96967373249
2841.30952919328,3190.97967373249
2891.04183949024,3190.98967373249
2930.15941269812,3190.99967373249
2956.90471346076,3191.00967373249
2972.00423168159,3191.01967373249
2976.73568908334,3191.02967373249
2972.79367004738,3191.03967373249
2958.75777143625,3191.04967373249
2936.69178105848,3191.05967373249
2911.1017474292,3191.06967373249
2882.32566310684,3191.07967373249
2852.04031799894,3191.08967373249
2821.12968362321,3191.09967373249
2785.82574876265,3191.10967373249
2749.00567929119,3191.11967373249
2709.84076373513,3191.12967373249
2668.5145604807,3191.13967373249
2626.30637239319,3191.14967373249
2583.36323938288,3191.15967373249
2541.0385555379,3191.16967373249
2500.08499011382,3191.17967373249
2460.23719527227,3191.18967373249
2423.86629425684,3191.19967373249
2391.85872762223,3191.20967373249
2361.8330687577,3191.21967373249
2335.0188082361,3191.22967373249
2310.34976396687,3191.23967373249
2289.39149723316,3191.24967373249
2271.4684081605,3191.25967373249
2253.49050774073,3191.26967373249
2240.06464273185,3191.27967373249
2227.05964347429,3191.28967373249
2212.81198106994,3191.29967373249
2199.0702823352,3191.30967373249
2182.13941045218,3191.31967373249
2164.6529447114,3191.32967373249
2146.09618328734,3191.33967373249
2126.32558617918,3191.34967373249
2106.85484053931,3191.35967373249
2083.9671767482,3191.36967373249
2062.31654700241,3191.37967373249
2037.89148263548,3191.38967373249
2012.59886333384,3191.39967373249
1988.20438104025,3191.40967373249
1965.02957743663,3191.41967373249
1942.46722981025,3191.42967373249
1921.67806884186,3191.43967373249
1901.03993746674,3191.44967373249
1884.44388757857,3191.45967373249
1867.16632739342,3191.46967373249
1849.48538946007,3191.47967373249
1832.47260764815,3191.48967373249
1818.48423650188,3191.49967373249
1807.19929571205,3191.50967373249
1795.25346579181,3191.51967373249
1784.17957603563,3191.52967373249
1775.84026292765,3191.53967373249
1765.97198151189,3191.54967373249
1753.86103925565,3191.55967373249
1741.47477254935,3191.56967373249
1728.63030301453,3191.57967373249
1717.15339682508,3191.58967373249
1705.2869299493,3191.59967373249
1697.26726340987,3191.60967373249
1688.46405845666,3191.61967373249
1678.85373066935,3191.62967373249
1668.92264194958,3191.63967373249
1658.69795100308,3191.64967373249
1650.3836124874,3191.65967373249
1645.3289926373,3191.66967373249
1645.12077893261,3191.67967373249
1655.75535439284,3191.68967373249
1677.92843531785,3191.69967373249
1718.18576759821,3191.70967373249
1779.46922327104,3191.71967373249
1858.576362204,3191.72967373249
1953.89876235575,3191.73967373249
2062.79210319114,3191.74967373249
2181.05862154289,3191.75967373249
2300.75871501131,3191.76967373249
2416.53335917843,3191.77967373249
2525.34649920164,3191.78967373249
2623.64964640613,3191.79967373249
2713.03232697397,3191.80967373249
2789.88807456605,3191.81967373249
2850.84691599449,3191.82967373249
2897.62039747385,3191.83967373249
2928.19129377479,3191.84967373249
2946.18499305433,3191.85967373249
2954.20196574381,3191.86967373249
2953.10138339613,3191.87967373249
2944.50618227097,3191.88967373249
2931.48346707306,3191.89967373249
2911.8991899807,3191.90967373249
2889.0309851359,3191.91967373249
2862.13818871484,3191.92967373249
2832.92922154004,3191.93967373249
2802.07242347923,3191.94967373249
2768.14246303907,3191.95967373249
2733.22753092902,3191.96967373249
2695.76608520588,3191.97967373249
2653.50376890336,3191.98967373249
2611.46523038351,3191.99967373249
2570.27373645337,3192.00967373249
2528.49905963528,3192.01967373249
2485.59595050517,3192.02967373249
2445.16745769988,3192.03967373249
2409.03026007915,3192.04967373249
2375.54366780605,3192.05967373249
2345.16875928078,3192.06967373249
2318.39140066935,3192.07967373249
2296.04377013818,3192.08967373249
2273.43773704027,3192.09967373249
2252.87872957666,3192.10967373249
2233.71255494987,3192.11967373249
2217.05136782603,3192.12967373249
2201.45611364129,3192.13967373249
2184.80225682965,3192.14967373249
2168.95460458067,3192.15967373249
2152.68474651041,3192.16967373249
2136.7380364819,3192.17967373249
2120.02175168722,3192.18967373249
2102.27336465186,3192.19967373249
2082.42784189763,3192.20967373249
2061.75269358167,3192.21967373249
2038.2248773618,3192.22967373249
2015.17576807677,3192.23967373249
1990.20300471702,3192.24967373249
1966.57278834576,3192.25967373249
1943.42878677188,3192.26967373249
1919.83703029524,3192.27967373249
1897.14162654787,3192.28967373249
1875.51865566261,3192.29967373249
1853.71709172646,3192.30967373249
1835.76539338496,3192.31967373249
1816.94374943098,3192.32967373249
1799.15849001169,3192.33967373249
1782.74339564308,3192.34967373249
1765.67114956503,3192.35967373249
1749.68461781229,3192.36967373249
1734.76705934102,3192.37967373249
1718.84286175721,3192.38967373249
1703.97900785716,3192.39967373249
1689.33870643859,3192.40967373249
1677.33372473694,3192.41967373249
1665.5291982285,3192.42967373249
1653.5385017359,3192.43967373249
1643.38190961319,3192.44967373249
1633.86466378778,3192.45967373249
1625.7425896817,3192.46967373249
1618.60360051883,3192.47967373249
1610.18484671686,3192.48967373249
1604.91050548268,3192.49967373249
1598.27021043495,3192.50967373249
1592.53417435923,3192.51967373249
1585.66943812298,3192.52967373249
1578.08835834725,3192.53967373249
1570.36883003137,3192.54967373249
1563.52019771837,3192.55967373249
1557.38751091562,3192.56967373249
1551.29930604697,3192.57967373249
1544.96805760382,3192.58967373249
1543.55073071113,3192.59967373249
1551.4939466597,3192.60967373249
1577.68871182991,3192.61967373249
1624.50556797623,3192.62967373249
1694.50459036876,3192.63967373249
1783.75833251887,3192.64967373249
1888.68043938052,3192.65967373249
2000.61991169005,3192.66967373249
2117.01273883503,3192.67967373249
2234.57747588103,3192.68967373249
2348.84666506547,3192.69967373249
2455.50350885893,3192.70967373249
2552.28729471761,3192.71967373249
2636.74537682469,3192.72967373249
2703.59201023004,3192.73967373249
2753.98728638273,3192.74967373249
2788.96052455276,3192.75967373249
2810.67915824099,3192.76967373249
2818.94827687251,3192.77967373249
2814.16872248726,3192.78967373249
2800.91437865172,3192.79967373249
2780.62251815783,3192.80967373249
2754.206320145,3192.81967373249
2722.78484861943,3192.82967373249
2691.80801606755,3192.83967373249
2658.35346718012,3192.84967373249
2623.07936822063,3192.85967373249
2585.50238582703,3192.86967373249
2543.88701994301,3192.87967373249
2500.89440545065,3192.88967373249
2456.78677294015,3192.89967373249
2411.91399927577,3192.90967373249
2364.32555614468,3192.91967373249
2316.02367518691,3192.92967373249
2268.31144180143,3192.93967373249
2220.99213057104,3192.94967373249
2178.34437337194,3192.95967373249
2138.78181577948,3192.96967373249
2105.22494581722,3192.97967373249
2076.6127952202,3192.98967373249
2053.36500650109,3192.99967373249
2032.12542706041,3193.00967373249
2012.06894805685,3193.01967373249
1996.1761189831,3193.02967373249
1981.92012268266,3193.03967373249
1969.55226691127,3193.04967373249
1957.37559531301,3193.05967373249
1941.8035930812,3193.06967373249
1924.65943448708,3193.07967373249
1906.42094976176,3193.08967373249
1888.16969782331,3193.09967373249
1871.04639038406,3193.10967373249
1853.30276236228,3193.11967373249
1834.10928680228,3193.12967373249
1812.93520744185,3193.13967373249
1788.84516973628,3193.14967373249
1763.77444585365,3193.15967373249
1739.83935109737,3193.16967373249
1713.24461243339,3193.17967373249
1688.03155641163,3193.18967373249
1664.0655364864,3193.19967373249
1642.1961388596,3193.20967373249
1624.55586232718,3193.21967373249
1606.65190036357,3193.22967373249
1589.57941465167,3193.23967373249
1572.17313947521,3193.24967373249
1554.4872853189,3193.25967373249
1537.30185900221,3193.26967373249
1520.66599089289,3193.27967373249
1504.70698766028,3193.28967373249
1488.94504503728,3193.29967373249
1472.61659262247,3193.30967373249
1456.00478100101,3193.31967373249
1439.49152835962,3193.32967373249
1427.84078273352,3193.33967373249
1418.03902106561,3193.34967373249
1408.72922136581,3193.35967373249
1399.35625920288,3193.36967373249
1391.67848871996,3193.37967373249
1382.02836321558,3193.38967373249
1371.93500989991,3193.39967373249
1361.94144688506,3193.40967373249
1352.72393554494,3193.41967373249
1342.92632716798,3193.42967373249
1333.8638819447,3193.43967373249
1327.79366032034,3193.44967373249
1322.44103364864,3193.45967373249
1320.89311757387,3193.46967373249
1327.54036104161,3193.47967373249
1343.27757815248,3193.48967373249
1373.84990765308,3193.49967373249
1423.06630773438,3193.50967373249
1489.12813810809,3193.51967373249
1574.39772310244,3193.52967373249
1675.3231161465,3193.53967373249
1789.08165203827,3193.54967373249
1908.04338817064,3193.55967373249
2028.86572218156,3193.56967373249
2147.26750794637,3193.57967373249
2258.85948396845,3193.58967373249
2362.35372437884,3193.59967373249
2454.59181572444,3193.60967373249
2530.34175210714,3193.61967373249
2593.08707367423,3193.62967373249
2638.00797008398,3193.63967373249
2667.53934573891,3193.64967373249
2685.88795319993,3193.65967373249
2690.90489189272,3193.66967373249
2687.21922337516,3193.67967373249
2673.56346101673,3193.68967373249
2651.17425488789,3193.69967373249
2621.43089978051,3193.70967373249
2586.88647698183,3193.71967373249
2547.21551115762,3193.72967373249
2505.86960563816,3193.73967373249
2462.53776295429,3193.74967373249
2416.78727400183,3193.75967373249
2368.05552524293,3193.76967373249
2314.33977222086,3193.77967373249
2260.90421214266,3193.78967373249
2209.01486553653,3193.79967373249
2159.11079363455,3193.80967373249
2111.77707726596,3193.81967373249
2068.12957542591,3193.82967373249
2028.71942694591,3193.83967373249
1994.05411910709,3193.84967373249
1964.79175373122,3193.85967373249
1939.66455195633,3193.86967373249
1918.57810931822,3193.87967373249
1903.17479389884,3193.88967373249
1891.86035849809,3193.89967373249
1884.8462342114,3193.90967373249
1879.06235857933,3193.91967373249
1874.98021714343,3193.92967373249
1868.11944063039,3193.93967373249
1860.8517815545,3193.94967373249
1853.7954103035,3193.95967373249
1845.78855853544,3193.96967373249
1837.70218426816,3193.97967373249
1826.39771709499,3193.98967373249
1813.39240420768,3193.99967373249
1799.86945085506,3194.00967373249
1782.97113464136,3194.01967373249
1765.74818833674,3194.02967373249
1747.48501414529,3194.03967373249
1729.58188591472,3194.04967373249
1714.17190318088,3194.05967373249
1697.93419269936,3194.06967373249
1683.25302214158,3194.07967373249
1671.34680655327,3194.08967373249
1659.37972325741,3194.09967373249
1648.59732057423,3194.10967373249
1638.62098127323,3194.11967373249
1628.73053257238,3194.12967373249
1619.24345387828,3194.13967373249
1610.74124851426,3194.14967373249
1602.05819172733,3194.15967373249
1592.23524993517,3194.16967373249
1584.122958873,3194.17967373249
1575.92702182606,3194.18967373249
1569.88178466062,3194.19967373249
1564.67074027227,3194.20967373249
1559.68889021214,3194.21967373249
1555.72225787087,3194.22967373249
1553.76467735333,3194.23967373249
1549.69399760856,3194.24967373249
1545.53133599603,3194.25967373249
1543.95813161267,3194.26967373249
1543.76715633977,3194.27967373249
1549.71723158421,3194.28967373249
1564.76657385368,3194.29967373249
1592.64020041578,3194.30967373249
1642.01244696952,3194.31967373249
1712.54869089792,3194.32967373249
1803.10265103524,3194.33967373249
1910.42113632745,3194.34967373249
2031.8660222872,3194.35967373249
2161.21557349109,3194.36967373249
2293.02578010641,3194.37967373249
2425.17807509161,3194.38967373249
2549.29295115632,3194.39967373249
2664.97946335713,3194.40967373249
2767.99651806335,3194.41967373249
2854.68535717823,3194.42967373249
2925.5015615729,3194.43967373249
2981.01162345909,3194.44967373249
3021.84056242363,3194.45967373249
3048.59063340799,3194.46967373249
3065.0725926069,3194.47967373249
3070.2974265572,3194.48967373249
3066.60705323158,3194.49967373249
3055.42701269845,3194.50967373249
3037.46387425061,3194.51967373249
3015.27112897176,3194.52967373249
2987.0180464121,3194.53967373249
2956.49304227731,3194.54967373249
2922.80360234737,3194.55967373249
2884.27572154744,3194.56967373249
2841.6797234571,3194.57967373249
2793.91477067318,3194.58967373249
2743.4082722296,3194.59967373249
2692.01552068368,3194.60967373249
2638.16637186621,3194.61967373249
2583.08712536232,3194.62967373249
2529.91165174796,3194.63967373249
2479.93567623189,3194.64967373249
2433.02102760505,3194.65967373249
2394.04206329407,3194.66967373249
2360.74492277832,3194.67967373249
2332.63328669564,3194.68967373249
2307.95508195647,3194.69967373249
2286.7185466562,3194.70967373249
2267.34895817709,3194.71967373249
2250.61554140431,3194.72967373249
2234.56114534034,3194.73967373249
2217.66138613866,3194.74967373249
2200.8464753204,3194.75967373249
2183.81282214604,3194.76967373249
2164.07834426946,3194.77967373249
2143.70609792286,3194.78967373249
2123.27837335186,3194.79967373249
2100.91614378081,3194.80967373249
2077.78382081155,3194.81967373249
2055.5099333328,3194.82967373249
2032.7005167681,3194.83967373249
2009.27781801045,3194.84967373249
1985.35041809228,3194.85967373249
1959.88997505034,3194.86967373249
1934.97372926637,3194.87967373249
1910.5375674665,3194.88967373249
1887.13625079653,3194.89967373249
1866.1768836956,3194.90967373249
1843.48367157005,3194.91967373249
1821.99543183073,3194.92967373249
1802.26389365111,3194.93967373249
1782.57223255862,3194.94967373249
1762.94346734711,3194.95967373249
1743.1975302687,3194.96967373249
1724.87333863112,3194.97967373249
1709.18065561224,3194.98967373249
1695.0435893939,3194.99967373249
1682.68829340716,3195.00967373249
1670.24883396905,3195.01967373249
1659.12518418353,3195.02967373249
1648.88033724283,3195.03967373249
1639.33753988933,3195.04967373249
1630.06348112521,3195.05967373249
1621.53464094487,3195.06967373249
1614.02469018124,3195.07967373249
1607.0429062002,3195.08967373249
1598.96208628511,3195.09967373249
1589.66473257762,3195.10967373249
1582.75375791386,3195.11967373249
1574.33705642735,3195.12967373249
1565.60967437508,3195.13967373249
1559.9707810572,3195.14967373249
1552.8268788065,3195.15967373249
1548.44068027859,3195.16967373249
1549.76372824049,3195.17967373249
1560.72748086834,3195.18967373249
1588.50788501443,3195.19967373249
1635.56157812305,3195.20967373249
1705.86482443868,3195.21967373249
1797.10612287554,3195.22967373249
1905.41699363797,3195.23967373249
2029.56864996869,3195.24967373249
2162.94258198851,3195.25967373249
2299.24483835938,3195.26967373249
2435.84647009525,3195.27967373249
2568.30851749927,3195.28967373249
2693.62337141744,3195.29967373249
2807.40505767224,3195.30967373249
2905.23708012325,3195.31967373249
2986.33674936392,3195.32967373249
3051.79763470234,3195.33967373249
3099.18629788674,3195.34967373249
3131.35029618681,3195.35967373249
3146.82562382983,3195.36967373249
3150.56551232448,3195.37967373249
3142.44340017462,3195.38967373249
3122.98621473823,3195.39967373249
3096.85613329535,3195.40967373249
3064.43707850822,3195.41967373249
3026.74393027431,3195.42967373249
2983.30282691525,3195.43967373249
2935.37872814479,3195.44967373249
2885.90201861691,3195.45967373249
2835.69500016707,3195.46967373249
2784.67459762908,3195.47967373249
2730.77710674776,3195.48967373249
2675.01478152754,3195.49967373249
2617.70908720849,3195.50967373249
2560.9728565413,3195.51967373249
2508.83757593532,3195.52967373249
2455.74897728493,3195.53967373249
2404.37683046819,3195.54967373249
2354.92070608405,3195.55967373249
2307.80865291728,3195.56967373249
2265.64875627064,3195.57967373249
2227.84058526811,3195.58967373249
2197.05954555266,3195.59967373249
2170.4492035525,3195.60967373249
2147.90213747599,3195.61967373249
2129.25948328636,3195.62967373249
2113.73319014928,3195.63967373249
2098.61259427387,3195.64967373249
2084.71413440253,3195.65967373249
2068.23836538194,3195.66967373249
2049.94987122505,3195.67967373249
2031.83809292116,3195.68967373249
2011.58144935121,3195.69967373249
1990.98146086026,3195.70967373249
1971.82600185388,3195.71967373249
1951.50818105898,3195.72967373249
1931.33583267029,3195.73967373249
1908.12503455813,3195.74967373249
1886.58889521131,3195.75967373249
1863.21888316501,3195.76967373249
1840.48810238466,3195.77967373249
1816.24797774422,3195.78967373249
1791.80064841562,3195.79967373249
1768.16576071008,3195.80967373249
1745.92340346795,3195.81967373249
1726.07893893923,3195.82967373249
1705.88464747667,3195.83967373249
1687.91826166736,3195.84967373249
1671.09008415187,3195.85967373249
1652.35947354888,3195.86967373249
1633.11167394689,3195.87967373249
1613.58522925982,3195.88967373249
1598.1879528013,3195.89967373249
1584.12680244886,3195.90967373249
1570.32861465794,3195.91967373249
1558.05520237001,3195.92967373249
1543.81618786359,3195.93967373249
1530.78583968888,3195.94967373249
1517.90474439357,3195.95967373249
1508.60302156468,3195.96967373249
1502.27606672485,3195.97967373249
1495.12330485561,3195.98967373249
1488.4648351731,3195.99967373249
1481.08460620342,3196.00967373249
1473.48006999525,3196.01967373249
1464.2515491078,3196.02967373249
1457.78921894851,3196.03967373249
1450.75439721017,3196.04967373249
1446.32238307094,3196.05967373249
1444.07037886068,3196.06967373249
1440.80710050952,3196.07967373249
1439.72483788987,3196.08967373249
1437.96059573342,3196.09967373249
1434.32169232592,3196.10967373249
1429.77242115417,3196.11967373249
1424.540111714,3196.12967373249
1420.67560721701,3196.13967373249
1418.88170891792,3196.14967373249
1418.70030771764,3196.15967373249
1421.00717237188,3196.16967373249
1431.16317838402,3196.17967373249
1452.15027613606,3196.18967373249
1490.93600896696,3196.19967373249
1550.75019088372,3196.20967373249
1632.06783623518,3196.21967373249
1733.57835722071,3196.22967373249
1851.55042043185,3196.23967373249
1980.1598361132,3196.24967373249
2113.35718013632,3196.25967373249
2246.17048875824,3196.26967373249
2374.37135301723,3196.27967373249
2493.71841697586,3196.28967373249
2597.24713939084,3196.29967373249
2685.85679682378,3196.30967373249
2757.44978031219,3196.31967373249
2812.7229739641,3196.32967373249
2852.5902134021,3196.33967373249
2875.24554257172,3196.34967373249
2883.59434717187,3196.35967373249
2878.81045476724,3196.36967373249
2862.58639405178,3196.37967373249
2840.89261011075,3196.38967373249
2814.00513775889,3196.39967373249
2783.09110883235,3196.40967373249
2747.61909261756,3196.41967373249
2709.32647851798,3196.42967373249
2669.01347947046,3196.43967373249
2627.30856803574,3196.44967373249
2584.1289375755,3196.45967373249
2538.32320684441,3196.46967373249
2488.18487532762,3196.47967373249
2436.42644659801,3196.48967373249
2385.42883207891,3196.49967373249
2336.57859535938,3196.50967373249
2290.03569948399,3196.51967373249
2243.37011652728,3196.52967373249
2200.8429086399,3196.53967373249
2160.1745410747,3196.54967373249
2124.91693867518,3196.55967373249
2094.84814092907,3196.56967373249
2068.13685012688,3196.57967373249
2046.73544528142,3196.58967373249
2028.84298825877,3196.59967373249
2017.05043632472,3196.60967373249
2007.96301102033,3196.61967373249
2001.93863578861,3196.62967373249
1993.92189669905,3196.63967373249
1984.00268622983,3196.64967373249
1973.17610545788,3196.65967373249
1962.18345570245,3196.66967373249
1949.308324955,3196.67967373249
1934.77788042326,3196.68967373249
1919.58992516465,3196.69967373249
1902.03296913687,3196.70967373249
1881.69909990439,3196.71967373249
1858.51295626871,3196.72967373249
1836.83140306513,3196.73967373249
1813.9605471161,3196.74967373249
1792.8430467768,3196.75967373249
1772.93257054894,3196.76967373249
1750.85778457298,3196.77967373249
1727.73413707006,3196.78967373249
1704.18436582731,3196.79967373249
1682.41835616035,3196.80967373249
1662.22137895574,3196.81967373249
1644.4786429115,3196.82967373249
1628.10064816196,3196.83967373249
1611.74984431244,3196.84967373249
1596.17730101607,3196.85967373249
1579.88092903456,3196.86967373249
1566.2733590051,3196.87967373249
1553.75428670074,3196.88967373249
1542.77527359004,3196.89967373249
1533.65043317046,3196.90967373249
1527.0354206751,3196.91967373249
1519.2291004737,3196.92967373249
1510.11686172762,3196.93967373249
1499.62641770738,3196.94967373249
1489.66236997714,3196.95967373249
1482.19095087588,3196.96967373249
1475.39698616921,3196.97967373249
1469.9428369357,3196.98967373249
1464.59162752815,3196.99967373249
1460.12126883721,3197.00967373249
1454.96672537047,3197.01967373249
1450.42159428449,3197.02967373249
1446.36041292706,3197.03967373249
1445.94340816729,3197.04967373249
1445.9558657358,3197.05967373249
1447.8955045902,3197.06967373249
1449.5057746639,3197.07967373249
1449.96701028588,3197.08967373249
1449.95433624297,3197.09967373249
1449.95602990912,3197.10967373249
1448.83563330446,3197.11967373249
1445.53372503653,3197.12967373249
1442.1373033812,3197.13967373249
1439.03550847379,3197.14967373249
1439.65260119396,3197.15967373249
1446.7148879869,3197.16967373249
1466.36336839594,3197.17967373249
1498.10771523548,3197.18967373249
1547.29675929318,3197.19967373249
1616.55433454822,3197.20967373249
1706.28273090616,3197.21967373249
1812.29549866719,3197.22967373249
1928.62713806519,3197.23967373249
2052.01064667174,3197.24967373249
2175.01356814776,3197.25967373249
2292.10747847709,3197.26967373249
2401.46451745532,3197.27967373249
2499.08587949245,3197.28967373249
2581.80727556147,3197.29967373249
2651.51154453681,3197.30967373249
2705.90949136395,3197.31967373249
2742.99827808885,3197.32967373249
2763.62971762022,3197.33967373249
2770.19882922359,3197.34967373249
2764.61773373949,3197.35967373249
2749.63685931313,3197.36967373249
2727.17984764786,3197.37967373249
2698.20309837941,3197.38967373249
2664.22341695961,3197.39967373249
2626.15614276719,3197.40967373249
2586.52950089626,3197.41967373249
2545.37674676983,3197.42967373249
2503.54274168854,3197.43967373249
2461.58890003062,3197.44967373249
2420.48137093402,3197.45967373249
2377.94852961959,3197.46967373249
2334.11281028368,3197.47967373249
2289.25657060527,3197.48967373249
2243.31909100337,3197.49967373249
2196.8082636203,3197.50967373249
2152.0425968056,3197.51967373249
2112.82652180107,3197.52967373249
2077.74175088746,3197.53967373249
2047.65899352463,3197.54967373249
2022.9091780616,3197.55967373249
2002.0223152127,3197.56967373249
1986.02031671164,3197.57967373249
1973.37403449775,3197.58967373249
1963.13992296486,3197.59967373249
1955.75853452351,3197.60967373249
1950.68080450026,3197.61967373249
1946.10354273653,3197.62967373249
1942.35861291446,3197.63967373249
1935.06616063829,3197.64967373249
1927.50052180671,3197.65967373249
1913.79208057819,3197.66967373249
1896.73954243847,3197.67967373249
1878.70550003725,3197.68967373249
1857.84757917608,3197.69967373249
1836.67300896294,3197.70967373249
1813.22675977408,3197.71967373249
1789.1182502407,3197.72967373249
1766.24457098127,3197.73967373249
1741.11965631355,3197.74967373249
1716.86698404444,3197.75967373249
1693.92930546057,3197.76967373249
1671.99063192552,3197.77967373249
1652.03876619866,3197.78967373249
1631.65063816063,3197.79967373249
1611.59545561943,3197.80967373249
1594.28125744842,3197.81967373249
1579.38001531584,3197.82967373249
1567.01814495344,3197.83967373249
1555.32601888148,3197.84967373249
1544.87438068826,3197.85967373249
1536.58627080165,3197.86967373249
1528.16998091904,3197.87967373249
1519.33312562835,3197.88967373249
1511.91896273458,3197.89967373249
1503.70906258038,3197.90967373249
1497.85625427184,3197.91967373249
1492.7890493135,3197.92967373249
1489.32389662644,3197.93967373249
1487.41106915337,3197.94967373249
1485.77583423961,3197.95967373249
1485.97852889667,3197.96967373249
1486.38595471238,3197.97967373249
1489.61285248482,3197.98967373249
1492.73600610825,3197.99967373249
1495.78527799423,3198.00967373249
1498.04222856616,3198.01967373249
1497.92777164047,3198.02967373249
1505.74893481616,3198.03967373249
1525.3150068762,3198.04967373249
1557.01275432724,3198.05967373249
1604.92621097615,3198.06967373249
1673.32009440921,3198.07967373249
1762.84084340237,3198.08967373249
1868.5144974607,3198.09967373249
1985.33273019062,3198.10967373249
2110.46397902878,3198.11967373249
2236.41977376782,3198.12967373249
2358.09851895763,3198.13967373249
2474.58871283343,3198.14967373249
2580.92487181776,3198.15967373249
2675.61134600863,3198.16967373249
2760.76457199991,3198.17967373249
2831.04132932643,3198.18967373249
2888.63128140603,3198.19967373249
2931.95003367145,3198.20967373249
2961.77685446459,3198.21967373249
2979.73548059285,3198.22967373249
2987.00781513753,3198.23967373249
2984.81652155362,3198.24967373249
2974.81366139242,3198.25967373249
2958.02653224532,3198.26967373249
2935.8039688971,3198.27967373249
2910.83378776099,3198.28967373249
2881.35967822193,3198.29967373249
2849.28213654223,3198.30967373249
2815.35118168679,3198.31967373249
2778.28921876485,3198.32967373249
2736.65206474939,3198.33967373249
2693.49878423175,3198.34967373249
2646.73507676997,3198.35967373249
2602.01973733096,3198.36967373249
2559.93923117992,3198.37967373249
2520.25657555472,3198.38967373249
2483.69736108173,3198.39967373249
2449.14112974034,3198.40967373249
2419.62706473481,3198.41967373249
2393.10439066167,3198.42967373249
2371.65436860444,3198.43967373249
2355.78089001895,3198.44967373249
2343.67382338624,3198.45967373249
2335.46600555618,3198.46967373249
2328.29142150805,3198.47967373249
2321.44327595636,3198.48967373249
2313.24478379721,3198.49967373249
2304.96389130186,3198.50967373249
2294.71111275434,3198.51967373249
2282.8877645789,3198.52967373249
2268.91110448828,3198.53967373249
2252.7295998151,3198.54967373249
2235.76949156985,3198.55967373249
2216.93880522183,3198.56967373249
2196.18434185776,3198.57967373249
2174.24560638587,3198.58967373249
2150.14776032763,3198.59967373249
2126.76184411563,3198.60967373249
2103.08004973511,3198.61967373249
2081.94004799462,3198.62967373249
2060.60473647315,3198.63967373249
2038.45792023258,3198.64967373249
2015.86461573555,3198.65967373249
1992.35894060827,3198.66967373249
1972.72150689156,3198.67967373249
1956.71649910239,3198.68967373249
1941.34294476476,3198.69967373249
1925.75532521533,3198.70967373249
1909.7994700032,3198.71967373249
1893.26423938421,3198.72967373249
1878.0717177942,3198.73967373249
1863.49021830302,3198.74967373249
1846.80856087533,3198.75967373249
1830.66373862592,3198.76967373249
1814.23698535346,3198.77967373249
1801.29922036237,3198.78967373249
1789.04945988855,3198.79967373249
1778.12150749877,3198.80967373249
1768.20385304951,3198.81967373249
1759.41709403066,3198.82967373249
1751.84428855103,3198.83967373249
1745.44731877445,3198.84967373249
1740.05380590151,3198.85967373249
1734.90783990966,3198.86967373249
1728.19471638902,3198.87967373249
1720.54606408049,3198.88967373249
1712.8800035663,3198.89967373249
1703.47237696122,3198.90967373249
1698.10051633325,3198.91967373249
1693.16446908555,3198.92967373249
1687.93298175586,3198.93967373249
1683.64199768598,3198.94967373249
1680.05474517858,3198.95967373249
1680.39773986575,3198.96967373249
1688.76461620278,3198.97967373249
1711.3196925967,3198.98967373249
1755.90956506804,3198.99967373249
1822.68650245865,3199.00967373249
1912.45765764892,3199.01967373249
2021.06813081287,3199.02967373249
2146.85823095947,3199.03967373249
2282.36895818292,3199.04967373249
2422.30445801067,3199.05967373249
2562.9370988894,3199.06967373249
2697.53475760315,3199.07967373249
2821.00079473431,3199.08967373249
2930.16519877566,3199.09967373249
3028.08850342283,3199.10967373249
3108.17346812662,3199.11967373249
3171.18188639075,3199.12967373249
3217.16142693851,3199.13967373249
3247.81185501828,3199.14967373249
3264.60980939541,3199.15967373249
3269.74628034293,3199.16967373249
3263.5286705023,3199.17967373249
3247.39561339307,3199.18967373249
3224.05505481229,3199.19967373249
3194.74909922309,3199.20967373249
3160.49198316611,3199.21967373249
3124.35931309903,3199.22967373249
3084.99247455536,3199.23967373249
3043.14225632151,3199.24967373249
2998.10814357992,3199.25967373249
2949.26900640225,3199.26967373249
2900.01153959682,3199.27967373249
2848.24628048349,3199.28967373249
2793.56960069233,3199.29967373249
2739.67328047773,3199.30967373249
2686.12451094655,3199.31967373249
2633.91847374112,3199.32967373249
2583.94143671336,3199.33967373249
2536.15259636318,3199.34967373249
2493.08710573063,3199.35967373249
2454.89096365011,3199.36967373249
2420.63943031581,3199.37967373249
2393.46410105447,3199.38967373249
2371.66160911074,3199.39967373249
2353.17460447032,3199.40967373249
2335.85791421458,3199.41967373249
2320.76010998519,3199.42967373249
2303.14383228454,3199.43967373249
2287.17111987972,3199.44967373249
2271.93666484171,3199.45967373249
2256.97358068915,3199.46967373249
2241.53576087052,3199.47967373249
2226.21422481787,3199.48967373249
2211.60295480068,3199.49967373249
2192.8454488515,3199.50967373249
2173.14408765852,3199.51967373249
2150.82277838559,3199.52967373249
2125.44665468938,3199.53967373249
2100.96782088357,3199.54967373249
2076.89339220998,3199.55967373249
2052.97726796733,3199.56967373249
2028.28243010368,3199.57967373249
2006.25631770509,3199.58967373249
1983.5964728329,3199.59967373249
1962.58918238166,3199.60967373249
1943.08830716949,3199.61967373249
1923.17197168539,3199.62967373249
1903.60355540443,3199.63967373249
1883.39232405278,3199.64967373249
1866.13328606421,3199.65967373249
1850.29603410048,3199.66967373249
1836.22922783547,3199.67967373249
1822.47209603265,3199.68967373249
1809.72389107037,3199.69967373249
1796.95362408586,3199.70967373249
1783.9445395837,3199.71967373249
1772.3868969381,3199.72967373249
1759.37988011269,3199.73967373249
1748.25106842882,3199.74967373249
1739.9590341358,3199.75967373249
1733.60616984015,3199.76967373249
1728.04356668109,3199.77967373249
1724.63120408582,3199.78967373249
1723.1055274902,3199.79967373249
1720.57264566106,3199.80967373249
1719.49586687928,3199.81967373249
1719.02107942988,3199.82967373249
1718.9584941033,3199.83967373249
1718.90866252127,3199.84967373249
1716.86821847969,3199.85967373249
1713.83442760961,3199.86967373249
1708.82929648374,3199.87967373249
1701.96509333515,3199.88967373249
1694.20728293697,3199.89967373249
1685.57287890565,3199.90967373249
1677.40759874925,3199.91967373249
1668.61392956974,3199.92967373249
1658.91217384817,3199.93967373249
1648.77354798418,3199.94967373249
1642.91211412584,3199.95967373249
1643.21758090061,3199.96967373249
1657.40249942575,3199.97967373249
1692.62021894487,3199.98967373249
1750.29182137464,3199.99967373249
1832.04769076968,3200.00967373249
1934.77633732199,3200.01967373249
2056.4691042191,3200.02967373249
2190.98499447074,3200.03967373249
2331.81105088359,3200.04967373249
2473.09471567905,3200.05967373249
2607.33581987414,3200.06967373249
2733.43559072934,3200.07967373249
2847.3720812783,3200.08967373249
2945.72771723714,3200.09967373249
3029.40735618404,3200.10967373249
3096.02669011345,3200.11967373249
3144.87582075088,3200.12967373249
3178.89493444274,3200.13967373249
3199.26999644893,3200.14967373249
3206.10659604323,3200.15967373249
3200.63115565602,3200.16967373249
3186.69920975324,3200.17967373249
3164.17778380518,3200.18967373249
3133.1040073201,3200.19967373249
3099.01700313177,3200.20967373249
3060.41236075212,3200.21967373249
3016.97031781305,3200.22967373249
2967.54762129639,3200.23967373249
2914.05832014239,3200.24967373249
2857.89024073332,3200.25967373249
2797.53640694519,3200.26967373249
2737.11921469807,3200.27967373249
2674.99717781131,3200.28967373249
2613.79126128983,3200.29967373249
2554.31564300746,3200.30967373249
2497.69331994091,3200.31967373249
2442.32413541115,3200.32967373249
2389.19429588293,3200.33967373249
2338.90976069848,3200.34967373249
2293.99936001997,3200.35967373249
2253.77634099922,3200.36967373249
2217.39714579141,3200.37967373249
2188.23746494875,3200.38967373249
2162.94094483688,3200.39967373249
2141.63482171077,3200.40967373249
2124.36207044026,3200.41967373249
2106.13872508318,3200.42967373249
2087.54851994274,3200.43967373249
2070.46051487895,3200.44967373249
2052.56416425553,3200.45967373249
2035.8042800616,3200.46967373249
2016.06623736564,3200.47967373249
1994.14360662297,3200.48967373249
1971.22963976645,3200.49967373249
1946.73526318935,3200.50967373249
1921.31373679864,3200.51967373249
1896.70965222976,3200.52967373249
1872.30692292314,3200.53967373249
1847.96090314763,3200.54967373249
1821.34278653049,3200.55967373249
1794.4237091527,3200.56967373249
1766.29458163347,3200.57967373249
1737.01097724361,3200.58967373249
1709.82312937336,3200.59967373249
1686.28037451579,3200.60967373249
1665.83209575649,3200.61967373249
1646.9546622728,3200.62967373249
1626.76812235071,3200.63967373249
1608.81860361456,3200.64967373249
1592.30709413362,3200.65967373249
1574.39794547368,3200.66967373249
1556.5637474387,3200.67967373249
1536.9161925489,3200.68967373249
1517.04689174918,3200.69967373249
1497.71728908279,3200.70967373249
1481.56753346622,3200.71967373249
1467.04236174786,3200.72967373249
1453.3004933435,3200.73967373249
1439.95852356489,3200.74967373249
1427.65824896474,3200.75967373249
1416.91588320799,3200.76967373249
1406.97242104202,3200.77967373249
1396.99407541475,3200.78967373249
1387.67817925239,3200.79967373249
1379.65960333279,3200.80967373249
1375.06427138266,3200.81967373249
1371.10618630211,3200.82967373249
1369.1986760956,3200.83967373249
1365.93485302511,3200.84967373249
1363.73045690142,3200.85967373249
1362.07797490206,3200.86967373249
1356.99408454271,3200.87967373249
1353.61709653509,3200.88967373249
1349.71701256977,3200.89967373249
1345.47851048618,3200.90967373249
1344.37477583752,3200.91967373249
1351.21716998499,3200.92967373249
1365.76082065765,3200.93967373249
1393.18573026064,3200.94967373249
1436.57173379377,3200.95967373249
1498.77681430123,3200.96967373249
1580.39015752639,3200.97967373249
1682.089480936,3200.98967373249
1800.25417596802,3200.99967373249
1928.80417524574,3201.00967373249
2063.09802532269,3201.01967373249
2198.5163111426,3201.02967373249
2330.95125033488,3201.03967373249
2454.61408377393,3201.04967373249
2568.35261279391,3201.05967373249
2667.771034485,3201.06967373249
2752.16296383983,3201.07967373249
2819.61758775332,3201.08967373249
2869.70397998471,3201.09967373249
2902.71075939883,3201.10967373249
2920.67098413411,3201.11967373249
2923.96020132673,3201.12967373249
2915.10724979466,3201.13967373249
2896.52010491896,3201.14967373249
2866.82772037137,3201.15967373249
2831.22776040076,3201.16967373249
2790.71791024757,3201.17967373249
2744.36187399165,3201.18967373249
2693.74727352229,3201.19967373249
2640.21887889707,3201.20967373249
2582.99519061633,3201.21967373249
2520.75736879036,3201.22967373249
2457.34786216387,3201.23967373249
2393.24431927069,3201.24967373249
2329.27567910804,3201.25967373249
2265.98890899425,3201.26967373249
2203.38955381395,3201.27967373249
2142.93630111575,3201.28967373249
2083.32101505293,3201.29967373249
2030.60458029319,3201.30967373249
1983.29918498973,3201.31967373249
1942.5657309855,3201.32967373249
1908.05022176881,3201.33967373249
1876.5612995957,3201.34967373249
1848.52812070436,3201.35967373249
1821.05329034984,3201.36967373249
1792.93533924501,3201.37967373249
1766.53417206799,3201.38967373249
1740.27209346197,3201.39967373249
1715.35750109655,3201.40967373249
1693.03296274699,3201.41967373249
1672.63448117176,3201.42967373249
1652.60149195147,3201.43967373249
1634.38517618593,3201.44967373249
1618.61055480749,3201.45967373249
1604.98084696025,3201.46967373249
1597.18486516405,3201.47967373249
1590.79328152787,3201.48967373249
1586.0567183212,3201.49967373249
1582.25948166487,3201.50967373249
1576.12163741662,3201.51967373249
1572.42754627931,3201.52967373249
1566.95480754453,3201.53967373249
1564.04725528216,3201.54967373249
1563.66486290242,3201.55967373249
1563.67088225284,3201.56967373249
1564.1397553702,3201.57967373249
1564.82457724023,3201.58967373249
1567.26354279285,3201.59967373249
1569.22300395944,3201.60967373249
1571.89344110588,3201.61967373249
1574.46389247215,3201.62967373249
1576.451046102,3201.63967373249
1579.07572159735,3201.64967373249
1578.92175595536,3201.65967373249
1579.05184542962,3201.66967373249
1579.18312187886,3201.67967373249
1580.9826269839,3201.68967373249
1583.94207604577,3201.69967373249
1584.76995575157,3201.70967373249
1583.56278780802,3201.71967373249
1581.30427560595,3201.72967373249
1579.06041389436,3201.73967373249
1576.79177255017,3201.74967373249
1573.5782867374,3201.75967373249
1570.88168327712,3201.76967373249
1568.44188164851,3201.77967373249
1567.88560779497,3201.78967373249
1570.91541026163,3201.79967373249
1584.30004257453,3201.80967373249
1609.47027302865,3201.81967373249
1654.39377095291,3201.82967373249
1722.57620005529,3201.83967373249
1812.3062102815,3201.84967373249
1918.96628235315,3201.85967373249
2038.39015309438,3201.86967373249
2167.9205312144,3201.87967373249
2303.52733518778,3201.88967373249
2442.3087679176,3201.89967373249
2576.43861881105,3201.90967373249
2704.11057191863,3201.91967373249
2823.49757565022,3201.92967373249
2928.93178616427,3201.93967373249
3019.15634917769,3201.94967373249
3093.4733764036,3201.95967373249
3149.43543382037,3201.96967373249
3188.52481191436,3201.97967373249
3214.49318582509,3201.98967373249
3226.19240314268,3201.99967373249
3226.24201844288,3202.00967373249
3214.96774572802,3202.01967373249
3193.52934991366,3202.02967373249
3163.33101907745,3202.03967373249
3125.07740029051,3202.04967373249
3081.94453696007,3202.05967373249
3035.28833136393,3202.06967373249
2984.72815464188,3202.07967373249
2932.80938022758,3202.08967373249
2877.71334775772,3202.09967373249
2818.15639289837,3202.10967373249
2757.61766875415,3202.11967373249
2696.93408195077,3202.12967373249
2637.94244295933,3202.13967373249
2583.47384615503,3202.14967373249
2532.87434880054,3202.15967373249
2484.21144534349,3202.16967373249
2439.70852560974,3202.17967373249
2398.7694935826,3202.18967373249
2360.20867165947,3202.19967373249
2326.77231439557,3202.20967373249
2299.89568368686,3202.21967373249
2277.63417579203,3202.22967373249
2258.82917695754,3202.23967373249
2244.00524801636,3202.24967373249
2231.22162110938,3202.25967373249
2216.8857311075,3202.26967373249
2203.5644233083,3202.27967373249
2186.58585128125,3202.28967373249
2168.65396370075,3202.29967373249
2150.68018635856,3202.30967373249
2131.29267138425,3202.31967373249
2110.76565999849,3202.32967373249
2088.70994666871,3202.33967373249
2066.23927421343,3202.34967373249
2042.3682351291,3202.35967373249
2016.85891400018,3202.36967373249
1989.92720064004,3202.37967373249
1962.3889193397,3202.38967373249
1934.5678062272,3202.39967373249
1906.29013714734,3202.40967373249
1879.59278110132,3202.41967373249
1854.09252970056,3202.42967373249
1829.13230487544,3202.43967373249
1806.28975895326,3202.44967373249
1782.82684170199,3202.45967373249
1760.60871392586,3202.46967373249
1742.20042516124,3202.47967373249
1724.58111275552,3202.48967373249
1709.38149632302,3202.49967373249
1694.55657468287,3202.50967373249
1680.23191062662,3202.51967373249
1665.9069996362,3202.52967373249
1651.18764097584,3202.53967373249
1638.76675341797,3202.54967373249
1627.02434435989,3202.55967373249
1615.37045437038,3202.56967373249
1604.01106997222,3202.57967373249
1594.0270530236,3202.58967373249
1584.69776973896,3202.59967373249
1577.80038392601,3202.60967373249
1571.86205994292,3202.61967373249
1567.13127431923,3202.62967373249
1565.12818881166,3202.63967373249
1563.253275306,3202.64967373249
1560.31607959286,3202.65967373249
1556.84781647431,3202.66967373249
1554.50538937083,3202.67967373249
1550.99985076543,3202.68967373249
1549.65081310835,3202.69967373249
1549.74726181721,3202.70967373249
1550.50736075569,3202.71967373249
1555.70088380621,3202.72967373249
1566.05563820689,3202.73967373249
1589.69060893537,3202.74967373249
1632.80230157207,3202.75967373249
1697.7309686825,3202.76967373249
1788.38296742753,3202.77967373249
1901.52959937161,3202.78967373249
2033.57376041461,3202.79967373249
2178.85569345681,3202.80967373249
2333.15125291321,3202.81967373249
2489.10801471138,3202.82967373249
2643.94629683288,3202.83967373249
2790.65933276752,3202.84967373249
2925.24182033156,3202.85967373249
3042.86754416501,3202.86967373249
3144.77965466254,3202.87967373249
3227.62057186312,3202.88967373249
3290.92926519284,3202.89967373249
3336.9637710251,3202.90967373249
3363.76236457816,3202.91967373249
3374.99229805652,3202.92967373249
3371.54597040812,3202.93967373249
3353.93760729658,3202.94967373249
3329.35917386622,3202.95967373249
3295.28502967776,3202.96967373249
3254.84535740952,3202.97967373249
3209.20162253394,3202.98967373249
3160.11383999589,3202.99967373249
3107.27717744457,3203.00967373249
3050.80079741584,3203.01967373249
2992.2476610876,3203.02967373249
2929.26253024444,3203.03967373249
2864.07797766008,3203.04967373249
2797.25781238778,3203.05967373249
2729.58769829846,3203.06967373249
2664.62574938548,3203.07967373249
2602.56926906472,3203.08967373249
2542.16310755746,3203.09967373249
2483.48483101016,3203.10967373249
2428.60669798069,3203.11967373249
2377.97283458425,3203.12967373249
2332.02146293945,3203.13967373249
2293.96345963768,3203.14967373249
2260.04229136739,3203.15967373249
2230.27401093896,3203.16967373249
2207.87712282552,3203.17967373249
2191.34200675985,3203.18967373249
2176.12069124768,3203.19967373249
2161.24853130512,3203.20967373249
2146.95636963488,3203.21967373249
2131.82718776695,3203.22967373249
2117.22849799069,3203.23967373249
2102.31736132162,3203.24967373249
2085.94324928391,3203.25967373249
2066.4744290347,3203.26967373249
2046.82034313636,3203.27967373249
2024.4913666025,3203.28967373249
2000.92075372581,3203.29967373249
1977.59183526088,3203.30967373249
1951.60812457973,3203.31967373249
1926.26154118828,3203.32967373249
1901.07366321158,3203.33967373249
1878.05709155175,3203.34967373249
1856.81810597834,3203.35967373249
1835.97116107224,3203.36967373249
1815.39119709212,3203.37967373249
1792.75651397393,3203.38967373249
1770.46368721141,3203.39967373249
1747.94609958201,3203.40967373249
1727.2508785119,3203.41967373249
1706.85135058811,3203.42967373249
1687.89498567101,3203.43967373249
1668.11354120568,3203.44967373249
1649.29166343778,3203.45967373249
1631.30019539736,3203.46967373249
1612.72437483598,3203.47967373249
1596.66828213084,3203.48967373249
1582.66192487193,3203.49967373249
1568.90813278024,3203.50967373249
1554.45694918012,3203.51967373249
1539.78981803115,3203.52967373249
1524.93829536753,3203.53967373249
1512.98039113508,3203.54967373249
1503.30614474261,3203.55967373249
1493.25666844149,3203.56967373249
1483.61257150427,3203.57967373249
1475.45851715086,3203.58967373249
1468.5783407216,3203.59967373249
1462.24529731426,3203.60967373249
1458.57645640243,3203.61967373249
1456.11902503127,3203.62967373249
1452.43858931493,3203.63967373249
1449.13703248803,3203.64967373249
1446.45678477605,3203.65967373249
1444.65470832089,3203.66967373249
1442.15765597403,3203.67967373249
1436.78725944641,3203.68967373249
1432.98129181457,3203.69967373249
1432.4723663136,3203.70967373249
1439.21844265374,3203.71967373249
1462.82481057458,3203.72967373249
1504.69015283031,3203.73967373249
1568.18899996481,3203.74967373249
1654.4172801788,3203.75967373249
1763.35038346233,3203.76967373249
1890.55434726429,3203.77967373249
2032.95687754828,3203.78967373249
2183.94462333994,3203.79967373249
2336.84847417037,3203.80967373249
2489.40608640387,3203.81967373249
2632.38917016956,3203.82967373249
2764.21490873719,3203.83967373249
2881.78103597136,3203.84967373249
2982.86442979413,3203.85967373249
3066.93200688549,3203.86967373249
3130.9733073105,3203.87967373249
3178.55975229105,3203.88967373249
3207.75682470775,3203.89967373249
3218.93794469461,3203.90967373249
3215.06868519231,3203.91967373249
3198.01871425339,3203.92967373249
3170.64621713598,3203.93967373249
3132.27080586651,3203.94967373249
3088.12148662471,3203.95967373249
3035.82507963277,3203.96967373249
2977.25022100708,3203.97967373249
2917.93779529536,3203.98967373249
2857.37672874956,3203.99967373249
2796.52909320968,3204.00967373249
2732.06387245609,3204.01967373249
2664.51347146948,3204.02967373249
2596.56273504319,3204.03967373249
2526.90181979617,3204.04967373249
2458.68666216718,3204.05967373249
2392.07567732374,3204.06967373249
2327.49453293728,3204.07967373249
2267.03132783584,3204.08967373249
2210.77919648042,3204.09967373249
2159.65854041069,3204.10967373249
2111.81844218587,3204.11967373249
2070.97393794105,3204.12967373249
2035.74374600735,3204.13967373249
2007.6608560406,3204.14967373249
1983.66718750272,3204.15967373249
1964.15106149621,3204.16967373249
1948.78460680669,3204.17967373249
1932.57009474277,3204.18967373249
1916.93302751571,3204.19967373249
1901.35579588836,3204.20967373249
1883.90680562919,3204.21967373249
1863.42485891259,3204.22967373249
1841.09737241734,3204.23967373249
1816.1275580591,3204.24967373249
1792.05369656811,3204.25967373249
1766.45985414323,3204.26967373249
1739.76537236408,3204.27967373249
1710.51847652671,3204.28967373249
1677.88182704688,3204.29967373249
1646.82928243685,3204.30967373249
1618.45186529942,3204.31967373249
1592.16307735522,3204.32967373249
1565.71900056856,3204.33967373249
1540.2640632193,3204.34967373249
1513.73872156342,3204.35967373249
1487.55648646319,3204.36967373249
1461.43019872197,3204.37967373249
1436.82294174139,3204.38967373249
1413.63699939636,3204.39967373249
1391.46872074585,3204.40967373249
1370.40820633133,3204.41967373249
1348.59960254692,3204.42967373249
1329.79206580669,3204.43967373249
1311.01908900291,3204.44967373249
1291.7577290268,3204.45967373249
1272.99881981544,3204.46967373249
1257.62052376379,3204.47967373249
1245.34850154038,3204.48967373249
1234.73441054188,3204.49967373249
1225.62872815646,3204.50967373249
1217.60927456477,3204.51967373249
1209.93809348099,3204.52967373249
1204.8028574867,3204.53967373249
1200.74049932059,3204.54967373249
1197.87315787054,3204.55967373249
1194.62067167663,3204.56967373249
1192.26382375978,3204.57967373249
1190.55041381906,3204.58967373249
1192.60399130556,3204.59967373249
1196.78575222111,3204.60967373249
1209.9790316068,3204.61967373249
1234.09653391105,3204.62967373249
1277.42592816083,3204.63967373249
1341.15554368584,3204.64967373249
1431.01171940987,3204.65967373249
1543.19121512097,3204.66967373249
1675.38496467834,3204.67967373249
1824.23451410196,3204.68967373249
1981.48100789217,3204.69967373249
2144.99796396315,3204.70967373249
2306.9893447215,3204.71967373249
2466.72597848055,3204.72967373249
2613.13614080876,3204.73967373249
2742.81136518004,3204.74967373249
2855.05083700815,3204.75967373249
2944.76604675686,3204.76967373249
3015.55140007417,3204.77967373249
3066.97611005073,3204.78967373249
3096.96975350383,3204.79967373249
3109.8232272659,3204.80967373249
3105.76182766378,3204.81967373249
3087.5737618067,3204.82967373249
3057.10738428267,3204.83967373249
3017.86864121401,3204.84967373249
2970.21676910911,3204.85967373249
2914.63660617806,3204.86967373249
2851.95908345515,3204.87967373249
2784.88936088032,3204.88967373249
2714.06438205391,3204.89967373249
2638.45709484926,3204.90967373249
2561.95683420586,3204.91967373249
2482.63578409747,3204.92967373249
2403.92816612442,3204.93967373249
2327.78967059137,3204.94967373249
2253.89855737632,3204.95967373249
2186.09278970378,3204.96967373249
2122.56685540954,3204.97967373249
2065.20080666718,3204.98967373249
2014.93220228163,3204.99967373249
1970.75921885317,3205.00967373249
1935.11267536071,3205.01967373249
1905.2332888258,3205.02967373249
1881.94026785876,3205.03967373249
1865.02012714656,3205.04967373249
1852.83437560364,3205.05967373249
1844.1398387636,3205.06967373249
1836.81385350465,3205.07967373249
1829.97027777115,3205.08967373249
1823.80456102844,3205.09967373249
1814.90342850453,3205.10967373249
1804.51869119106,3205.11967373249
1791.96906393102,3205.12967373249
1777.12704628969,3205.13967373249
1758.95028473638,3205.14967373249
1741.38819047419,3205.15967373249
1721.81403451217,3205.16967373249
1700.50755547838,3205.17967373249
1678.53684920282,3205.18967373249
1657.69217871392,3205.19967373249
1636.8358296911,3205.20967373249
1618.18462602298,3205.21967373249
1600.7041143692,3205.22967373249
1582.07325467857,3205.23967373249
1566.12084927909,3205.24967373249
1551.27060739194,3205.25967373249
1536.18506615262,3205.26967373249
1522.02740773268,3205.27967373249
1508.5452713714,3205.28967373249
1498.83977409525,3205.29967373249
1488.91946865775,3205.30967373249
1481.74169798978,3205.31967373249
1474.27246038589,3205.32967373249
1467.16883374834,3205.33967373249
1460.68309321304,3205.34967373249
1453.32874691316,3205.35967373249
1447.24138100664,3205.36967373249
1438.2160949504,3205.37967373249
1429.52583330868,3205.38967373249
1423.4498367505,3205.39967373249
1418.43984591265,3205.40967373249
1420.81196712224,3205.41967373249
