PPG,time
0.196430374361571,2775.73097416044
0.383985600675384,2775.74097416044
0.32900451803245,2775.75097416044
0.342951252155525,2775.76097416044
0.314328810763157,2775.77097416044
0.309766267106543,2775.78097416044
0.288237856016675,2775.79097416044
0.276358757976868,2775.80097416044
0.257669475888088,2775.81097416044
0.242124577265186,2775.82097416044
0.224199654681488,2775.83097416044
0.206810709565483,2775.84097416044
0.189344822802071,2775.85097416044
0.172361574088335,2775.86097416044
0.155160987682897,2775.87097416044
0.138333893026864,2775.88097416044
0.121300428916963,2775.89097416044
0.103862586498732,2775.90097416044
0.0865629915264504,2775.91097416044
0.0699377637207259,2775.92097416044
0.053726215728111,2775.93097416044
0.0389040619091047,2775.94097416044
0.0251122168851089,2775.95097416044
0.0116380852818383,2775.96097416044
-0.00178427136943033,2775.97097416044
-0.0154509791566871,2775.98097416044
-0.0293172226985126,2775.99097416044
-0.0426060430856,2776.00097416044
-0.0558186978123005,2776.01097416044
-0.068049545488295,2776.02097416044
-0.0808969658558756,2776.03097416044
-0.0938327408203734,2776.04097416044
-0.106414053511738,2776.05097416044
-0.119450414268119,2776.06097416044
-0.131332920881069,2776.07097416044
-0.142670881933734,2776.08097416044
-0.153654049355082,2776.09097416044
-0.164539228619699,2776.10097416044
-0.175032936737385,2776.11097416044
-0.185592116136427,2776.12097416044
-0.196356384086255,2776.13097416044
-0.20754369443157,2776.14097416044
-0.218942056830061,2776.15097416044
-0.230239848107701,2776.16097416044
-0.241495835968228,2776.17097416044
-0.25237182548354,2776.18097416044
-0.263198570687403,2776.19097416044
-0.273773827280728,2776.20097416044
-0.2844459147643,2776.21097416044
-0.294264282632266,2776.22097416044
-0.304322516935623,2776.23097416044
-0.314006077428502,2776.24097416044
-0.323687551243348,2776.25097416044
-0.333617287108761,2776.26097416044
-0.343325382564653,2776.27097416044
-0.352945556814351,2776.28097416044
-0.3626053622411,2776.29097416044
-0.372424642250813,2776.30097416044
-0.382353597360216,2776.31097416044
-0.392683560618657,2776.32097416044
-0.403111527151284,2776.33097416044
-0.413811308250151,2776.34097416044
-0.423874858044826,2776.35097416044
-0.432238734587967,2776.36097416044
-0.435290556935989,2776.37097416044
-0.426905249106944,2776.38097416044
-0.400567223368822,2776.39097416044
-0.350617262410697,2776.40097416044
-0.276139290260754,2776.41097416044
-0.180181728300705,2776.42097416044
-0.0685080072545007,2776.43097416044
0.0514944491814902,2776.44097416044
0.171058586728817,2776.45097416044
0.284017963856948,2776.46097416044
0.383384410799062,2776.47097416044
0.465389255182445,2776.48097416044
0.528044918205537,2776.49097416044
0.570971761677675,2776.50097416044
0.596798187709383,2776.51097416044
0.608834919532692,2776.52097416044
0.611420982648068,2776.53097416044
0.607954805346565,2776.54097416044
0.601108830281004,2776.55097416044
0.593064347333527,2776.56097416044
0.584803088953841,2776.57097416044
0.577316047760194,2776.58097416044
0.569953004423321,2776.59097416044
0.563991580368716,2776.60097416044
0.559323700721489,2776.61097416044
0.555422522947583,2776.62097416044
0.553037554885141,2776.63097416044
0.550064945147781,2776.64097416044
0.545748912050703,2776.65097416044
0.539111829081814,2776.66097416044
0.52830786218675,2776.67097416044
0.512894302111671,2776.68097416044
0.492536186645468,2776.69097416044
0.467755890570917,2776.70097416044
0.440189603383269,2776.71097416044
0.41280762928297,2776.72097416044
0.387890480798918,2776.73097416044
0.367096980929711,2776.74097416044
0.352023641542948,2776.75097416044
0.342589034280148,2776.76097416044
0.337689342380981,2776.77097416044
0.336546911126206,2776.78097416044
0.338229584661458,2776.79097416044
0.341506164427682,2776.80097416044
0.345648834851337,2776.81097416044
0.349877538433795,2776.82097416044
0.352985353215725,2776.83097416044
0.353557867971361,2776.84097416044
0.35186751837517,2776.85097416044
0.347332020544681,2776.86097416044
0.339779713549486,2776.87097416044
0.329836913706735,2776.88097416044
0.31808334996547,2776.89097416044
0.304675480551993,2776.90097416044
0.290947781830782,2776.91097416044
0.276992709719054,2776.92097416044
0.26265493846691,2776.93097416044
0.247352626030889,2776.94097416044
0.230806027892951,2776.95097416044
0.213245009719338,2776.96097416044
0.194426322294639,2776.97097416044
0.175317158153738,2776.98097416044
0.155058776271734,2776.99097416044
0.135394027133542,2777.00097416044
0.116168236085231,2777.01097416044
0.0976939861480608,2777.02097416044
0.0798325722675348,2777.03097416044
0.0628095430691622,2777.04097416044
0.046385735620921,2777.05097416044
0.0307760127867257,2777.06097416044
0.0154334662518978,2777.07097416044
0.000961307982761685,2777.08097416044
-0.0130394762067645,2777.09097416044
-0.0268343957547746,2777.10097416044
-0.0407161077936029,2777.11097416044
-0.054168235447323,2777.12097416044
-0.0672911117518804,2777.13097416044
-0.0795470361458815,2777.14097416044
-0.0908098221080693,2777.15097416044
-0.102253219126902,2777.16097416044
-0.113818951950459,2777.17097416044
-0.125348316127705,2777.18097416044
-0.136537059685867,2777.19097416044
-0.147470618287726,2777.20097416044
-0.158124149404053,2777.21097416044
-0.168201785111869,2777.22097416044
-0.178373342469609,2777.23097416044
-0.188626689047101,2777.24097416044
-0.198985139404411,2777.25097416044
-0.210103547667933,2777.26097416044
-0.221206092506931,2777.27097416044
-0.232352245694543,2777.28097416044
-0.243230652543061,2777.29097416044
-0.253409377826804,2777.30097416044
-0.263677786530174,2777.31097416044
-0.27330593013119,2777.32097416044
-0.282861019941441,2777.33097416044
-0.292047730545987,2777.34097416044
-0.30154136836741,2777.35097416044
-0.310992319272521,2777.36097416044
-0.320774647343666,2777.37097416044
-0.330827395506656,2777.38097416044
-0.341371394972595,2777.39097416044
-0.352178807990419,2777.40097416044
-0.363383699390228,2777.41097416044
-0.374155789439813,2777.42097416044
-0.382938673773011,2777.43097416044
-0.387277146446958,2777.44097416044
-0.382123110927195,2777.45097416044
-0.3616111931317,2777.46097416044
-0.319905258220449,2777.47097416044
-0.254589305496722,2777.48097416044
-0.16644323768641,2777.49097416044
-0.0608112980944334,2777.50097416044
0.0552629223945325,2777.51097416044
0.173068324027973,2777.52097416044
0.285940588675464,2777.53097416044
0.385580082811025,2777.54097416044
0.468096667136791,2777.55097416044
0.531523080221405,2777.56097416044
0.575082532644906,2777.57097416044
0.60109977859568,2777.58097416044
0.612440234700605,2777.59097416044
0.613473042477363,2777.60097416044
0.608025774157367,2777.61097416044
0.598830350504085,2777.62097416044
0.58874331023439,2777.63097416044
0.578704610692456,2777.64097416044
0.569635061740318,2777.65097416044
0.561266227036874,2777.66097416044
0.553403076086543,2777.67097416044
0.546523288015736,2777.68097416044
0.540592557785226,2777.69097416044
0.535523786602795,2777.70097416044
0.530487402216843,2777.71097416044
0.524322091048203,2777.72097416044
0.516110906276386,2777.73097416044
0.503834057928479,2777.74097416044
0.486425756655576,2777.75097416044
0.464030454366865,2777.76097416044
0.43691940020382,2777.77097416044
0.408438714413335,2777.78097416044
0.38136069605008,2777.79097416044
0.357352389871301,2777.80097416044
0.33970171609204,2777.81097416044
0.328427889983174,2777.82097416044
0.323808518221601,2777.83097416044
0.324205998399417,2777.84097416044
0.328628408454468,2777.85097416044
0.33533769453819,2777.86097416044
0.342198755643314,2777.87097416044
0.348803328799787,2777.88097416044
0.353862057003483,2777.89097416044
0.35705408956292,2777.90097416044
0.357679352760662,2777.91097416044
0.355404763920386,2777.92097416044
0.349859113626695,2777.93097416044
0.34146215202397,2777.94097416044
0.330681649513005,2777.95097416044
0.317290615433047,2777.96097416044
0.302876414240031,2777.97097416044
0.287378911269699,2777.98097416044
0.271057604661534,2777.99097416044
0.254343164713807,2778.00097416044
0.237536614531108,2778.01097416044
0.220146179817189,2778.02097416044
0.202404439531046,2778.03097416044
0.184242837222834,2778.04097416044
0.165912992655717,2778.05097416044
0.148309467653948,2778.06097416044
0.130165159051204,2778.07097416044
0.11236143664357,2778.08097416044
0.0946640952917933,2778.09097416044
0.0767106452974707,2778.10097416044
0.0590776144239206,2778.11097416044
0.0424733379029948,2778.12097416044
0.026470474843421,2778.13097416044
0.0116290472291286,2778.14097416044
-0.00316534651186479,2778.15097416044
-0.0183319033267918,2778.16097416044
-0.0336313628901643,2778.17097416044
-0.047915139477807,2778.18097416044
-0.061850704232744,2778.19097416044
-0.0749856196795366,2778.20097416044
-0.0874914198657277,2778.21097416044
-0.0989200694865363,2778.22097416044
-0.110303986381839,2778.23097416044
-0.120748375547012,2778.24097416044
-0.131017844408253,2778.25097416044
-0.14116765338934,2778.26097416044
-0.151365366089075,2778.27097416044
-0.161526359854403,2778.28097416044
-0.171790220665177,2778.29097416044
-0.18241301397939,2778.30097416044
-0.194537429705785,2778.31097416044
-0.206452283770669,2778.32097416044
-0.218113834249345,2778.33097416044
-0.22880546186355,2778.34097416044
-0.236199990259163,2778.35097416044
-0.236965577743651,2778.36097416044
-0.225496611030739,2778.37097416044
-0.197327145788608,2778.38097416044
-0.148010752137611,2778.39097416044
-0.0772127167885726,2778.40097416044
0.0128111118021721,2778.41097416044
0.11617271037502,2778.42097416044
0.225159008750964,2778.43097416044
0.332309288375536,2778.44097416044
0.429593322443521,2778.45097416044
0.511742811387119,2778.46097416044
0.576583823783271,2778.47097416044
0.623122863835965,2778.48097416044
0.652699631200153,2778.49097416044
0.667676017993917,2778.50097416044
0.672374900084849,2778.51097416044
0.669360460919788,2778.52097416044
0.663130811788484,2778.53097416044
0.655290155305031,2778.54097416044
0.647797659563083,2778.55097416044
0.640913234574447,2778.56097416044
0.634996149237141,2778.57097416044
0.630372177657184,2778.58097416044
0.625915875456561,2778.59097416044
0.622427165032009,2778.60097416044
0.619299693540891,2778.61097416044
0.614963491732304,2778.62097416044
0.609749408263939,2778.63097416044
0.601439528023706,2778.64097416044
0.589782370580985,2778.65097416044
0.572724208939724,2778.66097416044
0.550273520928556,2778.67097416044
0.523134899753137,2778.68097416044
0.492904925469653,2778.69097416044
0.462325638932763,2778.70097416044
0.434271148505147,2778.71097416044
0.411012188364988,2778.72097416044
0.393871464640899,2778.73097416044
0.381896327334434,2778.74097416044
0.374928548588374,2778.75097416044
0.371972149819365,2778.76097416044
0.371464039535603,2778.77097416044
0.37287402488398,2778.78097416044
0.375243962893853,2778.79097416044
0.377719174734909,2778.80097416044
0.378806520135006,2778.81097416044
0.378630305841308,2778.82097416044
0.376380387665152,2778.83097416044
0.371077593925238,2778.84097416044
0.363230279365031,2778.85097416044
0.35286175162883,2778.86097416044
0.339555802592496,2778.87097416044
0.324836115952266,2778.88097416044
0.308783999554159,2778.89097416044
0.291344372699476,2778.90097416044
0.273767733735191,2778.91097416044
0.255816752290196,2778.92097416044
0.237379171448342,2778.93097416044
0.218725872621469,2778.94097416044
0.200081996672198,2778.95097416044
0.181346868087127,2778.96097416044
0.162677974759205,2778.97097416044
0.14409824691176,2778.98097416044
0.126304845025094,2778.99097416044
0.108784543970161,2779.00097416044
0.0917725806650036,2779.01097416044
0.0753079965196436,2779.02097416044
0.0595483947961992,2779.03097416044
0.0438968165865236,2779.04097416044
0.0287358147648133,2779.05097416044
0.0140362059395891,2779.06097416044
-0.000513568159107122,2779.07097416044
-0.0142767504834995,2779.08097416044
-0.0273802314190328,2779.09097416044
-0.0400217368573983,2779.10097416044
-0.0525261439118463,2779.11097416044
-0.0651273439264039,2779.12097416044
-0.0781158555311534,2779.13097416044
-0.0912783122342132,2779.14097416044
-0.10417081816121,2779.15097416044
-0.115883404972293,2779.16097416044
-0.125366917861224,2779.17097416044
-0.128703519597486,2779.18097416044
-0.120714610593737,2779.19097416044
-0.0955314776596591,2779.20097416044
-0.0485650015095407,2779.21097416044
0.0202549445949526,2779.22097416044
0.108764390832675,2779.23097416044
0.209938920266601,2779.24097416044
0.315938473021757,2779.25097416044
0.418749601262012,2779.26097416044
0.510859465864463,2779.27097416044
0.587428868746342,2779.28097416044
0.646502562692767,2779.29097416044
0.687244628113636,2779.30097416044
0.711375054220905,2779.31097416044
0.722285821412094,2779.32097416044
0.724169290721768,2779.33097416044
0.720810682442391,2779.34097416044
0.715646271447368,2779.35097416044
0.709848189227451,2779.36097416044
0.705131269790389,2779.37097416044
0.701205015166833,2779.38097416044
0.698529895091285,2779.39097416044
0.695799797883377,2779.40097416044
0.692573743547614,2779.41097416044
0.688267397647591,2779.42097416044
0.683361619024801,2779.43097416044
0.676553172601959,2779.44097416044
0.667667113482244,2779.45097416044
0.655187539410825,2779.46097416044
0.637975420797593,2779.47097416044
0.614706803576256,2779.48097416044
0.585833044933382,2779.49097416044
0.553464567065204,2779.50097416044
0.519145638303667,2779.51097416044
0.486756758589426,2779.52097416044
0.457854411721425,2779.53097416044
0.434576598638098,2779.54097416044
0.417117156130724,2779.55097416044
0.405320462168542,2779.56097416044
0.39798361757434,2779.57097416044
0.393445073831241,2779.58097416044
0.390417299094928,2779.59097416044
0.387745620162726,2779.60097416044
0.385728164424307,2779.61097416044
0.383167527187322,2779.62097416044
0.379544727851734,2779.63097416044
0.375101009809754,2779.64097416044
0.368721260226641,2779.65097416044
0.360700757074602,2779.66097416044
0.35102621200756,2779.67097416044
0.339795635183573,2779.68097416044
0.326896513813108,2779.69097416044
0.312292103053592,2779.70097416044
0.296000297034192,2779.71097416044
0.27867490517321,2779.72097416044
0.260687600211367,2779.73097416044
0.242128092001755,2779.74097416044
0.222762814740038,2779.75097416044
0.203017853847738,2779.76097416044
0.182788541290408,2779.77097416044
0.162791183249139,2779.78097416044
0.143371949825087,2779.79097416044
0.124501434124024,2779.80097416044
0.106639865100837,2779.81097416044
0.0891540442181863,2779.82097416044
0.071975501536712,2779.83097416044
0.0551493873913198,2779.84097416044
0.037467292919287,2779.85097416044
0.0195445829544648,2779.86097416044
0.00156586813052436,2779.87097416044
-0.0159365510197517,2779.88097416044
-0.0326321904811171,2779.89097416044
-0.0485677427063757,2779.90097416044
-0.0641544777174104,2779.91097416044
-0.0800657231934276,2779.92097416044
-0.0960239819771184,2779.93097416044
-0.11138854511748,2779.94097416044
-0.126150134392985,2779.95097416044
-0.140102730784924,2779.96097416044
-0.153122129721451,2779.97097416044
-0.165405774805393,2779.98097416044
-0.176944701610429,2779.99097416044
-0.188486218610791,2780.00097416044
-0.200350113445562,2780.01097416044
-0.212284863406309,2780.02097416044
-0.22500100583456,2780.03097416044
-0.238015360047412,2780.04097416044
-0.251213275277606,2780.05097416044
-0.264523422164472,2780.06097416044
-0.277583455336213,2780.07097416044
-0.290168075041294,2780.08097416044
-0.301173612470605,2780.09097416044
-0.309197449974211,2780.10097416044
-0.309466948754203,2780.11097416044
-0.297672678412228,2780.12097416044
-0.269631617188559,2780.13097416044
-0.222380102112244,2780.14097416044
-0.15760411818732,2780.15097416044
-0.0796727527152956,2780.16097416044
0.00501873747019762,2780.17097416044
0.0892925654293246,2780.18097416044
0.167083318625267,2780.19097416044
0.233959555938921,2780.20097416044
0.286402416764824,2780.21097416044
0.324408700266151,2780.22097416044
0.349080721542191,2780.23097416044
0.362594242830578,2780.24097416044
0.368329486686256,2780.25097416044
0.368611076547188,2780.26097416044
0.366419455748194,2780.27097416044
0.362770686765875,2780.28097416044
0.358848700529089,2780.29097416044
0.355565026349882,2780.30097416044
0.35261359659305,2780.31097416044
0.350119021434558,2780.32097416044
0.348732806718725,2780.33097416044
0.347059345607402,2780.34097416044
0.345519328097862,2780.35097416044
0.343233252229501,2780.36097416044
0.339336601011529,2780.37097416044
0.332373539900446,2780.38097416044
0.321194423700038,2780.39097416044
0.306105410146719,2780.40097416044
0.28647767374607,2780.41097416044
0.26368410026958,2780.42097416044
0.238513306249701,2780.43097416044
0.213108292439978,2780.44097416044
0.188920443016322,2780.45097416044
0.167973915436977,2780.46097416044
0.150906823925901,2780.47097416044
0.13830555567832,2780.48097416044
0.129425564737452,2780.49097416044
0.123834282072279,2780.50097416044
0.120331816994854,2780.51097416044
0.11698362002609,2780.52097416044
0.114297869044079,2780.53097416044
0.111541488185148,2780.54097416044
0.107855950802547,2780.55097416044
0.102865146711266,2780.56097416044
0.0969222312355643,2780.57097416044
0.0889651904254252,2780.58097416044
0.078970020141416,2780.59097416044
0.0672791049709084,2780.60097416044
0.054147486384221,2780.61097416044
0.0395236872148136,2780.62097416044
0.0235881342206584,2780.63097416044
0.00662715755501669,2780.64097416044
-0.0101639913762242,2780.65097416044
-0.0272066226176893,2780.66097416044
-0.0444746536960525,2780.67097416044
-0.0616607477602661,2780.68097416044
-0.0791708867492964,2780.69097416044
-0.0965186930505219,2780.70097416044
-0.113923627416198,2780.71097416044
-0.131085255128687,2780.72097416044
-0.148385999718024,2780.73097416044
-0.165453958551352,2780.74097416044
-0.182746827407313,2780.75097416044
-0.199433679617047,2780.76097416044
-0.215719952759472,2780.77097416044
-0.2314313989724,2780.78097416044
-0.247063803565475,2780.79097416044
-0.262582954313818,2780.80097416044
-0.277402803910327,2780.81097416044
-0.29204007752347,2780.82097416044
-0.306278092576472,2780.83097416044
-0.319388392766197,2780.84097416044
-0.332407328358438,2780.85097416044
-0.345161874666017,2780.86097416044
-0.356797020800564,2780.87097416044
-0.368588234266493,2780.88097416044
-0.380130389843235,2780.89097416044
-0.392277468269915,2780.90097416044
-0.404248720920361,2780.91097416044
-0.416838767745593,2780.92097416044
-0.430031417188043,2780.93097416044
-0.443248086824973,2780.94097416044
-0.456362474175401,2780.95097416044
-0.468832686363411,2780.96097416044
-0.480096406894037,2780.97097416044
-0.488764784988228,2780.98097416044
-0.492394519947069,2780.99097416044
-0.487752433727451,2781.00097416044
-0.472152577949306,2781.01097416044
-0.444416409690681,2781.02097416044
-0.405400314282083,2781.03097416044
-0.358143938233441,2781.04097416044
-0.306916902921336,2781.05097416044
-0.256166508494053,2781.06097416044
-0.210323442565607,2781.07097416044
-0.172083346013239,2781.08097416044
-0.142335506722229,2781.09097416044
-0.122147259672005,2781.10097416044
-0.1093744070494,2781.11097416044
-0.102343389682249,2781.12097416044
-0.0994933992599824,2781.13097416044
-0.0993227881649266,2781.14097416044
-0.100515962221144,2781.15097416044
-0.102347889417158,2781.16097416044
-0.104846335160623,2781.17097416044
-0.106833880593185,2781.18097416044
-0.109158565780696,2781.19097416044
-0.111425877931227,2781.20097416044
-0.113700426862606,2781.21097416044
-0.116357737662256,2781.22097416044
-0.118952124481556,2781.23097416044
-0.122475837087761,2781.24097416044
-0.128153140845983,2781.25097416044
-0.136350357171664,2781.26097416044
-0.147364689693271,2781.27097416044
-0.162068115149949,2781.28097416044
-0.17850467276942,2781.29097416044
-0.195813951096974,2781.30097416044
-0.21242095766857,2781.31097416044
-0.226642853874642,2781.32097416044
-0.238500168999682,2781.33097416044
-0.246977166281011,2781.34097416044
-0.253018675858926,2781.35097416044
-0.257128331010102,2781.36097416044
-0.259288107597598,2781.37097416044
-0.26028809057315,2781.38097416044
-0.260396766288969,2781.39097416044
-0.261045066094,2781.40097416044
-0.262536987805597,2781.41097416044
-0.265758700078469,2781.42097416044
-0.270515459149884,2781.43097416044
-0.276529935876705,2781.44097416044
-0.284162305270848,2781.45097416044
-0.292660853973479,2781.46097416044
-0.301721411340625,2781.47097416044
-0.311659755231385,2781.48097416044
-0.321876548608571,2781.49097416044
-0.331898497084369,2781.50097416044
-0.342547828498802,2781.51097416044
-0.353785892533034,2781.52097416044
-0.365681319235074,2781.53097416044
-0.377534535300382,2781.54097416044
-0.389867234228646,2781.55097416044
-0.402720200159513,2781.56097416044
-0.415558280338256,2781.57097416044
-0.427916309613565,2781.58097416044
-0.440636545024486,2781.59097416044
-0.452810262672557,2781.60097416044
-0.464271417072516,2781.61097416044
-0.475685367039872,2781.62097416044
-0.486520725702142,2781.63097416044
-0.49796311356599,2781.64097416044
-0.509438152143287,2781.65097416044
-0.520275522281234,2781.66097416044
-0.530600073204944,2781.67097416044
-0.539971721819711,2781.68097416044
-0.548940866572911,2781.69097416044
-0.558030091992947,2781.70097416044
-0.566928965647245,2781.71097416044
-0.576370288215572,2781.72097416044
-0.58628227025669,2781.73097416044
-0.596911590412535,2781.74097416044
-0.607616401407043,2781.75097416044
-0.618048259373146,2781.76097416044
-0.628429978195762,2781.77097416044
-0.638429042655949,2781.78097416044
-0.648348387870007,2781.79097416044
-0.658408987855831,2781.80097416044
-0.668042512980219,2781.81097416044
-0.677482932505535,2781.82097416044
-0.686214854936435,2781.83097416044
-0.694309308123831,2781.84097416044
-0.702682935412778,2781.85097416044
-0.711257349296422,2781.86097416044
-0.719427363039404,2781.87097416044
-0.727855635027203,2781.88097416044
-0.737120469061937,2781.89097416044
-0.746712468644727,2781.90097416044
-0.756163428170725,2781.91097416044
-0.765396199832996,2781.92097416044
-0.773945762935313,2781.93097416044
-0.782445476036594,2781.94097416044
-0.790793157338993,2781.95097416044
-0.798601273623104,2781.96097416044
-0.806204257714784,2781.97097416044
-0.812261056343354,2781.98097416044
-0.813480180046193,2781.99097416044
-0.807494070769667,2782.00097416044
-0.791898887378664,2782.01097416044
-0.766402754699694,2782.02097416044
-0.733031683722553,2782.03097416044
-0.694737347260952,2782.04097416044
-0.655926085535165,2782.05097416044
-0.619707337302939,2782.06097416044
-0.588221410011714,2782.07097416044
-0.562595177527118,2782.08097416044
-0.543449981958301,2782.09097416044
-0.530260299018442,2782.10097416044
-0.522129326927821,2782.11097416044
-0.518067858564605,2782.12097416044
-0.515979356778897,2782.13097416044
-0.514621018084574,2782.14097416044
-0.514042759949736,2782.15097416044
-0.513328534386346,2782.16097416044
-0.512233040359905,2782.17097416044
-0.510595722702181,2782.18097416044
-0.508390838272864,2782.19097416044
-0.506168591345517,2782.20097416044
-0.503408867721568,2782.21097416044
-0.500271227165365,2782.22097416044
-0.496932070220305,2782.23097416044
-0.493781908192826,2782.24097416044
-0.491893185466782,2782.25097416044
-0.492334098194756,2782.26097416044
-0.494864130818735,2782.27097416044
-0.499768572608555,2782.28097416044
-0.506701565992659,2782.29097416044
-0.515659427261337,2782.30097416044
-0.525345647364789,2782.31097416044
-0.534586856184168,2782.32097416044
-0.542235444850958,2782.33097416044
-0.54806701162293,2782.34097416044
-0.552125482834793,2782.35097416044
-0.554281947658409,2782.36097416044
-0.555400276540658,2782.37097416044
-0.555312926243454,2782.38097416044
-0.554505892904309,2782.39097416044
-0.553176458339036,2782.40097416044
-0.551877429193918,2782.41097416044
-0.550839884022263,2782.42097416044
-0.550298009436758,2782.43097416044
-0.55046084700481,2782.44097416044
-0.550964440586554,2782.45097416044
-0.5528539587187,2782.46097416044
-0.556007880358148,2782.47097416044
-0.560613154573147,2782.48097416044
-0.566054393190317,2782.49097416044
-0.572135245461149,2782.50097416044
-0.578491863982677,2782.51097416044
-0.584931014422549,2782.52097416044
-0.591216572051921,2782.53097416044
-0.598103458584436,2782.54097416044
-0.60479533245708,2782.55097416044
-0.612048629684312,2782.56097416044
-0.619491383453252,2782.57097416044
-0.626907419296348,2782.58097416044
-0.633980565273992,2782.59097416044
-0.641115978292684,2782.60097416044
-0.648291037297437,2782.61097416044
-0.655490456071887,2782.62097416044
-0.662486643199702,2782.63097416044
-0.669371317651056,2782.64097416044
-0.676261230264444,2782.65097416044
-0.682799255286364,2782.66097416044
-0.68870823884925,2782.67097416044
-0.69482929062522,2782.68097416044
-0.701259129602498,2782.69097416044
-0.707776908442441,2782.70097416044
-0.713908536927742,2782.71097416044
-0.720077505597541,2782.72097416044
-0.725330735854743,2782.73097416044
-0.73091471504579,2782.74097416044
-0.73639794606045,2782.75097416044
-0.741539272661688,2782.76097416044
-0.746722763612009,2782.77097416044
-0.751691370877026,2782.78097416044
-0.756039780820572,2782.79097416044
-0.761058455357496,2782.80097416044
-0.766598690514684,2782.81097416044
-0.772531717334343,2782.82097416044
-0.778672029613646,2782.83097416044
-0.78502936160435,2782.84097416044
-0.790640661921429,2782.85097416044
-0.79595959721593,2782.86097416044
-0.800419376831654,2782.87097416044
-0.803938023884577,2782.88097416044
-0.807615504213561,2782.89097416044
-0.811230133545414,2782.90097416044
-0.815728705892236,2782.91097416044
-0.820575888705073,2782.92097416044
-0.825942908887797,2782.93097416044
-0.831269048638394,2782.94097416044
-0.837405202651293,2782.95097416044
-0.843495244997613,2782.96097416044
-0.849305215449119,2782.97097416044
-0.855251341176395,2782.98097416044
-0.86074164349394,2782.99097416044
-0.866115049905978,2783.00097416044
-0.871268060950019,2783.01097416044
-0.876178811306903,2783.02097416044
-0.881522266754358,2783.03097416044
-0.886557545269805,2783.04097416044
-0.89152474403246,2783.05097416044
-0.896430591284296,2783.06097416044
-0.901212260650923,2783.07097416044
-0.906328168919675,2783.08097416044
-0.911273328098178,2783.09097416044
-0.916516091141108,2783.10097416044
-0.92092883517537,2783.11097416044
-0.925269625858051,2783.12097416044
-0.929544283243271,2783.13097416044
-0.933697243430275,2783.14097416044
-0.937714427619865,2783.15097416044
-0.942082541181132,2783.16097416044
-0.94688751307064,2783.17097416044
-0.951230759609419,2783.18097416044
-0.955773637626066,2783.19097416044
-0.960448264349209,2783.20097416044
-0.964830332987948,2783.21097416044
-0.968734583171771,2783.22097416044
-0.970790821649827,2783.23097416044
-0.969618527063166,2783.24097416044
-0.961815196159145,2783.25097416044
-0.945669708954136,2783.26097416044
-0.921523678974488,2783.27097416044
-0.889655553874706,2783.28097416044
-0.853374922432219,2783.29097416044
-0.815128450112089,2783.30097416044
-0.778197444862434,2783.31097416044
-0.744186577570099,2783.32097416044
-0.715188415917998,2783.33097416044
-0.691391120679921,2783.34097416044
-0.672897585763745,2783.35097416044
-0.65809661572342,2783.36097416044
-0.646803658638564,2783.37097416044
-0.63754432970599,2783.38097416044
-0.629580584575624,2783.39097416044
-0.622506634860503,2783.40097416044
-0.615877476405483,2783.41097416044
-0.609248091480854,2783.42097416044
-0.602031001031874,2783.43097416044
-0.59519640643069,2783.44097416044
-0.588025433579984,2783.45097416044
-0.580595811933543,2783.46097416044
-0.573228748439963,2783.47097416044
-0.564967787298744,2783.48097416044
-0.55654685378975,2783.49097416044
-0.547841966856378,2783.50097416044
-0.539697710959529,2783.51097416044
-0.53256683777233,2783.52097416044
-0.527766050494582,2783.53097416044
-0.525110299671446,2783.54097416044
-0.524846761019812,2783.55097416044
-0.525925150300433,2783.56097416044
-0.527920294077378,2783.57097416044
-0.530307380951147,2783.58097416044
-0.53134118917579,2783.59097416044
-0.53094289032959,2783.60097416044
-0.528688875568356,2783.61097416044
-0.524865111093622,2783.62097416044
-0.52011211724503,2783.63097416044
-0.514923447697315,2783.64097416044
-0.509255102423339,2783.65097416044
-0.503474337674978,2783.66097416044
-0.497492353095849,2783.67097416044
-0.491733587514878,2783.68097416044
-0.486552731159192,2783.69097416044
-0.482240266249853,2783.70097416044
-0.478840843155588,2783.71097416044
-0.476082233138272,2783.72097416044
-0.474329243670358,2783.73097416044
-0.47313862903946,2783.74097416044
-0.473846127015745,2783.75097416044
-0.475250474416767,2783.76097416044
-0.477369643166152,2783.77097416044
-0.47974045193554,2783.78097416044
-0.481880868635603,2783.79097416044
-0.48381270753381,2783.80097416044
-0.485866948913965,2783.81097416044
-0.488238440130821,2783.82097416044
-0.49117231843729,2783.83097416044
-0.494228389236065,2783.84097416044
-0.4983791084003,2783.85097416044
-0.502710108209237,2783.86097416044
-0.507404071992008,2783.87097416044
-0.511516644507067,2783.88097416044
-0.515245173977603,2783.89097416044
-0.518677282828082,2783.90097416044
-0.521514917510934,2783.91097416044
-0.523938287424082,2783.92097416044
-0.525681284318378,2783.93097416044
-0.527796197211106,2783.94097416044
-0.529940652137454,2783.95097416044
-0.53211916371091,2783.96097416044
-0.534467756083633,2783.97097416044
-0.53686976594657,2783.98097416044
-0.539036100982061,2783.99097416044
-0.541981799159294,2784.00097416044
-0.545069857823244,2784.01097416044
-0.548529361086458,2784.02097416044
-0.551204207537051,2784.03097416044
-0.553468427278473,2784.04097416044
-0.555496361731012,2784.05097416044
-0.557568413317308,2784.06097416044
-0.560104297703188,2784.07097416044
-0.562824316071764,2784.08097416044
-0.565978520198359,2784.09097416044
-0.569570111839765,2784.10097416044
-0.573015858660946,2784.11097416044
-0.576758607153956,2784.12097416044
-0.580077945459969,2784.13097416044
-0.582679583285811,2784.14097416044
-0.585080357535273,2784.15097416044
-0.587471865137874,2784.16097416044
-0.589929783715929,2784.17097416044
-0.593048399551191,2784.18097416044
-0.596265257511148,2784.19097416044
-0.599776566773911,2784.20097416044
-0.602893821161474,2784.21097416044
-0.605665869502697,2784.22097416044
-0.608856024757784,2784.23097416044
-0.612133216190076,2784.24097416044
-0.615944670265431,2784.25097416044
-0.619915715940292,2784.26097416044
-0.62400986974781,2784.27097416044
-0.627481797767449,2784.28097416044
-0.630930107576514,2784.29097416044
-0.634263854799672,2784.30097416044
-0.637435221618229,2784.31097416044
-0.640764035521922,2784.32097416044
-0.644569236133518,2784.33097416044
-0.648216926143577,2784.34097416044
-0.651949391395962,2784.35097416044
-0.655580384116959,2784.36097416044
-0.658985247540143,2784.37097416044
-0.663153284596794,2784.38097416044
-0.667447305645018,2784.39097416044
-0.671890815057525,2784.40097416044
-0.675385114711062,2784.41097416044
-0.676271227301029,2784.42097416044
-0.672206461910083,2784.43097416044
-0.660626127380602,2784.44097416044
-0.640035270608816,2784.45097416044
-0.610022882080658,2784.46097416044
-0.572663698377248,2784.47097416044
-0.530154713586601,2784.48097416044
-0.485303431953258,2784.49097416044
-0.441983556466356,2784.50097416044
-0.40219892609341,2784.51097416044
-0.367013139289427,2784.52097416044
-0.338456394415918,2784.53097416044
-0.315141823871347,2784.54097416044
-0.296732814175029,2784.55097416044
-0.28268210276824,2784.56097416044
-0.271918261716637,2784.57097416044
-0.263597635069635,2784.58097416044
-0.25688091874653,2784.59097416044
-0.250743390449633,2784.60097416044
-0.244260406839005,2784.61097416044
-0.237437730550778,2784.62097416044
-0.230015190536723,2784.63097416044
-0.222353276613735,2784.64097416044
-0.215191095333756,2784.65097416044
-0.208828354879532,2784.66097416044
-0.202464689917315,2784.67097416044
-0.195730723307612,2784.68097416044
-0.188715524664123,2784.69097416044
-0.182496240120637,2784.70097416044
-0.177947521766466,2784.71097416044
-0.175857568779767,2784.72097416044
-0.177289532785269,2784.73097416044
-0.180339658428404,2784.74097416044
-0.18409366706213,2784.75097416044
-0.187537139458515,2784.76097416044
-0.189498060317863,2784.77097416044
-0.189893817345508,2784.78097416044
-0.188764782255147,2784.79097416044
-0.18549471823919,2784.80097416044
-0.180793011459941,2784.81097416044
-0.17557394190339,2784.82097416044
-0.169590326972416,2784.83097416044
-0.162913212899703,2784.84097416044
-0.156684742159702,2784.85097416044
-0.150544563759458,2784.86097416044
-0.145340152397833,2784.87097416044
-0.141521744483644,2784.88097416044
-0.138969936239769,2784.89097416044
-0.137421484894278,2784.90097416044
-0.136950432798835,2784.91097416044
-0.137736866071362,2784.92097416044
-0.139109378224102,2784.93097416044
-0.140838288078945,2784.94097416044
-0.143103713571632,2784.95097416044
-0.145578967104333,2784.96097416044
-0.148661353401743,2784.97097416044
-0.152695198647825,2784.98097416044
-0.157245034013348,2784.99097416044
-0.162158176942637,2785.00097416044
-0.167718244753468,2785.01097416044
-0.173474009804879,2785.02097416044
-0.17898973452788,2785.03097416044
-0.184533983291932,2785.04097416044
-0.18953920006179,2785.05097416044
-0.194790794682945,2785.06097416044
-0.199965078794422,2785.07097416044
-0.205417797977226,2785.08097416044
-0.210622029372764,2785.09097416044
-0.215572573524388,2785.10097416044
-0.220101926739876,2785.11097416044
-0.224602006526486,2785.12097416044
-0.228931907064489,2785.13097416044
-0.233457434598832,2785.14097416044
-0.238384379843293,2785.15097416044
-0.242867389010724,2785.16097416044
-0.24765830002357,2785.17097416044
-0.252160804689885,2785.18097416044
-0.25677234713117,2785.19097416044
-0.26154771831192,2785.20097416044
-0.266373690480475,2785.21097416044
-0.271125382916744,2785.22097416044
-0.27570029511977,2785.23097416044
-0.280538731478464,2785.24097416044
-0.285222908543587,2785.25097416044
-0.28980032508662,2785.26097416044
-0.294442145065421,2785.27097416044
-0.299115161323871,2785.28097416044
-0.303887506601687,2785.29097416044
-0.309206802106915,2785.30097416044
-0.314458503650975,2785.31097416044
-0.319694298309421,2785.32097416044
-0.324268487108413,2785.33097416044
-0.328714587652636,2785.34097416044
-0.333143682948522,2785.35097416044
-0.337233408872531,2785.36097416044
-0.341605429902996,2785.37097416044
-0.346179410270014,2785.38097416044
-0.351059027747621,2785.39097416044
-0.355826669285685,2785.40097416044
-0.361404831453256,2785.41097416044
-0.366531499346637,2785.42097416044
-0.37198165533144,2785.43097416044
-0.377448340403,2785.44097416044
-0.383199473715459,2785.45097416044
-0.388772485844956,2785.46097416044
-0.394641536679108,2785.47097416044
-0.399762262892974,2785.48097416044
-0.404912553619002,2785.49097416044
-0.410502745794728,2785.50097416044
-0.415854839595366,2785.51097416044
-0.421677065541813,2785.52097416044
-0.426740441397678,2785.53097416044
-0.430615898108891,2785.54097416044
-0.430932553740362,2785.55097416044
-0.424883890094424,2785.56097416044
-0.410100029538968,2785.57097416044
-0.38496686111583,2785.58097416044
-0.349820908932767,2785.59097416044
-0.306564396500096,2785.60097416044
-0.258351069943539,2785.61097416044
-0.208143157375982,2785.62097416044
-0.160258068526807,2785.63097416044
-0.116605465901706,2785.64097416044
-0.0794256435442227,2785.65097416044
-0.049215990787139,2785.66097416044
-0.0258681441201633,2785.67097416044
-0.00867958940578497,2785.68097416044
0.00390360008606839,2785.69097416044
0.012805295488102,2785.70097416044
0.0195338568889957,2785.71097416044
0.0248907288066169,2785.72097416044
0.0294615214028837,2785.73097416044
0.0337406224998364,2785.74097416044
0.0379750151811868,2785.75097416044
0.0425943597174583,2785.76097416044
0.0473300029190929,2785.77097416044
0.052217831675762,2785.78097416044
0.0576077166051981,2785.79097416044
0.0632064817430671,2785.80097416044
0.0683627222374394,2785.81097416044
0.0733299140625995,2785.82097416044
0.077624132454239,2785.83097416044
0.0799273722669267,2785.84097416044
0.0790250440961287,2785.85097416044
0.0750967572563184,2785.86097416044
0.0689845205657115,2785.87097416044
0.060855209999128,2785.88097416044
0.0525139836512713,2785.89097416044
0.0451805034298179,2785.90097416044
0.0396674625833212,2785.91097416044
0.0350451941094889,2785.92097416044
0.0325701649866864,2785.93097416044
0.0314062070091433,2785.94097416044
0.0313944721003698,2785.95097416044
0.0327588773648185,2785.96097416044
0.0352928682548527,2785.97097416044
0.0382246591150402,2785.98097416044
0.0406758821117234,2785.99097416044
0.042375959249531,2786.00097416044
0.0434627002640469,2786.01097416044
0.0432452733708065,2786.02097416044
0.0419065743747721,2786.03097416044
0.038757608055668,2786.04097416044
0.0341307704599316,2786.05097416044
0.0286149561931436,2786.06097416044
0.0225151591097497,2786.07097416044
0.0154634478147902,2786.08097416044
0.00810728954124218,2786.09097416044
0.000568846853819376,2786.10097416044
-0.0075615310342573,2786.11097416044
-0.0159173204081024,2786.12097416044
-0.0243280910890375,2786.13097416044
-0.032045237650883,2786.14097416044
-0.0405158886172403,2786.15097416044
-0.048642958048813,2786.16097416044
-0.0572131467610383,2786.17097416044
-0.0660455390758377,2786.18097416044
-0.0746995612940886,2786.19097416044
-0.0830160741700426,2786.20097416044
-0.091299097780966,2786.21097416044
-0.0995637161959433,2786.22097416044
-0.107933780712149,2786.23097416044
-0.116647747264543,2786.24097416044
-0.125292786440242,2786.25097416044
-0.134165060194009,2786.26097416044
-0.143411856187732,2786.27097416044
-0.152404006284446,2786.28097416044
-0.161544214156869,2786.29097416044
-0.170057569194919,2786.30097416044
-0.177991409731602,2786.31097416044
-0.185710259931918,2786.32097416044
-0.192982506721493,2786.33097416044
-0.200377069884886,2786.34097416044
-0.207840141310805,2786.35097416044
-0.21551131478693,2786.36097416044
-0.223323362185331,2786.37097416044
-0.231514645517629,2786.38097416044
-0.239247486753233,2786.39097416044
-0.24662434152917,2786.40097416044
-0.253905856300831,2786.41097416044
-0.260864396204015,2786.42097416044
-0.267677216584896,2786.43097416044
-0.274113119057286,2786.44097416044
-0.281165932675592,2786.45097416044
-0.28810995559327,2786.46097416044
-0.295019797074713,2786.47097416044
-0.302627471049288,2786.48097416044
-0.310125943488034,2786.49097416044
-0.317200440197271,2786.50097416044
-0.3243382253758,2786.51097416044
-0.331000227912272,2786.52097416044
-0.337891987218637,2786.53097416044
-0.345102991690726,2786.54097416044
-0.352252217704325,2786.55097416044
-0.359868600819972,2786.56097416044
-0.367873858780405,2786.57097416044
-0.376354110515451,2786.58097416044
-0.38502946648575,2786.59097416044
-0.393682217081646,2786.60097416044
-0.40136437322231,2786.61097416044
-0.408561204915125,2786.62097416044
-0.415385690583518,2786.63097416044
-0.422287748360451,2786.64097416044
-0.429254515065178,2786.65097416044
-0.436510682916223,2786.66097416044
-0.443706452774376,2786.67097416044
-0.450829791081967,2786.68097416044
-0.457903786801527,2786.69097416044
-0.465174318520779,2786.70097416044
-0.472955148089733,2786.71097416044
-0.480293602931934,2786.72097416044
-0.487811540006819,2786.73097416044
-0.494945411752427,2786.74097416044
-0.499898235284679,2786.75097416044
-0.501566246473463,2786.76097416044
-0.496738466742222,2786.77097416044
-0.482745975670725,2786.78097416044
-0.457416266007038,2786.79097416044
-0.420357632091169,2786.80097416044
-0.372925697142548,2786.81097416044
-0.319485373058713,2786.82097416044
-0.264030962044801,2786.83097416044
-0.2094833481127,2786.84097416044
-0.159376027209211,2786.85097416044
-0.115279215832048,2786.86097416044
-0.078589483137098,2786.87097416044
-0.0492644153900846,2786.88097416044
-0.0272256444506623,2786.89097416044
-0.0114119553848433,2786.90097416044
-0.00109366300534236,2786.91097416044
0.00551174452831355,2786.92097416044
0.00994593028728995,2786.93097416044
0.012662982719416,2786.94097416044
0.0151517737764217,2786.95097416044
0.0168898151592594,2786.96097416044
0.0190542360766526,2786.97097416044
0.0212465886893341,2786.98097416044
0.02363413147186,2786.99097416044
0.0269148776433789,2787.00097416044
0.031307764309768,2787.01097416044
0.0362822061746728,2787.02097416044
0.0409786673278559,2787.03097416044
0.0458133452163888,2787.04097416044
0.0493049619823368,2787.05097416044
0.0506039211962348,2787.06097416044
0.0487588745114737,2787.07097416044
0.0439219334445039,2787.08097416044
0.0367867298205115,2787.09097416044
0.0277977729578929,2787.10097416044
0.0193680498086647,2787.11097416044
0.0116705077316044,2787.12097416044
0.00544491042029557,2787.13097416044
0.00101929161417237,2787.14097416044
-0.00166731091157377,2787.15097416044
-0.0022675653727356,2787.16097416044
-0.00165218841598525,2787.17097416044
-0.000193698055834102,2787.18097416044
0.00134180908059049,2787.19097416044
0.00290558098900397,2787.20097416044
0.00414666041141108,2787.21097416044
0.00509114144119762,2787.22097416044
0.00517381128105002,2787.23097416044
0.00465236673325552,2787.24097416044
0.00296139080045973,2787.25097416044
0.000166802485060556,2787.26097416044
-0.00403501093959517,2787.27097416044
-0.0100410045906537,2787.28097416044
-0.0170656176695543,2787.29097416044
-0.0257236408786056,2787.30097416044
-0.0343422196494516,2787.31097416044
-0.0431551497486465,2787.32097416044
-0.052190698456366,2787.33097416044
-0.0611111437875677,2787.34097416044
-0.0707530937400546,2787.35097416044
-0.0798160587870234,2787.36097416044
-0.0888642689995287,2787.37097416044
-0.0978821552724043,2787.38097416044
-0.106423176380299,2787.39097416044
-0.114971607188777,2787.40097416044
-0.123368887292978,2787.41097416044
-0.131746489191321,2787.42097416044
-0.14008132614978,2787.43097416044
-0.148109967393359,2787.44097416044
-0.15721060157255,2787.45097416044
-0.1664287867474,2787.46097416044
-0.175680315007119,2787.47097416044
-0.184839690144653,2787.48097416044
-0.193071258148834,2787.49097416044
-0.200913944176626,2787.50097416044
-0.208146649889678,2787.51097416044
-0.215196757453781,2787.52097416044
-0.222343334146666,2787.53097416044
-0.229625145266826,2787.54097416044
-0.236343788210392,2787.55097416044
-0.242843412799903,2787.56097416044
-0.249247079937367,2787.57097416044
-0.256083346321143,2787.58097416044
-0.262671516271506,2787.59097416044
-0.269387647151846,2787.60097416044
-0.275732760063799,2787.61097416044
-0.280984379284629,2787.62097416044
-0.285861162999466,2787.63097416044
-0.290923268900746,2787.64097416044
-0.296211687906284,2787.65097416044
-0.301614337448272,2787.66097416044
-0.30728271780623,2787.67097416044
-0.313215984633867,2787.68097416044
-0.319102933609353,2787.69097416044
-0.325334155278494,2787.70097416044
-0.331294966165036,2787.71097416044
-0.337335777666746,2787.72097416044
-0.343830634295675,2787.73097416044
-0.350479465579353,2787.74097416044
-0.357215724971,2787.75097416044
-0.364088378124168,2787.76097416044
-0.37111782532608,2787.77097416044
-0.377678291676285,2787.78097416044
-0.384075612218334,2787.79097416044
-0.390124834009008,2787.80097416044
-0.396312506878302,2787.81097416044
-0.402282254169971,2787.82097416044
-0.408181365273,2787.83097416044
-0.41402088698425,2787.84097416044
-0.41975850942095,2787.85097416044
-0.426112311186317,2787.86097416044
-0.432522844394912,2787.87097416044
-0.439269809903014,2787.88097416044
-0.446589454382618,2787.89097416044
-0.453414400849295,2787.90097416044
-0.459633416718375,2787.91097416044
-0.465504702138182,2787.92097416044
-0.470514145186336,2787.93097416044
-0.472889594463857,2787.94097416044
-0.47046273407551,2787.95097416044
-0.459607621382906,2787.96097416044
-0.436559690185257,2787.97097416044
-0.400374660632113,2787.98097416044
-0.351631611573659,2787.99097416044
-0.293539357443872,2788.00097416044
-0.229814268013149,2788.01097416044
-0.164573023503086,2788.02097416044
-0.10111332620413,2788.03097416044
-0.0421241742889885,2788.04097416044
0.0103263096838958,2788.05097416044
0.0543126675967322,2788.06097416044
0.0894224093594525,2788.07097416044
0.116799875288294,2788.08097416044
0.136580251192574,2788.09097416044
0.151334101018048,2788.10097416044
0.161981744235796,2788.11097416044
0.169799415580973,2788.12097416044
0.175534167922891,2788.13097416044
0.180311457754641,2788.14097416044
0.184734600759008,2788.15097416044
0.189471777470443,2788.16097416044
0.19431214734192,2788.17097416044
0.199568223003041,2788.18097416044
0.205652398476862,2788.19097416044
0.212576495501793,2788.20097416044
0.219677338170732,2788.21097416044
0.226874172591047,2788.22097416044
0.233166040102737,2788.23097416044
0.237067884380673,2788.24097416044
0.237731186788438,2788.25097416044
0.235102660990102,2788.26097416044
0.228537944539276,2788.27097416044
0.219649604651768,2788.28097416044
0.209558617302187,2788.29097416044
0.199762634535943,2788.30097416044
0.191326428248711,2788.31097416044
0.185284391248564,2788.32097416044
0.181792699410546,2788.33097416044
0.181074546754552,2788.34097416044
0.182239580840029,2788.35097416044
0.184993480585246,2788.36097416044
0.188370136264168,2788.37097416044
0.191444058057439,2788.38097416044
0.19484448298074,2788.39097416044
0.197978158953747,2788.40097416044
0.200772340614998,2788.41097416044
0.202192920314321,2788.42097416044
0.201268540485895,2788.43097416044
0.199472718083328,2788.44097416044
0.196229125180437,2788.45097416044
0.191788751147938,2788.46097416044
0.186420162673491,2788.47097416044
0.179931081355135,2788.48097416044
0.173161573360663,2788.49097416044
0.166159229657388,2788.50097416044
0.158336877998048,2788.51097416044
0.150432448556389,2788.52097416044
0.141836344250815,2788.53097416044
0.133002722332886,2788.54097416044
0.123287854072066,2788.55097416044
0.112858523994132,2788.56097416044
0.102886479975846,2788.57097416044
0.0928558739888797,2788.58097416044
0.0833303433565921,2788.59097416044
0.0737355952792451,2788.60097416044
0.0635516627646803,2788.61097416044
0.0537950500314252,2788.62097416044
0.0442813591720891,2788.63097416044
0.0347920397086922,2788.64097416044
0.0256853438704245,2788.65097416044
0.0169799712634571,2788.66097416044
0.00882189462119144,2788.67097416044
0.000622029953513922,2788.68097416044
-0.00686867156868948,2788.69097416044
-0.0142465577435608,2788.70097416044
-0.0218882707750833,2788.71097416044
-0.0298029104120438,2788.72097416044
-0.0374332593056989,2788.73097416044
-0.044714897291665,2788.74097416044
-0.0519983823192675,2788.75097416044
-0.0595022869239216,2788.76097416044
-0.0671979576777764,2788.77097416044
-0.074548024023208,2788.78097416044
-0.0815451877316878,2788.79097416044
-0.0873884092479021,2788.80097416044
-0.0932435307841339,2788.81097416044
-0.0989081784915858,2788.82097416044
-0.104471341831745,2788.83097416044
-0.110156966244318,2788.84097416044
-0.116231320204573,2788.85097416044
-0.122200009710857,2788.86097416044
-0.12849165503087,2788.87097416044
-0.135185011561303,2788.88097416044
-0.142230453198011,2788.89097416044
-0.149644425974303,2788.90097416044
-0.15684886271092,2788.91097416044
-0.164029898350492,2788.92097416044
-0.170933619287741,2788.93097416044
-0.177766271727406,2788.94097416044
-0.18447366822775,2788.95097416044
-0.191881318982944,2788.96097416044
-0.19961248123451,2788.97097416044
-0.207279910497214,2788.98097416044
-0.214039331351936,2788.99097416044
-0.220475582830312,2789.00097416044
-0.226384202528987,2789.01097416044
-0.232414643282004,2789.02097416044
-0.237652318299164,2789.03097416044
-0.242878125435258,2789.04097416044
-0.248218692738082,2789.05097416044
-0.254304401203207,2789.06097416044
-0.26008784322532,2789.07097416044
-0.264584385977888,2789.08097416044
-0.265352591320322,2789.09097416044
-0.258545789024437,2789.10097416044
-0.240541877240924,2789.11097416044
-0.208432336366304,2789.12097416044
-0.162366197164834,2789.13097416044
-0.102881712029034,2789.14097416044
-0.0341669128001231,2789.15097416044
0.0400583144800367,2789.16097416044
0.114791556535171,2789.17097416044
0.187077307472914,2789.18097416044
0.252332112497614,2789.19097416044
0.307785630370031,2789.20097416044
0.352245550401279,2789.21097416044
0.385522877218556,2789.22097416044
0.408232709894556,2789.23097416044
0.422173688745626,2789.24097416044
0.429414936942185,2789.25097416044
0.43190874798277,2789.26097416044
0.43124230415428,2789.27097416044
0.429316415593799,2789.28097416044
0.427250587087515,2789.29097416044
0.425326662736068,2789.30097416044
0.423987804327629,2789.31097416044
0.423621107888364,2789.32097416044
0.424488949379071,2789.33097416044
0.425704324924309,2789.34097416044
0.427155727674172,2789.35097416044
0.42864942553577,2789.36097416044
0.429459567523238,2789.37097416044
0.428668717217672,2789.38097416044
0.425230469002837,2789.39097416044
0.418001615867477,2789.40097416044
0.407555884274562,2789.41097416044
0.394812139725364,2789.42097416044
0.380855615423351,2789.43097416044
0.368249139782042,2789.44097416044
0.358285668759666,2789.45097416044
0.351852296776134,2789.46097416044
0.348499420093638,2789.47097416044
0.348458202894697,2789.48097416044
0.350350395476851,2789.49097416044
0.354402714769732,2789.50097416044
0.35939560989742,2789.51097416044
0.364968484338368,2789.52097416044
0.370598264201406,2789.53097416044
0.375335828342782,2789.54097416044
0.378871883550009,2789.55097416044
0.379660745403463,2789.56097416044
0.378399555298778,2789.57097416044
0.374533911333359,2789.58097416044
0.368645261777395,2789.59097416044
0.361694508880882,2789.60097416044
0.354291729197485,2789.61097416044
0.345910534961891,2789.62097416044
0.336863486395038,2789.63097416044
0.327142303352314,2789.64097416044
0.316704502674399,2789.65097416044
0.306041302562497,2789.66097416044
0.29478880095126,2789.67097416044
0.283995473844697,2789.68097416044
0.272546740354521,2789.69097416044
0.261607768736477,2789.70097416044
0.250516849916451,2789.71097416044
0.239241762137987,2789.72097416044
0.22778769357661,2789.73097416044
0.216461550429044,2789.74097416044
0.204936773247111,2789.75097416044
0.193814015836608,2789.76097416044
0.182744988331114,2789.77097416044
0.172516986827605,2789.78097416044
0.162971771223554,2789.79097416044
0.153692488019134,2789.80097416044
0.144649408872634,2789.81097416044
0.135472687108597,2789.82097416044
0.127011181657351,2789.83097416044
0.118239759273307,2789.84097416044
0.109406576609058,2789.85097416044
0.100432607013974,2789.86097416044
0.0910895333661671,2789.87097416044
0.0815205991006315,2789.88097416044
0.072466429852705,2789.89097416044
0.0634845886847357,2789.90097416044
0.0550016599495496,2789.91097416044
0.0469080997537222,2789.92097416044
0.0400374741047627,2789.93097416044
0.033229062992696,2789.94097416044
0.0263393781127631,2789.95097416044
0.0192087700680574,2789.96097416044
0.0118340749372946,2789.97097416044
0.00371973758295395,2789.98097416044
-0.00407034005151266,2789.99097416044
-0.0117449205248658,2790.00097416044
-0.0192071498930752,2790.01097416044
-0.0267330759469953,2790.02097416044
-0.033972561592756,2790.03097416044
-0.0409425468765562,2790.04097416044
-0.048522456817566,2790.05097416044
-0.0558111013886502,2790.06097416044
-0.0632757846104477,2790.07097416044
-0.070610567867261,2790.08097416044
-0.0783601126856396,2790.09097416044
-0.0861610220862826,2790.10097416044
-0.0937462197791215,2790.11097416044
-0.101673888147085,2790.12097416044
-0.109384694125401,2790.13097416044
-0.117785543333264,2790.14097416044
-0.124647085048509,2790.15097416044
-0.129942721406945,2790.16097416044
-0.131029610495258,2790.17097416044
-0.124813772459862,2790.18097416044
-0.10673341157444,2790.19097416044
-0.0735146252062938,2790.20097416044
-0.0232334262004283,2790.21097416044
0.0422284710776615,2790.22097416044
0.119726485039037,2790.23097416044
0.204646988014288,2790.24097416044
0.290602056425495,2790.25097416044
0.372768995419242,2790.26097416044
0.445927688800053,2790.27097416044
0.507896267075532,2790.28097416044
0.556282251325809,2790.29097416044
0.590893529936262,2790.30097416044
0.613692030012601,2790.31097416044
0.626699490225667,2790.32097416044
0.632129354955362,2790.33097416044
0.632502179678706,2790.34097416044
0.629846364571974,2790.35097416044
0.627160224152882,2790.36097416044
0.624675918807008,2790.37097416044
0.623800870427212,2790.38097416044
0.623680737933562,2790.39097416044
0.623845944746065,2790.40097416044
0.625350072691622,2790.41097416044
0.626796008974943,2790.42097416044
0.629016004135367,2790.43097416044
0.631308540934416,2790.44097416044
0.63242363850348,2790.45097416044
0.632059282093133,2790.46097416044
0.627854116200353,2790.47097416044
0.619494351834514,2790.48097416044
0.606637243888662,2790.49097416044
0.59028587324277,2790.50097416044
0.572278034915008,2790.51097416044
0.554543328013942,2790.52097416044
0.538831704568618,2790.53097416044
0.526538788361621,2790.54097416044
0.51816327586093,2790.55097416044
0.51329728043586,2790.56097416044
0.51090728037566,2790.57097416044
0.510917333402839,2790.58097416044
0.512563450911453,2790.59097416044
0.51484672965261,2790.60097416044
0.517600180066809,2790.61097416044
0.519351096673695,2790.62097416044
0.519449708470272,2790.63097416044
0.517450651895662,2790.64097416044
0.514220578956904,2790.65097416044
0.509410707830012,2790.66097416044
0.503474544971999,2790.67097416044
0.495833598762957,2790.68097416044
0.486718740057056,2790.69097416044
0.475594308506243,2790.70097416044
0.463293642610582,2790.71097416044
0.450648865876484,2790.72097416044
0.437670529118749,2790.73097416044
0.424338069866439,2790.74097416044
0.410608941990215,2790.75097416044
0.397245689121558,2790.76097416044
0.38397598450254,2790.77097416044
0.371204214186574,2790.78097416044
0.359212735912471,2790.79097416044
0.346699430203976,2790.80097416044
0.333640488290977,2790.81097416044
0.320379680826204,2790.82097416044
0.306654245790669,2790.83097416044
0.293719471549305,2790.84097416044
0.280806929143347,2790.85097416044
0.268304224304765,2790.86097416044
0.256163427027488,2790.87097416044
0.244630861866957,2790.88097416044
0.233461107669748,2790.89097416044
0.222395886325147,2790.90097416044
0.212634203527832,2790.91097416044
0.2024372173891,2790.92097416044
0.192235132370261,2790.93097416044
0.181886783232511,2790.94097416044
0.171492951266471,2790.95097416044
0.161750218859565,2790.96097416044
0.152733345812216,2790.97097416044
0.14438256974678,2790.98097416044
0.135767735028582,2790.99097416044
0.128256352835813,2791.00097416044
0.119850245654652,2791.01097416044
0.111214678447268,2791.02097416044
0.102810028770436,2791.03097416044
0.094121759466406,2791.04097416044
0.0852398684019098,2791.05097416044
0.0775070939257985,2791.06097416044
0.0693928371414991,2791.07097416044
0.0613065668007379,2791.08097416044
0.0518979360327434,2791.09097416044
0.0421144679862004,2791.10097416044
0.0321604096278704,2791.11097416044
0.0229143255361319,2791.12097416044
0.0138349129165949,2791.13097416044
0.00502163876421075,2791.14097416044
-0.00369189627514971,2791.15097416044
-0.0125309632387928,2791.16097416044
-0.021781888860608,2791.17097416044
-0.0315868861886562,2791.18097416044
-0.0412071215992762,2791.19097416044
-0.0499299650201695,2791.20097416044
-0.0579724307806065,2791.21097416044
-0.065629716446224,2791.22097416044
-0.073355179851827,2791.23097416044
-0.0824702246774943,2791.24097416044
-0.0915545910745212,2791.25097416044
-0.100582843847349,2791.26097416044
-0.109650505448029,2791.27097416044
-0.118652523286037,2791.28097416044
-0.126978770584635,2791.29097416044
-0.13328789252901,2791.30097416044
-0.135023633803268,2791.31097416044
-0.12742155327686,2791.32097416044
-0.106235364882907,2791.33097416044
-0.0674320326498867,2791.34097416044
-0.0101162052433375,2791.35097416044
0.0638224299045798,2791.36097416044
0.150153752620972,2791.37097416044
0.242579870637239,2791.38097416044
0.335033500535822,2791.39097416044
0.421530995251145,2791.40097416044
0.496855702394235,2791.41097416044
0.558401022665745,2791.42097416044
0.605983806227458,2791.43097416044
0.641089082521446,2791.44097416044
0.663567703052867,2791.45097416044
0.676627994116891,2791.46097416044
0.68301080849533,2791.47097416044
0.685436900749808,2791.48097416044
0.686351854418414,2791.49097416044
0.687374000161049,2791.50097416044
0.689346086189451,2791.51097416044
0.691007601078556,2791.52097416044
0.692148865480491,2791.53097416044
0.693550647001272,2791.54097416044
0.695043037388557,2791.55097416044
0.697120197612506,2791.56097416044
0.699056871777844,2791.57097416044
0.699596357022826,2791.58097416044
0.697125328638791,2791.59097416044
0.691864753571431,2791.60097416044
0.683128438586284,2791.61097416044
0.670758327729344,2791.62097416044
0.654308995413983,2791.63097416044
0.634540613782654,2791.64097416044
0.612734238090431,2791.65097416044
0.592029989888715,2791.66097416044
0.573885316531264,2791.67097416044
0.560340635149023,2791.68097416044
0.551249188563558,2791.69097416044
0.545859286551536,2791.70097416044
0.543856137993827,2791.71097416044
0.544032375881365,2791.72097416044
0.546091852350585,2791.73097416044
0.549615686002753,2791.74097416044
0.553473805518439,2791.75097416044
0.55655677404249,2791.76097416044
0.558240696172826,2791.77097416044
0.557685768821492,2791.78097416044
0.554543492258659,2791.79097416044
0.548947943937867,2791.80097416044
0.540615366396868,2791.81097416044
0.529884541707646,2791.82097416044
0.516755990950739,2791.83097416044
0.503215168717505,2791.84097416044
0.489518055353192,2791.85097416044
0.476282376166132,2791.86097416044
0.462623103943421,2791.87097416044
0.447721751942832,2791.88097416044
0.432615446540596,2791.89097416044
0.418077336982296,2791.90097416044
0.404422665416094,2791.91097416044
0.391612905620551,2791.92097416044
0.378560962905007,2791.93097416044
0.364675135396694,2791.94097416044
0.350946422486494,2791.95097416044
0.337598757710804,2791.96097416044
0.324872354599445,2791.97097416044
0.313418198561002,2791.98097416044
0.302531694235242,2791.99097416044
0.292398638127776,2792.00097416044
0.281435038258357,2792.01097416044
0.268857216274719,2792.02097416044
0.255623370747302,2792.03097416044
0.243464810175185,2792.04097416044
0.232233321871777,2792.05097416044
0.222878258419246,2792.06097416044
0.214172124537258,2792.07097416044
0.206344711757209,2792.08097416044
0.19799715136261,2792.09097416044
0.189666123913024,2792.10097416044
0.181178059695577,2792.11097416044
0.172414687362907,2792.12097416044
0.163992585450841,2792.13097416044
0.155882466363591,2792.14097416044
0.148356423495009,2792.15097416044
0.140370526002539,2792.16097416044
0.131665747529058,2792.17097416044
0.122530477493912,2792.18097416044
0.114115871620018,2792.19097416044
0.106479383290675,2792.20097416044
0.0989374075470126,2792.21097416044
0.091309417648845,2792.22097416044
0.0840338061755181,2792.23097416044
0.0767060381822488,2792.24097416044
0.068177001774908,2792.25097416044
0.0593073446599915,2792.26097416044
0.050785207626244,2792.27097416044
0.043492596046885,2792.28097416044
0.0374699538070906,2792.29097416044
0.0319821020251687,2792.30097416044
0.0255935378522593,2792.31097416044
0.0182534356147391,2792.32097416044
0.0115178379837143,2792.33097416044
0.00506030124878192,2792.34097416044
-0.00146003998263094,2792.35097416044
-0.00815839183736912,2792.36097416044
-0.0163475136536278,2792.37097416044
-0.0252450724343102,2792.38097416044
-0.0338814668694671,2792.39097416044
-0.0403110584700342,2792.40097416044
-0.0416583254725702,2792.41097416044
-0.0346214679195509,2792.42097416044
-0.0137528773782002,2792.43097416044
0.0256019461718424,2792.44097416044
0.0846798635982177,2792.45097416044
0.161730392375917,2792.46097416044
0.251279751442987,2792.47097416044
0.345926370812625,2792.48097416044
0.438508976859173,2792.49097416044
0.523033619974245,2792.50097416044
0.595433356766534,2792.51097416044
0.652532201519452,2792.52097416044
0.694372659253381,2792.53097416044
0.720884258003773,2792.54097416044
0.734688231128334,2792.55097416044
0.738747797525879,2792.56097416044
0.737088830823376,2792.57097416044
0.732686750281607,2792.58097416044
0.727958093915999,2792.59097416044
0.724495860558254,2792.60097416044
0.722601060295118,2792.61097416044
0.721834018806409,2792.62097416044
0.722313601941597,2792.63097416044
0.723442775482784,2792.64097416044
0.724646122365723,2792.65097416044
0.725553743923627,2792.66097416044
0.726069265205919,2792.67097416044
0.72746446875158,2792.68097416044
0.72878482769099,2792.69097416044
0.72806630788701,2792.70097416044
0.722620826819244,2792.71097416044
0.710185103270469,2792.72097416044
0.691536177386573,2792.73097416044
0.669731682935813,2792.74097416044
0.647404425870122,2792.75097416044
0.626025365247777,2792.76097416044
0.606720119829087,2792.77097416044
0.590440807892523,2792.78097416044
0.578702451265978,2792.79097416044
0.571451703930578,2792.80097416044
0.568419720430366,2792.81097416044
0.567750222571988,2792.82097416044
0.568884514737928,2792.83097416044
0.57126805550699,2792.84097416044
0.57295802935313,2792.85097416044
0.573032400436459,2792.86097416044
0.571618556840141,2792.87097416044
0.568809908392073,2792.88097416044
0.563688148501431,2792.89097416044
0.556432364320573,2792.90097416044
0.547504540354761,2792.91097416044
0.537439318152285,2792.92097416044
0.527146606962503,2792.93097416044
0.515519322216225,2792.94097416044
0.501050556142259,2792.95097416044
0.485050295110933,2792.96097416044
0.468748493204873,2792.97097416044
0.45369372399216,2792.98097416044
0.439873536942942,2792.99097416044
0.425881878456468,2793.00097416044
0.411216195700692,2793.01097416044
0.39651006378282,2793.02097416044
0.381114633582105,2793.03097416044
0.366055997906566,2793.04097416044
0.351638162038074,2793.05097416044
0.33684004670912,2793.06097416044
0.322311488889091,2793.07097416044
0.307948019589915,2793.08097416044
0.294235740115163,2793.09097416044
0.281645510544993,2793.10097416044
0.26967401932145,2793.11097416044
0.258584105870547,2793.12097416044
0.24802012864648,2793.13097416044
0.237065053630105,2793.14097416044
0.226110448668441,2793.15097416044
0.215985127377152,2793.16097416044
0.2066170763145,2793.17097416044
0.197324956751361,2793.18097416044
0.188227085149691,2793.19097416044
0.178859472730571,2793.20097416044
0.168263324003894,2793.21097416044
0.157582825773646,2793.22097416044
0.146882565604787,2793.23097416044
0.13640344490697,2793.24097416044
0.125469853183174,2793.25097416044
0.115621233230557,2793.26097416044
0.105999003481522,2793.27097416044
0.0963850585879663,2793.28097416044
0.0871108618204947,2793.29097416044
0.0778471907922791,2793.30097416044
0.0674556771380481,2793.31097416044
0.0564749282906425,2793.32097416044
0.045516668419325,2793.33097416044
0.0347282475649275,2793.34097416044
0.0241712263463834,2793.35097416044
0.0139844257011397,2793.36097416044
0.00392981500652173,2793.37097416044
-0.00623299373509939,2793.38097416044
-0.0165541039766072,2793.39097416044
-0.0265508872504484,2793.40097416044
-0.0372717606143464,2793.41097416044
-0.0484672051798591,2793.42097416044
-0.0580975878013225,2793.43097416044
-0.0665471453388533,2793.44097416044
-0.0705066981965094,2793.45097416044
-0.0666864631749148,2793.46097416044
-0.051565142528125,2793.47097416044
-0.0217899901571805,2793.48097416044
0.0244173968339657,2793.49097416044
0.0863001970052896,2793.50097416044
0.15981922034633,2793.51097416044
0.239810878389685,2793.52097416044
0.319276024065372,2793.53097416044
0.392551706980978,2793.54097416044
0.453408318935949,2793.55097416044
0.500029520552764,2793.56097416044
0.532001768126854,2793.57097416044
0.551838647623939,2793.58097416044
0.561821419611242,2793.59097416044
0.564998302411531,2793.60097416044
0.562909055947569,2793.61097416044
0.558297355999052,2793.62097416044
0.552346832843537,2793.63097416044
0.546072382325452,2793.64097416044
0.539862416692118,2793.65097416044
0.534847307427258,2793.66097416044
0.530690791780131,2793.67097416044
0.527657045587928,2793.68097416044
0.525398596847631,2793.69097416044
0.523664544214394,2793.70097416044
0.522202704115879,2793.71097416044
0.519988499641141,2793.72097416044
0.515344791916298,2793.73097416044
0.506803620634516,2793.74097416044
0.493797679575731,2793.75097416044
0.475999758649614,2793.76097416044
0.455948763735671,2793.77097416044
0.434573099387152,2793.78097416044
0.413652773514638,2793.79097416044
0.395720076892747,2793.80097416044
0.382218278285557,2793.81097416044
0.374813980849456,2793.82097416044
0.371907404266503,2793.83097416044
0.371564642107003,2793.84097416044
0.371623481352172,2793.85097416044
0.373029539865057,2793.86097416044
0.374641416754731,2793.87097416044
0.3764566291898,2793.88097416044
0.378383827462083,2793.89097416044
0.378338067286072,2793.90097416044
0.376747687861951,2793.91097416044
0.372103425684127,2793.92097416044
0.365232108427726,2793.93097416044
0.35575103500038,2793.94097416044
0.34460316131937,2793.95097416044
0.33201255980563,2793.96097416044
0.317752839948675,2793.97097416044
0.303053536055563,2793.98097416044
0.288507218305865,2793.99097416044
0.27444531953269,2794.00097416044
0.26100276993583,2794.01097416044
0.246088905490387,2794.02097416044
0.229638570124934,2794.03097416044
0.212450061543987,2794.04097416044
0.196794673036042,2794.05097416044
0.18239066774735,2794.06097416044
0.168926925727896,2794.07097416044
0.155510905244925,2794.08097416044
0.141527743854194,2794.09097416044
0.12658189846267,2794.10097416044
0.110761146550902,2794.11097416044
0.09480509325421,2794.12097416044
0.0796529873080055,2794.13097416044
0.0645766447633704,2794.14097416044
0.0503451538918864,2794.15097416044
0.0369994523065421,2794.16097416044
0.0246068044855955,2794.17097416044
0.0127286067495479,2794.18097416044
-3.41086325863618e-05,2794.19097416044
-0.0146330214398142,2794.20097416044
-0.029463032097999,2794.21097416044
-0.0425267785977864,2794.22097416044
-0.0539368969745782,2794.23097416044
-0.0636939614254536,2794.24097416044
-0.0738687935942069,2794.25097416044
-0.0852142760433238,2794.26097416044
-0.0964935756664497,2794.27097416044
-0.107975208658927,2794.28097416044
-0.118862410591239,2794.29097416044
-0.129682780746608,2794.30097416044
-0.140319312473166,2794.31097416044
-0.150705987539162,2794.32097416044
-0.161396393314836,2794.33097416044
-0.173044565368783,2794.34097416044
-0.185644582443611,2794.35097416044
-0.197970088129766,2794.36097416044
-0.210213864972699,2794.37097416044
-0.221635432722687,2794.38097416044
-0.232831899920935,2794.39097416044
-0.244563722523882,2794.40097416044
-0.255943826569601,2794.41097416044
-0.265774054759808,2794.42097416044
-0.273731760843268,2794.43097416044
-0.281524672791817,2794.44097416044
-0.288577501724846,2794.45097416044
-0.296130496158667,2794.46097416044
-0.30356811834514,2794.47097416044
-0.311128273637624,2794.48097416044
-0.319023923270316,2794.49097416044
-0.325496840046666,2794.50097416044
-0.329616691217622,2794.51097416044
-0.328066375618874,2794.52097416044
-0.319312777248521,2794.53097416044
-0.299464154130485,2794.54097416044
-0.266675926462181,2794.55097416044
-0.220635081602076,2794.56097416044
-0.164737619811842,2794.57097416044
-0.102761114652952,2794.58097416044
-0.038488915135838,2794.59097416044
0.0235195503091543,2794.60097416044
0.0797438981213668,2794.61097416044
0.125888297254786,2794.62097416044
0.159913123847841,2794.63097416044
0.183464812413612,2794.64097416044
0.19915560576857,2794.65097416044
0.209561051964801,2794.66097416044
0.216084619521865,2794.67097416044
0.219543358708418,2794.68097416044
0.220305560099045,2794.69097416044
0.219427109597235,2794.70097416044
0.2186092542793,2794.71097416044
0.21877846363698,2794.72097416044
0.220524948841516,2794.73097416044
0.222949348555017,2794.74097416044
0.225486145263481,2794.75097416044
0.228402506423514,2794.76097416044
0.231591139159884,2794.77097416044
0.235432133435331,2794.78097416044
0.23907530173863,2794.79097416044
0.241006131830165,2794.80097416044
0.24092797538751,2794.81097416044
0.237428544035214,2794.82097416044
0.229894485887504,2794.83097416044
0.218229791579984,2794.84097416044
0.202778223615938,2794.85097416044
0.185034195446249,2794.86097416044
0.167381398054006,2794.87097416044
0.152166258845114,2794.88097416044
0.140162179817633,2794.89097416044
0.132015895550353,2794.90097416044
0.126638716704408,2794.91097416044
0.123641061589837,2794.92097416044
0.121690759689744,2794.93097416044
0.120905711807452,2794.94097416044
0.121018190552162,2794.95097416044
0.120555240773058,2794.96097416044
0.119223744406751,2794.97097416044
0.115409650270836,2794.98097416044
0.1103414431043,2794.99097416044
0.105103432784521,2795.00097416044
0.0994121043925695,2795.01097416044
0.0928605719657014,2795.02097416044
0.0850269718416904,2795.03097416044
0.0749202386698637,2795.04097416044
0.0631583970849574,2795.05097416044
0.0516838853127686,2795.06097416044
0.0405997324658445,2795.07097416044
0.0295923136404528,2795.08097416044
0.0177781608923671,2795.09097416044
0.00520196922250404,2795.10097416044
-0.00720176256215397,2795.11097416044
-0.0191649370606055,2795.12097416044
-0.0303831195498579,2795.13097416044
-0.0419169000327667,2795.14097416044
-0.053896404439942,2795.15097416044
-0.0662934491321977,2795.16097416044
-0.0788729755149938,2795.17097416044
-0.0919498243958291,2795.18097416044
-0.104401944671199,2795.19097416044
-0.116229022455983,2795.20097416044
-0.126750998296152,2795.21097416044
-0.136623216251062,2795.22097416044
-0.146766933927027,2795.23097416044
-0.156569188824197,2795.24097416044
-0.166212395800291,2795.25097416044
-0.17610369277095,2795.26097416044
-0.187109264352534,2795.27097416044
-0.19843711362851,2795.28097416044
-0.209064549833571,2795.29097416044
-0.218435715360553,2795.30097416044
-0.226749492950044,2795.31097416044
-0.235025893607891,2795.32097416044
-0.244900996674744,2795.33097416044
-0.255152076354519,2795.34097416044
-0.26592845826544,2795.35097416044
-0.276679435209689,2795.36097416044
-0.286898609004666,2795.37097416044
-0.296703489407387,2795.38097416044
-0.306156870547867,2795.39097416044
-0.31594300093358,2795.40097416044
-0.326414444323294,2795.41097416044
-0.337074038748259,2795.42097416044
-0.346621409542102,2795.43097416044
-0.355185141511511,2795.44097416044
-0.363198837677889,2795.45097416044
-0.371022305424428,2795.46097416044
-0.380047477497382,2795.47097416044
-0.38899098480369,2795.48097416044
-0.397768995022363,2795.49097416044
-0.405194034601552,2795.50097416044
-0.411863625188254,2795.51097416044
-0.419094591877015,2795.52097416044
-0.427280294076081,2795.53097416044
-0.435629492441348,2795.54097416044
-0.444288413192411,2795.55097416044
-0.452689822657342,2795.56097416044
-0.460528247366446,2795.57097416044
-0.467583097689685,2795.58097416044
-0.475338751223791,2795.59097416044
-0.482853390907884,2795.60097416044
-0.490222181194923,2795.61097416044
-0.497600777955578,2795.62097416044
-0.504113125017007,2795.63097416044
-0.508595352605226,2795.64097416044
-0.507698269665509,2795.65097416044
-0.498443825910432,2795.66097416044
-0.477870234387806,2795.67097416044
-0.44480828343776,2795.68097416044
-0.400301517773475,2795.69097416044
-0.34850252493642,2795.70097416044
-0.293304694609426,2795.71097416044
-0.2388087323463,2795.72097416044
-0.188280607419834,2795.73097416044
-0.144371289328096,2795.74097416044
-0.108276758428075,2795.75097416044
-0.0815311102421327,2795.76097416044
-0.0630954245179449,2795.77097416044
-0.0515062838142461,2795.78097416044
-0.0450433925676916,2795.79097416044
-0.0422658724729635,2795.80097416044
-0.0417179560156967,2795.81097416044
-0.041220591586014,2795.82097416044
-0.0404381993981414,2795.83097416044
-0.0386947017767876,2795.84097416044
-0.0362432985087433,2795.85097416044
-0.0333604906979318,2795.86097416044
-0.0318956405903295,2795.87097416044
-0.0312716150535823,2795.88097416044
-0.0297698028808158,2795.89097416044
-0.0262498451990899,2795.90097416044
-0.020688167511197,2795.91097416044
-0.0154416482704432,2795.92097416044
-0.0115623634718582,2795.93097416044
-0.0107741137420355,2795.94097416044
-0.0141781396707301,2795.95097416044
-0.0219715369887885,2795.96097416044
-0.0321611097323712,2795.97097416044
-0.042924201848706,2795.98097416044
-0.0527424726829679,2795.99097416044
-0.0609935019648117,2796.00097416044
-0.0677800474472038,2796.01097416044
-0.0725764156971774,2796.02097416044
-0.0750324277361069,2796.03097416044
-0.0748849583849807,2796.04097416044
-0.0742801011608619,2796.05097416044
-0.0719508827487331,2796.06097416044
-0.0698687612513729,2796.07097416044
-0.0669083477648176,2796.08097416044
-0.0645721638993789,2796.09097416044
-0.0633355114613974,2796.10097416044
-0.064187635508327,2796.11097416044
-0.0666169447641374,2796.12097416044
-0.0705919184971511,2796.13097416044
-0.0753239903392801,2796.14097416044
-0.0807764439994352,2796.15097416044
-0.0879162435843324,2796.16097416044
-0.0971641359813761,2796.17097416044
-0.106171248003798,2796.18097416044
-0.114253628824142,2796.19097416044
-0.120998359560859,2796.20097416044
-0.127207457616917,2796.21097416044
-0.133590108411773,2796.22097416044
-0.140471102011742,2796.23097416044
-0.148503519811746,2796.24097416044
-0.157209817758407,2796.25097416044
-0.16718423556609,2796.26097416044
-0.177344926187975,2796.27097416044
-0.187015175735704,2796.28097416044
-0.19701604358701,2796.29097416044
-0.206860261345647,2796.30097416044
-0.216619128489012,2796.31097416044
-0.226289796816461,2796.32097416044
-0.234609170423992,2796.33097416044
-0.242607911334218,2796.34097416044
-0.249956490488846,2796.35097416044
-0.257929063135407,2796.36097416044
-0.266181611213416,2796.37097416044
-0.274394694195909,2796.38097416044
-0.282609394540221,2796.39097416044
-0.290673117401436,2796.40097416044
-0.298508333902728,2796.41097416044
-0.306106393035182,2796.42097416044
-0.312950349894411,2796.43097416044
-0.319860696484546,2796.44097416044
-0.326326548301219,2796.45097416044
-0.332779731120504,2796.46097416044
-0.339777859087903,2796.47097416044
-0.347212512094989,2796.48097416044
-0.354683824917935,2796.49097416044
-0.362100151145926,2796.50097416044
-0.368805070830869,2796.51097416044
-0.374741811572263,2796.52097416044
-0.380652494769624,2796.53097416044
-0.386834430817044,2796.54097416044
-0.394069519520075,2796.55097416044
-0.40204518573934,2796.56097416044
-0.409998670952116,2796.57097416044
-0.417797335118453,2796.58097416044
-0.425255611051501,2796.59097416044
-0.433106173519833,2796.60097416044
-0.44034840140148,2796.61097416044
-0.446115460869385,2796.62097416044
-0.450653717093035,2796.63097416044
-0.453006015012055,2796.64097416044
-0.452285891184909,2796.65097416044
-0.445866398906444,2796.66097416044
-0.431065863897182,2796.67097416044
-0.406210779397135,2796.68097416044
-0.372296507835219,2796.69097416044
-0.331576139926732,2796.70097416044
-0.288566486254913,2796.71097416044
-0.246893894679105,2796.72097416044
-0.207499142537849,2796.73097416044
-0.173039912928744,2796.74097416044
-0.144762726988603,2796.75097416044
-0.123795165144568,2796.76097416044
-0.110317131652619,2796.77097416044
-0.10297778652584,2796.78097416044
-0.100273989388084,2796.79097416044
-0.100078281493214,2796.80097416044
-0.100318436704834,2796.81097416044
-0.100459310521395,2796.82097416044
-0.0999779486292632,2796.83097416044
-0.0991473692770554,2796.84097416044
-0.0976904515367472,2796.85097416044
-0.0962937079336068,2796.86097416044
-0.0937627968654236,2796.87097416044
-0.091126503704489,2796.88097416044
-0.08798518156577,2796.89097416044
-0.0846974445360982,2796.90097416044
-0.0815810029013195,2796.91097416044
-0.0798655346211498,2796.92097416044
-0.0802216670206069,2796.93097416044
-0.083460390497873,2796.94097416044
-0.0906958438679247,2796.95097416044
-0.0994968020750181,2796.96097416044
-0.108654793863246,2796.97097416044
-0.115845182647156,2796.98097416044
-0.121347893015545,2796.99097416044
-0.124610331175923,2797.00097416044
-0.126968937673968,2797.01097416044
-0.126976064817974,2797.02097416044
-0.124624806552377,2797.03097416044
-0.121229874397023,2797.04097416044
-0.116834561954805,2797.05097416044
-0.113010675322095,2797.06097416044
-0.110130380581595,2797.07097416044
-0.108625987033137,2797.08097416044
-0.108275649874326,2797.09097416044
-0.108568287277881,2797.10097416044
-0.109616939023633,2797.11097416044
-0.111876483179208,2797.12097416044
-0.115405617034846,2797.13097416044
-0.120602741997241,2797.14097416044
-0.126389277625688,2797.15097416044
-0.133381420134061,2797.16097416044
-0.140499742156968,2797.17097416044
-0.147664558355366,2797.18097416044
-0.155052042440548,2797.19097416044
-0.162285308459968,2797.20097416044
-0.170139878069717,2797.21097416044
-0.178045632266654,2797.22097416044
-0.1865618844394,2797.23097416044
-0.195448228759649,2797.24097416044
-0.203989318998305,2797.25097416044
-0.212262988079891,2797.26097416044
-0.219724559787915,2797.27097416044
-0.22674851143704,2797.28097416044
-0.233814008253138,2797.29097416044
-0.240880966594941,2797.30097416044
-0.247693076037113,2797.31097416044
-0.254440272393004,2797.32097416044
-0.261288886853081,2797.33097416044
-0.268368913632515,2797.34097416044
-0.274933384920276,2797.35097416044
-0.281055141748947,2797.36097416044
-0.28631548297711,2797.37097416044
-0.29174902395431,2797.38097416044
-0.298013056593062,2797.39097416044
-0.304956787284954,2797.40097416044
-0.312498350766673,2797.41097416044
-0.319799500224599,2797.42097416044
-0.326662346824548,2797.43097416044
-0.333560943843054,2797.44097416044
-0.339756268309808,2797.45097416044
-0.346132553602763,2797.46097416044
-0.352507509083268,2797.47097416044
-0.359328611276271,2797.48097416044
-0.36680161572072,2797.49097416044
-0.373404018950089,2797.50097416044
-0.379174336442188,2797.51097416044
-0.384176178809047,2797.52097416044
-0.388701577274191,2797.53097416044
-0.394716550337888,2797.54097416044
-0.401146760916841,2797.55097416044
-0.407144992574169,2797.56097416044
-0.412615422277597,2797.57097416044
-0.417729256415818,2797.58097416044
-0.423060454787374,2797.59097416044
-0.428921455561136,2797.60097416044
-0.434755193898579,2797.61097416044
-0.439745856483165,2797.62097416044
-0.441368648495628,2797.63097416044
-0.436301574654559,2797.64097416044
-0.421384971227437,2797.65097416044
-0.395420641091881,2797.66097416044
-0.359514609562564,2797.67097416044
-0.315711066988991,2797.68097416044
-0.268602836895932,2797.69097416044
-0.221617888733674,2797.70097416044
-0.178590900260578,2797.71097416044
-0.142004041341127,2797.72097416044
-0.11326623657439,2797.73097416044
-0.0914085676413037,2797.74097416044
-0.0754826710340231,2797.75097416044
-0.0642361596525297,2797.76097416044
-0.0567161488350905,2797.77097416044
-0.0522238518115202,2797.78097416044
-0.0495952306196821,2797.79097416044
-0.0467164583459236,2797.80097416044
-0.0428753006183665,2797.81097416044
-0.0363627084067372,2797.82097416044
-0.0284340059493817,2797.83097416044
-0.0203182586183911,2797.84097416044
-0.0129479322610465,2797.85097416044
-0.00543573371046753,2797.86097416044
0.00196545700354916,2797.87097416044
0.0101386778290251,2797.88097416044
0.0177666699232374,2797.89097416044
0.0241618846167821,2797.90097416044
0.0284182645056121,2797.91097416044
0.0298355486247292,2797.92097416044
0.0271866544338776,2797.93097416044
0.0214165719527811,2797.94097416044
0.0130373055814172,2797.95097416044
0.00331924656458812,2797.96097416044
-0.00643297859686386,2797.97097416044
-0.0150926212937432,2797.98097416044
-0.0223872296763795,2797.99097416044
-0.0269602398539079,2798.00097416044
-0.0289324225646502,2798.01097416044
-0.029516302052967,2798.02097416044
-0.0284035714183292,2798.03097416044
-0.0261618228600642,2798.04097416044
-0.022708818851415,2798.05097416044
-0.0182819383795435,2798.06097416044
-0.0145441796377652,2798.07097416044
-0.0118288522524313,2798.08097416044
-0.0111792361152136,2798.09097416044
-0.0127417106300899,2798.10097416044
-0.0157043688714251,2798.11097416044
-0.01909028504279,2798.12097416044
-0.0230841153698371,2798.13097416044
-0.027776796887964,2798.14097416044
-0.0328669553405789,2798.15097416044
-0.0384343861045348,2798.16097416044
-0.0449088263497358,2798.17097416044
-0.05186603309503,2798.18097416044
-0.0599032332503986,2798.19097416044
-0.0687302775257882,2798.20097416044
-0.0775083904946205,2798.21097416044
-0.0867446561242252,2798.22097416044
-0.0956932611740759,2798.23097416044
-0.103602916062452,2798.24097416044
-0.110533725182486,2798.25097416044
-0.117530277665155,2798.26097416044
-0.124837250477138,2798.27097416044
-0.132334731741973,2798.28097416044
-0.139964616221229,2798.29097416044
-0.14759272257608,2798.30097416044
-0.155056239067294,2798.31097416044
-0.163135120252359,2798.32097416044
-0.171949100744347,2798.33097416044
-0.180894454842116,2798.34097416044
-0.189495103215758,2798.35097416044
-0.196566962441982,2798.36097416044
-0.203375648881012,2798.37097416044
-0.210046615536066,2798.38097416044
-0.216973442957145,2798.39097416044
-0.223897735391085,2798.40097416044
-0.231109897981751,2798.41097416044
-0.238962115889351,2798.42097416044
-0.246329363605937,2798.43097416044
-0.253366865703217,2798.44097416044
-0.260344668267878,2798.45097416044
-0.266708448630599,2798.46097416044
-0.273192376844158,2798.47097416044
-0.280264935241869,2798.48097416044
-0.287249295359631,2798.49097416044
-0.29421446212913,2798.50097416044
-0.300726720456778,2798.51097416044
-0.306379654890029,2798.52097416044
-0.311958576667186,2798.53097416044
-0.317927896287562,2798.54097416044
-0.324684195968163,2798.55097416044
-0.332547692428558,2798.56097416044
-0.340526937614326,2798.57097416044
-0.348341659584577,2798.58097416044
-0.355105001432593,2798.59097416044
-0.361015583527253,2798.60097416044
-0.366326721009532,2798.61097416044
-0.372137253548824,2798.62097416044
-0.378412020508278,2798.63097416044
-0.384230328305247,2798.64097416044
-0.389206877897396,2798.65097416044
-0.393481091502301,2798.66097416044
-0.397584290536528,2798.67097416044
-0.402167420258348,2798.68097416044
-0.407065252223883,2798.69097416044
-0.41228039264118,2798.70097416044
-0.417281745661006,2798.71097416044
-0.421186404031157,2798.72097416044
-0.421432037231936,2798.73097416044
-0.415524904549037,2798.74097416044
-0.400113848664854,2798.75097416044
-0.372959402999854,2798.76097416044
-0.333831450890331,2798.77097416044
-0.284761689262904,2798.78097416044
-0.229674899173146,2798.79097416044
-0.173078959287826,2798.80097416044
-0.119264642760061,2798.81097416044
-0.0710726278277861,2798.82097416044
-0.0304099321740254,2798.83097416044
0.00166140945943827,2798.84097416044
0.0265159444207337,2798.85097416044
0.0438816209801424,2798.86097416044
0.0558671554928864,2798.87097416044
0.064627198426459,2798.88097416044
0.0709879032480701,2798.89097416044
0.0768623183601346,2798.90097416044
0.0809847528291713,2798.91097416044
0.0849397047851261,2798.92097416044
0.0899208347551329,2798.93097416044
0.0966374718731803,2798.94097416044
0.105233454189065,2798.95097416044
0.114123752573798,2798.96097416044
0.123825252116652,2798.97097416044
0.133297672139841,2798.98097416044
0.142160491619876,2798.99097416044
0.149667612145748,2799.00097416044
0.155169501411303,2799.01097416044
0.157881067149858,2799.02097416044
0.157532927598323,2799.03097416044
0.153024159274781,2799.04097416044
0.145802669017039,2799.05097416044
0.135778623543501,2799.06097416044
0.125616672365844,2799.07097416044
0.116119778058673,2799.08097416044
0.107855299986988,2799.09097416044
0.102640055287946,2799.10097416044
0.100028378271986,2799.11097416044
0.099891141571297,2799.12097416044
0.101699504815736,2799.13097416044
0.104809843473287,2799.14097416044
0.108031454755708,2799.15097416044
0.110792396538432,2799.16097416044
0.112960444549084,2799.17097416044
0.114575664812481,2799.18097416044
0.115526213515768,2799.19097416044
0.116178639527407,2799.20097416044
0.115661975798479,2799.21097416044
0.113223351206207,2799.22097416044
0.109324638868387,2799.23097416044
0.104008018234325,2799.24097416044
0.0978935762188097,2799.25097416044
0.089993637455385,2799.26097416044
0.0820011695046809,2799.27097416044
0.0734075215883247,2799.28097416044
0.0651744017182748,2799.29097416044
0.0573145581007356,2799.30097416044
0.0487982433063925,2799.31097416044
0.0400643757883658,2799.32097416044
0.0303711929014299,2799.33097416044
0.0204247825498317,2799.34097416044
0.0100772029007703,2799.35097416044
-0.000574324630624261,2799.36097416044
-0.0107639686087882,2799.37097416044
-0.0204622876798981,2799.38097416044
-0.0294884457246396,2799.39097416044
-0.039049545137404,2799.40097416044
-0.0484932528665359,2799.41097416044
-0.0577330477202881,2799.42097416044
-0.0664891051875993,2799.43097416044
-0.0745206443248648,2799.44097416044
-0.0821534298489868,2799.45097416044
-0.0901560775990668,2799.46097416044
-0.0983339790131593,2799.47097416044
-0.106140084196003,2799.48097416044
-0.112831597825821,2799.49097416044
-0.119086211198431,2799.50097416044
-0.125432523018681,2799.51097416044
-0.132414226763605,2799.52097416044
-0.140285416492263,2799.53097416044
-0.147922073683013,2799.54097416044
-0.155514722443782,2799.55097416044
-0.162526063705262,2799.56097416044
-0.169606804616351,2799.57097416044
-0.176857691090816,2799.58097416044
-0.184441861959681,2799.59097416044
-0.19235148843621,2799.60097416044
-0.199874620977843,2799.61097416044
-0.206489559693383,2799.62097416044
-0.212814057112917,2799.63097416044
-0.219727468743865,2799.64097416044
-0.22611970764003,2799.65097416044
-0.232756884219957,2799.66097416044
-0.239214688513974,2799.67097416044
-0.245596180442691,2799.68097416044
-0.251947536923311,2799.69097416044
-0.259748725054377,2799.70097416044
-0.268600302250039,2799.71097416044
-0.277804737462876,2799.72097416044
-0.286544915489381,2799.73097416044
-0.294030485987297,2799.74097416044
-0.30019628629414,2799.75097416044
-0.303074046573412,2799.76097416044
-0.298792699112728,2799.77097416044
-0.285109228164256,2799.78097416044
-0.259232588654213,2799.79097416044
-0.220958431255231,2799.80097416044
-0.172210727494947,2799.81097416044
-0.116439087486315,2799.82097416044
-0.056870710770339,2799.83097416044
0.00253876533150368,2799.84097416044
0.0583021924596135,2799.85097416044
0.106766841023454,2799.86097416044
0.146314286957537,2799.87097416044
0.177199188367114,2799.88097416044
0.199434512504709,2799.89097416044
0.214979936291228,2799.90097416044
0.225120622981678,2799.91097416044
0.230816397499042,2799.92097416044
0.234080854620104,2799.93097416044
0.235242094846369,2799.94097416044
0.235601658406932,2799.95097416044
0.236099311158351,2799.96097416044
0.237084570841498,2799.97097416044
0.239097243882119,2799.98097416044
0.241277196448594,2799.99097416044
0.243481863255089,2800.00097416044
0.245916883351209,2800.01097416044
0.248178277197344,2800.02097416044
0.250238268241375,2800.03097416044
0.250468119593562,2800.04097416044
0.247831187738555,2800.05097416044
0.241852673313459,2800.06097416044
0.23291842597751,2800.07097416044
0.221677108158803,2800.08097416044
0.210363241608391,2800.09097416044
0.199461517193723,2800.10097416044
0.190629872973726,2800.11097416044
0.184531954397119,2800.12097416044
0.181423154718862,2800.13097416044
0.181389963488184,2800.14097416044
0.18298624717299,2800.15097416044
0.186104057450871,2800.16097416044
0.18991534372504,2800.17097416044
0.194329532699476,2800.18097416044
0.199045087146201,2800.19097416044
0.203227167912584,2800.20097416044
0.206083294428301,2800.21097416044
0.207305910022053,2800.22097416044
0.205994966826941,2800.23097416044
0.201853631867031,2800.24097416044
0.195869835684554,2800.25097416044
0.188329272797108,2800.26097416044
0.180087842796249,2800.27097416044
0.171640737046109,2800.28097416044
0.162928086529579,2800.29097416044
0.152731370629874,2800.30097416044
0.142506050441822,2800.31097416044
0.132407417326134,2800.32097416044
0.122522766038159,2800.33097416044
0.112639067235019,2800.34097416044
0.102911816844312,2800.35097416044
0.0934543764934139,2800.36097416044
0.0841598393199905,2800.37097416044
0.0742768142384894,2800.38097416044
0.0644537759022202,2800.39097416044
0.0543527887854851,2800.40097416044
0.0446325477491389,2800.41097416044
0.0351574360779038,2800.42097416044
0.0259944022915392,2800.43097416044
0.0175756433552699,2800.44097416044
0.00902001395369869,2800.45097416044
0.000273130457624663,2800.46097416044
-0.00875074299879551,2800.47097416044
-0.0189753508504958,2800.48097416044
-0.0296868475648776,2800.49097416044
-0.0397488860575122,2800.50097416044
-0.0495880223953974,2800.51097416044
-0.0589879845408425,2800.52097416044
-0.0687828870603263,2800.53097416044
-0.079006918248425,2800.54097416044
-0.0888131329541887,2800.55097416044
-0.097918807271933,2800.56097416044
-0.106075467089885,2800.57097416044
-0.113620704293515,2800.58097416044
-0.121644234541362,2800.59097416044
-0.129511233208591,2800.60097416044
-0.137007499975149,2800.61097416044
-0.144041655500155,2800.62097416044
-0.150658545624863,2800.63097416044
-0.158150885677519,2800.64097416044
-0.166833582766766,2800.65097416044
-0.175834025456784,2800.66097416044
-0.184532886222447,2800.67097416044
-0.192311157259411,2800.68097416044
-0.198961190060692,2800.69097416044
-0.206015584116258,2800.70097416044
-0.21327746823879,2800.71097416044
-0.220729787210327,2800.72097416044
-0.22880386705803,2800.73097416044
-0.236935621867274,2800.74097416044
-0.243866468627926,2800.75097416044
-0.2480893008855,2800.76097416044
-0.247208866535903,2800.77097416044
-0.237310123853469,2800.78097416044
-0.215607583029427,2800.79097416044
-0.18022237631618,2800.80097416044
-0.13119269700947,2800.81097416044
-0.0698613918873074,2800.82097416044
-0.000824698882576202,2800.83097416044
0.070239676298197,2800.84097416044
0.138701715567569,2800.85097416044
0.201314752626282,2800.86097416044
0.254218199261062,2800.87097416044
0.296001819156524,2800.88097416044
0.327224869735207,2800.89097416044
0.349018873191563,2800.90097416044
0.362571451728435,2800.91097416044
0.370260065318161,2800.92097416044
0.374076986810637,2800.93097416044
0.375665979208363,2800.94097416044
0.377086331200495,2800.95097416044
0.379021009746678,2800.96097416044
0.381911206941507,2800.97097416044
0.386093581628792,2800.98097416044
0.390896935706406,2800.99097416044
0.395498946524475,2801.00097416044
0.400782546488562,2801.01097416044
0.405922217600305,2801.02097416044
0.410698462130807,2801.03097416044
0.414978396164844,2801.04097416044
0.416938013894954,2801.05097416044
0.415780143572949,2801.06097416044
0.410611721688919,2801.07097416044
0.401022661038924,2801.08097416044
0.387996708186394,2801.09097416044
0.37297664656539,2801.10097416044
0.359028135172699,2801.11097416044
0.346361596402056,2801.12097416044
0.336695531755952,2801.13097416044
0.329685402209765,2801.14097416044
0.325713355493892,2801.15097416044
0.323302128269446,2801.16097416044
0.322993504433491,2801.17097416044
0.323556309078431,2801.18097416044
0.32456773661934,2801.19097416044
0.3259887397417,2801.20097416044
0.326859767605483,2801.21097416044
0.326752167720798,2801.22097416044
0.324500798613394,2801.23097416044
0.320683779917715,2801.24097416044
0.315545265521572,2801.25097416044
0.309439015298114,2801.26097416044
0.302271122364619,2801.27097416044
0.29419785768984,2801.28097416044
0.284942994081651,2801.29097416044
0.274622647209842,2801.30097416044
0.263515732495908,2801.31097416044
0.252100155737913,2801.32097416044
0.239753126428409,2801.33097416044
0.227394846747673,2801.34097416044
0.215250855649652,2801.35097416044
0.203427924729134,2801.36097416044
0.191855107612341,2801.37097416044
0.180038023711217,2801.38097416044
0.168082822478865,2801.39097416044
0.156017880553876,2801.40097416044
0.144102933582185,2801.41097416044
0.132478740206918,2801.42097416044
0.120787122506743,2801.43097416044
0.10968576150792,2801.44097416044
0.0993392567212206,2801.45097416044
0.0886462565976832,2801.46097416044
0.0784042693403899,2801.47097416044
0.0684185308545165,2801.48097416044
0.058482674023811,2801.49097416044
0.0490249417875092,2801.50097416044
0.0399221680411291,2801.51097416044
0.030835321981232,2801.52097416044
0.0216550111614722,2801.53097416044
0.0121521956787801,2801.54097416044
0.00235982018036147,2801.55097416044
-0.0067434765046906,2801.56097416044
-0.0156897095054962,2801.57097416044
-0.0237478260510682,2801.58097416044
-0.0316383432999037,2801.59097416044
-0.0399408444193323,2801.60097416044
-0.0480455599648926,2801.61097416044
-0.0566025930361534,2801.62097416044
-0.0650560202137699,2801.63097416044
-0.0731890212604114,2801.64097416044
-0.0812878432703834,2801.65097416044
-0.0894035226529771,2801.66097416044
-0.0977514857231588,2801.67097416044
-0.106164307496891,2801.68097416044
-0.114578333202833,2801.69097416044
-0.122660415036651,2801.70097416044
-0.130686659866405,2801.71097416044
-0.139187715635135,2801.72097416044
-0.148190608267089,2801.73097416044
-0.156428325587418,2801.74097416044
-0.1640725447369,2801.75097416044
-0.171715424787144,2801.76097416044
-0.179062118153478,2801.77097416044
-0.187189122884497,2801.78097416044
-0.195740619644123,2801.79097416044
-0.203516934586938,2801.80097416044
-0.210659380622066,2801.81097416044
-0.217494675912851,2801.82097416044
-0.224350388727252,2801.83097416044
-0.231754005431768,2801.84097416044
-0.239522245780327,2801.85097416044
-0.247247303776451,2801.86097416044
-0.255508231809351,2801.87097416044
-0.263222864457699,2801.88097416044
-0.271153837571221,2801.89097416044
-0.278677163234091,2801.90097416044
-0.284461078992261,2801.91097416044
-0.284531754740801,2801.92097416044
-0.274519196555427,2801.93097416044
-0.249997194733384,2801.94097416044
-0.208059024477854,2801.95097416044
-0.149671717201759,2801.96097416044
-0.0774729593561455,2801.97097416044
0.00337752392972588,2801.98097416044
0.086867340773472,2801.99097416044
0.167336090877726,2802.00097416044
0.240273317290945,2802.01097416044
0.302494606370485,2802.02097416044
0.351970389359118,2802.03097416044
0.388689908081301,2802.04097416044
0.41330936666786,2802.05097416044
0.428065062607065,2802.06097416044
0.435359215097728,2802.07097416044
0.437073901729992,2802.08097416044
0.43614681404303,2802.09097416044
0.434288602496353,2802.10097416044
0.432326148180296,2802.11097416044
0.431521533962696,2802.12097416044
0.431782545266827,2802.13097416044
0.433564377808586,2802.14097416044
0.43652108594351,2802.15097416044
0.44020620804106,2802.16097416044
0.443909602071433,2802.17097416044
0.448024364542091,2802.18097416044
0.452033998154096,2802.19097416044
0.454462342716077,2802.20097416044
0.454263157882902,2802.21097416044
0.449634860333227,2802.22097416044
0.44045949096255,2802.23097416044
0.427691611172089,2802.24097416044
0.4124460220712,2802.25097416044
0.396581547681008,2802.26097416044
0.381086806667556,2802.27097416044
0.367916361489976,2802.28097416044
0.357968758588521,2802.29097416044
0.351252931155287,2802.30097416044
0.347540980945261,2802.31097416044
0.345795644290258,2802.32097416044
0.345853386671891,2802.33097416044
0.348465795835959,2802.34097416044
0.352572241367451,2802.35097416044
0.357432774484135,2802.36097416044
0.36177969625454,2802.37097416044
0.36506030558525,2802.38097416044
0.366962004659572,2802.39097416044
0.36664929961101,2802.40097416044
0.364393639511047,2802.41097416044
0.360082132543095,2802.42097416044
0.354645627321522,2802.43097416044
0.347428172643035,2802.44097416044
0.33887406476798,2802.45097416044
0.328716494984248,2802.46097416044
0.317407550347895,2802.47097416044
0.304901679442996,2802.48097416044
0.291851583175221,2802.49097416044
0.277676096727275,2802.50097416044
0.262715171827422,2802.51097416044
0.247303679474766,2802.52097416044
0.230963899977998,2802.53097416044
0.214699332363003,2802.54097416044
0.1984967762397,2802.55097416044
0.182349340672769,2802.56097416044
0.166768846128661,2802.57097416044
0.15273462080764,2802.58097416044
0.139779374573925,2802.59097416044
0.127110948584086,2802.60097416044
0.114647981211808,2802.61097416044
0.102806322049642,2802.62097416044
0.0918582931036323,2802.63097416044
0.0824015830130918,2802.64097416044
0.0741127169639312,2802.65097416044
0.0662315322069413,2802.66097416044
0.0581645017776487,2802.67097416044
0.0505050844328126,2802.68097416044
0.0430409255927482,2802.69097416044
0.035676422459995,2802.70097416044
0.027771709226817,2802.71097416044
0.0195769657410048,2802.72097416044
0.010829637628695,2802.73097416044
0.00192331633458714,2802.74097416044
-0.00766202530013439,2802.75097416044
-0.0166353838275441,2802.76097416044
-0.0250359400414068,2802.77097416044
-0.0322383673496177,2802.78097416044
-0.0387043920206835,2802.79097416044
-0.0455458592528544,2802.80097416044
-0.052812799064591,2802.81097416044
-0.0604093456613841,2802.82097416044
-0.0684305558934908,2802.83097416044
-0.0770113174091824,2802.84097416044
-0.0859979681830999,2802.85097416044
-0.0962133339053076,2802.86097416044
-0.10688769320349,2802.87097416044
-0.116939385675051,2802.88097416044
-0.126363786031943,2802.89097416044
-0.133379353945641,2802.90097416044
-0.136676908743257,2802.91097416044
-0.132997222751663,2802.92097416044
-0.117181356952805,2802.93097416044
-0.0856679710354314,2802.94097416044
-0.0375312063301409,2802.95097416044
0.026559045650664,2802.96097416044
0.10208862009737,2802.97097416044
0.184164554283947,2802.98097416044
0.266166038342644,2802.99097416044
0.342839626731857,2803.00097416044
0.409722438277321,2803.01097416044
0.463905987660032,2803.02097416044
0.504627149299523,2803.03097416044
0.532095556041459,2803.04097416044
0.548153586295798,2803.05097416044
0.555542020806378,2803.06097416044
0.556658683427562,2803.07097416044
0.554576892910818,2803.08097416044
0.551233155696612,2803.09097416044
0.546723997095527,2803.10097416044
0.543240374016555,2803.11097416044
0.541475428409038,2803.12097416044
0.54108574458381,2803.13097416044
0.542312328252285,2803.14097416044
0.54413275874017,2803.15097416044
0.547403716296791,2803.16097416044
0.550216425184523,2803.17097416044
0.551635542394956,2803.18097416044
0.551261634492574,2803.19097416044
0.547193585102264,2803.20097416044
0.538526561110461,2803.21097416044
0.525859326271687,2803.22097416044
0.508925124145304,2803.23097416044
0.488607407764331,2803.24097416044
0.467734930719823,2803.25097416044
0.44757059284892,2803.26097416044
0.429986524693212,2803.27097416044
0.416480433142464,2803.28097416044
0.407285322311514,2803.29097416044
0.401996051208173,2803.30097416044
0.400131025003617,2803.31097416044
0.400293607668131,2803.32097416044
0.401463685638499,2803.33097416044
0.402938401297122,2803.34097416044
0.403783882851189,2803.35097416044
0.403544804765157,2803.36097416044
0.402112640273073,2803.37097416044
0.398657591294464,2803.38097416044
0.393294363084008,2803.39097416044
0.38594612657671,2803.40097416044
0.376919990231676,2803.41097416044
0.366684638699713,2803.42097416044
0.35503207225128,2803.43097416044
0.342529544827332,2803.44097416044
0.329563783581717,2803.45097416044
0.316102553792009,2803.46097416044
0.302215982109148,2803.47097416044
0.287224418938415,2803.48097416044
0.271998393151217,2803.49097416044
0.257094875062485,2803.50097416044
0.24233227541963,2803.51097416044
0.228051994079474,2803.52097416044
0.21400641728928,2803.53097416044
0.200216885831428,2803.54097416044
0.18612607851573,2803.55097416044
0.171535194898493,2803.56097416044
0.157037035473618,2803.57097416044
0.143367253848891,2803.58097416044
0.130696005819224,2803.59097416044
0.119385720515573,2803.60097416044
0.108808608148453,2803.61097416044
0.0991195043234478,2803.62097416044
0.0894198997484677,2803.63097416044
0.0798854337900018,2803.64097416044
0.0701804784604216,2803.65097416044
0.0607660580419029,2803.66097416044
0.05114245251667,2803.67097416044
0.0410939915930501,2803.68097416044
0.030375376018203,2803.69097416044
0.0190879683901241,2803.70097416044
0.00803887075025336,2803.71097416044
-0.00196706971870123,2803.72097416044
-0.0111002392459,2803.73097416044
-0.0198203702648338,2803.74097416044
-0.0283401667971962,2803.75097416044
-0.0365399822364728,2803.76097416044
-0.0453055927052978,2803.77097416044
-0.0542604029430694,2803.78097416044
-0.0630033655035642,2803.79097416044
-0.0716650296742641,2803.80097416044
-0.0801721918501932,2803.81097416044
-0.0883464802011827,2803.82097416044
-0.0968182525922831,2803.83097416044
-0.104853941802698,2803.84097416044
-0.113005308540147,2803.85097416044
-0.121198887336887,2803.86097416044
-0.128928038498038,2803.87097416044
-0.136733757325518,2803.88097416044
-0.145410750403566,2803.89097416044
-0.154316058490326,2803.90097416044
-0.16350979709014,2803.91097416044
-0.172456672629092,2803.92097416044
-0.181166627134416,2803.93097416044
-0.189508523615357,2803.94097416044
-0.19595344302236,2803.95097416044
-0.196554373461839,2803.96097416044
-0.186366619219421,2803.97097416044
-0.161466284443493,2803.98097416044
-0.118969542481903,2803.99097416044
-0.0579815058523361,2804.00097416044
0.0190156013831594,2804.01097416044
0.10607566034494,2804.02097416044
0.197768331627562,2804.03097416044
0.286244486503038,2804.04097416044
0.365348342285768,2804.05097416044
0.431965035613894,2804.06097416044
0.483717570100253,2804.07097416044
0.52004222283793,2804.08097416044
0.542807052443688,2804.09097416044
0.554256298179995,2804.10097416044
0.557526587141074,2804.11097416044
0.555817825005908,2804.12097416044
0.550770429830741,2804.13097416044
0.544233027517553,2804.14097416044
0.538485027479074,2804.15097416044
0.533328347986753,2804.16097416044
0.529336938451978,2804.17097416044
0.526479808519844,2804.18097416044
0.524740539148812,2804.19097416044
0.524425706786376,2804.20097416044
0.524797577911265,2804.21097416044
0.525314844348116,2804.22097416044
0.525062255842609,2804.23097416044
0.523674904429428,2804.24097416044
0.519064352246428,2804.25097416044
0.510393707459924,2804.26097416044
0.497098817872209,2804.27097416044
0.479410537062144,2804.28097416044
0.459192624149041,2804.29097416044
0.438713152222826,2804.30097416044
0.420452781983331,2804.31097416044
0.405244302139,2804.32097416044
0.393557420951207,2804.33097416044
0.385676634894621,2804.34097416044
0.38188075436453,2804.35097416044
0.380864451228223,2804.36097416044
0.381967560222286,2804.37097416044
0.384535910653668,2804.38097416044
0.387611046497618,2804.39097416044
0.390243430772341,2804.40097416044
0.391673054992132,2804.41097416044
0.391516370296599,2804.42097416044
0.389104056562533,2804.43097416044
0.38457418525094,2804.44097416044
0.378316790443634,2804.45097416044
0.36949655741917,2804.46097416044
0.358683225049913,2804.47097416044
0.345753088697441,2804.48097416044
0.331549741481598,2804.49097416044
0.317882826719965,2804.50097416044
0.304424016585614,2804.51097416044
0.29115770793236,2804.52097416044
0.277337216325848,2804.53097416044
0.262299977326502,2804.54097416044
0.247073458887797,2804.55097416044
0.231835303510254,2804.56097416044
0.217165869457256,2804.57097416044
0.203108518321991,2804.58097416044
0.189211770558082,2804.59097416044
0.175863440698029,2804.60097416044
0.162280905519557,2804.61097416044
0.148569246075145,2804.62097416044
0.134984318706101,2804.63097416044
0.12145461973151,2804.64097416044
0.108818114263571,2804.65097416044
0.09757824099186,2804.66097416044
0.0873015343339506,2804.67097416044
0.077283184084701,2804.68097416044
0.0678438156850321,2804.69097416044
0.0582904520154095,2804.70097416044
0.0487372622109079,2804.71097416044
0.0385777613922323,2804.72097416044
0.0277997873659033,2804.73097416044
0.0172619651428245,2804.74097416044
0.00626740882347691,2804.75097416044
-0.00451939529935364,2804.76097416044
-0.0158711181851994,2804.77097416044
-0.027127693441781,2804.78097416044
-0.0373157416813217,2804.79097416044
-0.045896850205384,2804.80097416044
-0.0531278727201552,2804.81097416044
-0.059271945679335,2804.82097416044
-0.0645765357856248,2804.83097416044
-0.0690080971841929,2804.84097416044
-0.0725276523136986,2804.85097416044
-0.0765596842770438,2804.86097416044
-0.081118964407584,2804.87097416044
-0.0857699723234212,2804.88097416044
-0.0889638695255082,2804.89097416044
-0.0878496661531457,2804.90097416044
-0.0764136157197075,2804.91097416044
-0.0512431811259219,2804.92097416044
-0.00887616205912258,2804.93097416044
0.0499280996018144,2804.94097416044
0.122351602145201,2804.95097416044
0.203689057603122,2804.96097416044
0.287574272229134,2804.97097416044
0.368085075135001,2804.98097416044
0.43957363420534,2804.99097416044
0.498353150207841,2805.00097416044
0.5420708292779,2805.01097416044
0.570825692806659,2805.02097416044
0.586065863310074,2805.03097416044
0.59114356071157,2805.04097416044
0.589683323936863,2805.05097416044
0.584085454455547,2805.06097416044
0.57712000665648,2805.07097416044
0.570405645945272,2805.08097416044
0.564622896705304,2805.09097416044
0.560545283666901,2805.10097416044
0.557267360333217,2805.11097416044
0.555201113018904,2805.12097416044
0.554242906899686,2805.13097416044
0.553340918950085,2805.14097416044
0.552307749842264,2805.15097416044
0.550239124570059,2805.16097416044
0.545926976781994,2805.17097416044
0.538033302880833,2805.18097416044
0.526208075118823,2805.19097416044
0.510115167654295,2805.20097416044
0.491077218523566,2805.21097416044
0.469194314983605,2805.22097416044
0.445501688933912,2805.23097416044
0.422137154147127,2805.24097416044
0.40226424796115,2805.25097416044
0.387210139217241,2805.26097416044
0.37816668949216,2805.27097416044
0.374775286009007,2805.28097416044
0.375282521068019,2805.29097416044
0.378133051102081,2805.30097416044
0.381200829906855,2805.31097416044
0.383705737845601,2805.32097416044
0.38546709272203,2805.33097416044
0.386867733471082,2805.34097416044
0.386732882095628,2805.35097416044
0.384987908562186,2805.36097416044
0.379470384438582,2805.37097416044
0.371133564214152,2805.38097416044
0.36014644808481,2805.39097416044
0.347523612838015,2805.40097416044
0.333805599942129,2805.41097416044
0.319764561079549,2805.42097416044
0.305361634170622,2805.43097416044
0.291071989453012,2805.44097416044
0.276462770498909,2805.45097416044
0.261216093297434,2805.46097416044
0.245071488012599,2805.47097416044
0.228489391596361,2805.48097416044
0.211987929181546,2805.49097416044
0.196450254446849,2805.50097416044
0.181666149927043,2805.51097416044
0.166630521349465,2805.52097416044
0.151471659257264,2805.53097416044
0.137255965132567,2805.54097416044
0.124386963603553,2805.55097416044
0.112787868508722,2805.56097416044
0.101692716670941,2805.57097416044
0.0908708172248278,2805.58097416044
0.0801388193847778,2805.59097416044
0.0689292279810867,2805.60097416044
0.0572746606265863,2805.61097416044
0.0452625935721295,2805.62097416044
0.0337245026009889,2805.63097416044
0.0226272217656231,2805.64097416044
0.0122555774986654,2805.65097416044
0.00140582567008294,2805.66097416044
-0.0101158620995956,2805.67097416044
-0.0213947740659503,2805.68097416044
-0.0324954767919353,2805.69097416044
-0.0432063698617346,2805.70097416044
-0.0525591357422521,2805.71097416044
-0.0618766161058913,2805.72097416044
-0.0710177544668099,2805.73097416044
-0.0797267540179755,2805.74097416044
-0.0884376878472483,2805.75097416044
-0.0971451815527598,2805.76097416044
-0.106230255443859,2805.77097416044
-0.115786668517177,2805.78097416044
-0.125654676171912,2805.79097416044
-0.135257740356821,2805.80097416044
-0.144007247702468,2805.81097416044
-0.151428070202629,2805.82097416044
-0.156439981448985,2805.83097416044
-0.157589396760712,2805.84097416044
-0.149677149442992,2805.85097416044
-0.128093765096794,2805.86097416044
-0.0879074901505091,2805.87097416044
-0.0276426872197905,2805.88097416044
0.0495505325766645,2805.89097416044
0.140207777633835,2805.90097416044
0.237040858161314,2805.91097416044
0.332814384916316,2805.92097416044
0.420179052441448,2805.93097416044
0.493807102231803,2805.94097416044
0.549925618845658,2805.95097416044
0.588186774771633,2805.96097416044
0.610131005284532,2805.97097416044
0.619949296024607,2805.98097416044
0.621666185118286,2805.99097416044
0.617743596547139,2806.00097416044
0.61136879381215,2806.01097416044
0.603641332996352,2806.02097416044
0.596698361935486,2806.03097416044
0.591749184213007,2806.04097416044
0.588970267739121,2806.05097416044
0.5876453295874,2806.06097416044
0.586864700415768,2806.07097416044
0.586683073516598,2806.08097416044
0.587374550917575,2806.09097416044
0.587158150455049,2806.10097416044
0.585922811813383,2806.11097416044
0.583164743218979,2806.12097416044
0.577462587627826,2806.13097416044
0.567263849136898,2806.14097416044
0.551799384060386,2806.15097416044
0.530684893878165,2806.16097416044
0.505892286739218,2806.17097416044
0.480268670889144,2806.18097416044
0.456394588101359,2806.19097416044
0.43604191827303,2806.20097416044
0.420214611101455,2806.21097416044
0.408723308852905,2806.22097416044
0.40202714055682,2806.23097416044
0.398907839914523,2806.24097416044
0.397556198815064,2806.25097416044
0.397317802637813,2806.26097416044
0.397970251492248,2806.27097416044
0.399535085591241,2806.28097416044
0.401059103968161,2806.29097416044
0.40018897179724,2806.30097416044
0.396847705014324,2806.31097416044
0.39084504511663,2806.32097416044
0.384408711215937,2806.33097416044
0.377204032526043,2806.34097416044
0.368160631641175,2806.35097416044
0.357620976737832,2806.36097416044
0.344617007170296,2806.37097416044
0.330372058369972,2806.38097416044
0.314101908241801,2806.39097416044
0.296544487108338,2806.40097416044
0.279095444087164,2806.41097416044
0.261656933637314,2806.42097416044
0.244892431071053,2806.43097416044
0.227506134363973,2806.44097416044
0.210277819198834,2806.45097416044
0.193264954341457,2806.46097416044
0.17642969617248,2806.47097416044
0.16077599853477,2806.48097416044
0.146147131701546,2806.49097416044
0.132236636512106,2806.50097416044
0.118411098752084,2806.51097416044
0.105131792827616,2806.52097416044
0.0922373482089673,2806.53097416044
0.0793939106755579,2806.54097416044
0.0668963255683647,2806.55097416044
0.0549478055364653,2806.56097416044
0.0431680218292254,2806.57097416044
0.0324327970222566,2806.58097416044
0.0219342601745709,2806.59097416044
0.0113632620891448,2806.60097416044
0.00105174776316198,2806.61097416044
-0.00942847223718679,2806.62097416044
-0.0209616008306061,2806.63097416044
-0.0314831837171224,2806.64097416044
-0.0423478913215466,2806.65097416044
-0.0525087309798184,2806.66097416044
-0.0621474459058759,2806.67097416044
-0.0711224422141361,2806.68097416044
-0.0799651863473644,2806.69097416044
-0.0886795177248948,2806.70097416044
-0.0976082335211398,2806.71097416044
-0.107135425418328,2806.72097416044
-0.116566292103109,2806.73097416044
-0.125906553656827,2806.74097416044
-0.135061301275104,2806.75097416044
-0.143927035757253,2806.76097416044
-0.152809206481584,2806.77097416044
-0.161782783285764,2806.78097416044
-0.171643162924176,2806.79097416044
-0.182183552794081,2806.80097416044
-0.193181939077652,2806.81097416044
-0.20350270888633,2806.82097416044
-0.213051532733656,2806.83097416044
-0.222015206011607,2806.84097416044
-0.23085657258853,2806.85097416044
-0.2406328688753,2806.86097416044
-0.249720317990424,2806.87097416044
-0.257816935193015,2806.88097416044
-0.264511927317294,2806.89097416044
-0.270964158442396,2806.90097416044
-0.278239767716304,2806.91097416044
-0.286370564909311,2806.92097416044
-0.296135256467086,2806.93097416044
-0.306245948559806,2806.94097416044
-0.315384433486271,2806.95097416044
-0.321834409401376,2806.96097416044
-0.322575844956676,2806.97097416044
-0.312677586467736,2806.98097416044
-0.286298773967397,2806.99097416044
-0.239336632027096,2807.00097416044
-0.170663956515228,2807.01097416044
-0.0823889508073748,2807.02097416044
0.0197402679407087,2807.03097416044
0.127614658804634,2807.04097416044
0.234817688845453,2807.05097416044
0.33281895736611,2807.06097416044
0.415773008342612,2807.07097416044
0.480787729733856,2807.08097416044
0.525620713315532,2807.09097416044
0.552467397551737,2807.10097416044
0.565046838761611,2807.11097416044
0.568113547981019,2807.12097416044
0.564917223073132,2807.13097416044
0.557662919081509,2807.14097416044
0.548221178546533,2807.15097416044
0.538535513238527,2807.16097416044
0.530442068429335,2807.17097416044
0.52413462394872,2807.18097416044
0.518932592065949,2807.19097416044
0.515083310718332,2807.20097416044
0.512032762753078,2807.21097416044
0.509154649436477,2807.22097416044
0.50597420820532,2807.23097416044
0.502866124673024,2807.24097416044
0.498764189522705,2807.25097416044
0.49226447312203,2807.26097416044
0.482131441013547,2807.27097416044
0.46741174634979,2807.28097416044
0.44824498981477,2807.29097416044
0.426864345979349,2807.30097416044
0.406298635628041,2807.31097416044
0.387967166146796,2807.32097416044
0.373429660675175,2807.33097416044
0.363110621440745,2807.34097416044
0.356386151328301,2807.35097416044
0.354619854666092,2807.36097416044
0.355932514500517,2807.37097416044
0.360418276409557,2807.38097416044
0.365642669127162,2807.39097416044
0.371834348576655,2807.40097416044
0.377069374602653,2807.41097416044
0.381498798430164,2807.42097416044
0.383291230077556,2807.43097416044
0.382131383552733,2807.44097416044
0.377343505951149,2807.45097416044
0.368945035658951,2807.46097416044
0.357851971260745,2807.47097416044
0.344968172667762,2807.48097416044
0.330528277596822,2807.49097416044
0.315886365859668,2807.50097416044
0.301013226644651,2807.51097416044
0.286208183851011,2807.52097416044
0.271600812230084,2807.53097416044
0.256547508698806,2807.54097416044
0.240788418994631,2807.55097416044
0.224110170998194,2807.56097416044
0.208220807829895,2807.57097416044
0.193325650524685,2807.58097416044
0.179367234866472,2807.59097416044
0.165624377731334,2807.60097416044
0.152387816728112,2807.61097416044
0.13870775122815,2807.62097416044
0.124569060165649,2807.63097416044
0.109311704807863,2807.64097416044
0.0942005574979219,2807.65097416044
0.0799945948210173,2807.66097416044
0.0672098310011232,2807.67097416044
0.0542529119734007,2807.68097416044
0.0404811887834874,2807.69097416044
0.0262014870670933,2807.70097416044
0.0127965120096077,2807.71097416044
0.00131434335083543,2807.72097416044
-0.00863475217723687,2807.73097416044
-0.017487173012001,2807.74097416044
-0.0259933139900315,2807.75097416044
-0.0342054932550494,2807.76097416044
-0.0420236231717705,2807.77097416044
-0.0491040861863768,2807.78097416044
-0.0553005216213255,2807.79097416044
-0.0606423427606849,2807.80097416044
-0.0649720110522989,2807.81097416044
-0.0692013857575885,2807.82097416044
-0.073619250322325,2807.83097416044
-0.0788503526362148,2807.84097416044
-0.0853434624060179,2807.85097416044
-0.0936478582192888,2807.86097416044
-0.104297007294539,2807.87097416044
-0.116693968825214,2807.88097416044
-0.129426791580728,2807.89097416044
-0.142102108560611,2807.90097416044
-0.153967772512912,2807.91097416044
-0.164980762080803,2807.92097416044
-0.173324761835415,2807.93097416044
-0.172929398980357,2807.94097416044
-0.158124695587049,2807.95097416044
-0.123078273339048,2807.96097416044
-0.0654685908228571,2807.97097416044
0.0120481773009766,2807.98097416044
0.103142685415726,2807.99097416044
0.202588794572707,2808.00097416044
0.302215964173984,2808.01097416044
0.394684506775703,2808.02097416044
0.474468397833451,2808.03097416044
0.53804490992584,2808.04097416044
0.584993689427038,2808.05097416044
0.615092418919299,2808.06097416044
0.631173095934842,2808.07097416044
0.636108148393431,2808.08097416044
0.63387805271909,2808.09097416044
0.627666439307714,2808.10097416044
0.620148411405063,2808.11097416044
0.61234230811553,2808.12097416044
0.604503375001826,2808.13097416044
0.597835720134682,2808.14097416044
0.592778502272205,2808.15097416044
0.588773275447559,2808.16097416044
0.585210032535232,2808.17097416044
0.581542923217983,2808.18097416044
0.577892731919117,2808.19097416044
0.574260300704224,2808.20097416044
0.570277256528307,2808.21097416044
0.563963971191843,2808.22097416044
0.554130853633945,2808.23097416044
0.538928428538785,2808.24097416044
0.51822822677208,2808.25097416044
0.494199851904293,2808.26097416044
0.468463525402856,2808.27097416044
0.444697994992748,2808.28097416044
0.424814733797846,2808.29097416044
0.409565812875286,2808.30097416044
0.399577539095155,2808.31097416044
0.39302959059437,2808.32097416044
0.389362871270968,2808.33097416044
0.388417099789315,2808.34097416044
0.389691914521871,2808.35097416044
0.392760258818779,2808.36097416044
0.396079930044774,2808.37097416044
0.398330407831296,2808.38097416044
0.398307361265608,2808.39097416044
0.395394862253409,2808.40097416044
0.389255695583024,2808.41097416044
0.380324454896255,2808.42097416044
0.369332294712531,2808.43097416044
0.357090369992705,2808.44097416044
0.344099043697442,2808.45097416044
0.33015330230107,2808.46097416044
0.314241553599096,2808.47097416044
0.296498295276507,2808.48097416044
0.278921442218651,2808.49097416044
0.262724448623885,2808.50097416044
0.248534256928928,2808.51097416044
0.234887321420788,2808.52097416044
0.220720210224265,2808.53097416044
0.2060576965776,2808.54097416044
0.191141664726076,2808.55097416044
0.176149172599525,2808.56097416044
0.161540859468759,2808.57097416044
0.147057387924237,2808.58097416044
0.1324042827306,2808.59097416044
0.117912282840408,2808.60097416044
0.103450252359981,2808.61097416044
0.088575014247736,2808.62097416044
0.0738453677650819,2808.63097416044
0.0595845823661404,2808.64097416044
0.0461961655814423,2808.65097416044
0.0338091603954462,2808.66097416044
0.0219437150641785,2808.67097416044
0.0102539271972426,2808.68097416044
-0.00106848063522085,2808.69097416044
-0.0127665603071303,2808.70097416044
-0.0246779454686232,2808.71097416044
-0.0367609527908795,2808.72097416044
-0.0486785046139006,2808.73097416044
-0.0600798165647603,2808.74097416044
-0.0709331760550632,2808.75097416044
-0.0825897114417845,2808.76097416044
-0.0939118495405507,2808.77097416044
-0.104843735181885,2808.78097416044
-0.113955845538066,2808.79097416044
-0.122249063662128,2808.80097416044
-0.130088344819328,2808.81097416044
-0.138593210100186,2808.82097416044
-0.147680954351818,2808.83097416044
-0.156629085290999,2808.84097416044
-0.16650042384502,2808.85097416044
-0.176487649771394,2808.86097416044
-0.186387016007249,2808.87097416044
-0.196407744966644,2808.88097416044
-0.205769307650534,2808.89097416044
-0.215017214519316,2808.90097416044
-0.222609330664907,2808.91097416044
-0.225261212139189,2808.92097416044
-0.218329715135318,2808.93097416044
-0.1957593528326,2808.94097416044
-0.153188870419732,2808.95097416044
-0.088459208136159,2808.96097416044
-0.00419259534621873,2808.97097416044
0.0937850034797187,2808.98097416044
0.198324472832327,2808.99097416044
0.30147662314263,2809.00097416044
0.395793483643285,2809.01097416044
0.475827178649129,2809.02097416044
0.539138697913504,2809.03097416044
0.584693946510267,2809.04097416044
0.614411243244141,2809.05097416044
0.629866993199043,2809.06097416044
0.634557082177531,2809.07097416044
0.632361513756434,2809.08097416044
0.625803880527982,2809.09097416044
0.617617644023705,2809.10097416044
0.609669550851757,2809.11097416044
0.602264234297355,2809.12097416044
0.595904255066791,2809.13097416044
0.591086969377736,2809.14097416044
0.587604296371626,2809.15097416044
0.584327765768662,2809.16097416044
0.581335328857056,2809.17097416044
0.57832805607819,2809.18097416044
0.575935403984599,2809.19097416044
0.571901979373699,2809.20097416044
0.565783093683375,2809.21097416044
0.554607229296499,2809.22097416044
0.536579661359393,2809.23097416044
0.513096888381698,2809.24097416044
0.485946154773529,2809.25097416044
0.457697385313444,2809.26097416044
0.431689179859091,2809.27097416044
0.409725349723848,2809.28097416044
0.393180270359441,2809.29097416044
0.381271697071598,2809.30097416044
0.372879031378439,2809.31097416044
0.368125849088003,2809.32097416044
0.366705008021118,2809.33097416044
0.367995906073432,2809.34097416044
0.370745988650955,2809.35097416044
0.373232032124175,2809.36097416044
0.373658090600947,2809.37097416044
0.371883885573729,2809.38097416044
0.367966123632892,2809.39097416044
0.361297811087471,2809.40097416044
0.352429190769639,2809.41097416044
