PPG,time
1086.72090650188,2714.12926108248
2150.85343886872,2714.13926108248
1901.17058506078,2714.14926108248
2051.062033539,2714.15926108248
1971.1422171802,2714.16926108248
2028.83728827393,2714.17926108248
1992.14818946843,2714.18926108248
2005.5088307265,2714.19926108248
1982.06751417758,2714.20926108248
1969.4347416419,2714.21926108248
1945.89394225845,2714.22926108248
1932.33562965124,2714.23926108248
1927.49413922365,2714.24926108248
1928.31002213809,2714.25926108248
1922.8797957988,2714.26926108248
1921.86665135572,2714.27926108248
1911.09658610783,2714.28926108248
1888.83703391941,2714.29926108248
1869.38105297215,2714.30926108248
1862.70937481201,2714.31926108248
1862.07698603174,2714.32926108248
1861.61835144392,2714.33926108248
1862.92995494697,2714.34926108248
1857.70648803749,2714.35926108248
1844.51346364405,2714.36926108248
1837.50013119782,2714.37926108248
1829.19886162793,2714.38926108248
1814.86548444156,2714.39926108248
1798.07008442024,2714.40926108248
1787.56922696311,2714.41926108248
1781.89054218432,2714.42926108248
1770.9421204094,2714.43926108248
1753.75563253439,2714.44926108248
1743.83996078206,2714.45926108248
1730.99718443155,2714.46926108248
1723.18993911482,2714.47926108248
1723.97820684386,2714.48926108248
1734.520267601,2714.49926108248
1758.25515787655,2714.50926108248
1802.30361564998,2714.51926108248
1856.8143109095,2714.52926108248
1926.18709636517,2714.53926108248
2002.68539966504,2714.54926108248
2086.82606746388,2714.55926108248
2172.89200173653,2714.56926108248
2256.24596023733,2714.57926108248
2345.34727518796,2714.58926108248
2421.8013587303,2714.59926108248
2486.99682161393,2714.60926108248
2533.44061898469,2714.61926108248
2558.86993559842,2714.62926108248
2576.64200844783,2714.63926108248
2584.62880633774,2714.64926108248
2590.56539290504,2714.65926108248
2594.67661946759,2714.66926108248
2586.78629702928,2714.67926108248
2551.00388483097,2714.68926108248
2503.84688299771,2714.69926108248
2457.74760309224,2714.70926108248
2420.20253922023,2714.71926108248
2387.97936567817,2714.72926108248
2347.36416343606,2714.73926108248
2310.49643776289,2714.74926108248
2273.97888494798,2714.75926108248
2240.71327076995,2714.76926108248
2207.12099288908,2714.77926108248
2164.88428913748,2714.78926108248
2118.95506304944,2714.79926108248
2069.34623051435,2714.80926108248
2019.91920185674,2714.81926108248
1976.07162689363,2714.82926108248
1935.77156832892,2714.83926108248
1897.14227671385,2714.84926108248
1871.32880253898,2714.85926108248
1851.93782626879,2714.86926108248
1843.05006361671,2714.87926108248
1849.10457064265,2714.88926108248
1854.96307492177,2714.89926108248
1856.07444848967,2714.90926108248
1855.95450116339,2714.91926108248
1850.88485798957,2714.92926108248
1851.2499606901,2714.93926108248
1858.82332294699,2714.94926108248
1861.89565535621,2714.95926108248
1863.85899407926,2714.96926108248
1878.56861483966,2714.97926108248
1880.16860802058,2714.98926108248
1880.19936255864,2714.99926108248
1874.87438159107,2715.00926108248
1869.40446214293,2715.01926108248
1856.00827335764,2715.02926108248
1837.92176178776,2715.03926108248
1814.32425093227,2715.04926108248
1791.81500589753,2715.05926108248
1765.30819283652,2715.06926108248
1734.3983277638,2715.07926108248
1718.36539424185,2715.08926108248
1704.22327232198,2715.09926108248
1697.960966143,2715.10926108248
1691.88169788043,2715.11926108248
1680.84561417868,2715.12926108248
1664.12839995382,2715.13926108248
1643.64705584347,2715.14926108248
1624.38913169291,2715.15926108248
1601.50611193093,2715.16926108248
1578.85531484318,2715.17926108248
1562.03948189354,2715.18926108248
1546.06699655499,2715.19926108248
1531.42324415064,2715.20926108248
1544.72560065825,2715.21926108248
1578.57823181595,2715.22926108248
1639.25286860689,2715.23926108248
1726.80569039918,2715.24926108248
1834.67065328541,2715.25926108248
1952.4452084334,2715.26926108248
2069.76790467427,2715.27926108248
2186.09230282147,2715.28926108248
2298.37785099604,2715.29926108248
2380.78912867776,2715.30926108248
2436.73230524579,2715.31926108248
2463.23784862344,2715.32926108248
2469.3634378909,2715.33926108248
2461.1012831447,2715.34926108248
2444.70568834036,2715.35926108248
2423.60498024688,2715.36926108248
2406.62110201245,2715.37926108248
2390.1036951766,2715.38926108248
2376.92983850527,2715.39926108248
2363.13030103266,2715.40926108248
2340.02063403424,2715.41926108248
2304.04102814122,2715.42926108248
2261.1457570866,2715.43926108248
2224.05485342689,2715.44926108248
2195.10915798186,2715.45926108248
2171.84690909047,2715.46926108248
2146.17935729342,2715.47926108248
2108.28883372695,2715.48926108248
2068.03869850379,2715.49926108248
2030.87588268999,2715.50926108248
1988.90108325678,2715.51926108248
1963.34080314077,2715.52926108248
1950.24624482943,2715.53926108248
1945.60884923139,2715.54926108248
1950.59641237297,2715.55926108248
1954.28194825237,2715.56926108248
1958.24143210351,2715.57926108248
1962.76895117913,2715.58926108248
1964.27947374422,2715.59926108248
1964.01577241003,2715.60926108248
1962.43478510364,2715.61926108248
1950.69178710528,2715.62926108248
1938.93770645949,2715.63926108248
1921.85602660885,2715.64926108248
1908.39950338416,2715.65926108248
1898.49821299196,2715.66926108248
1898.14209015524,2715.67926108248
1897.65125763999,2715.68926108248
1903.46742719955,2715.69926108248
1902.04550943079,2715.70926108248
1897.50205684499,2715.71926108248
1893.40737040513,2715.72926108248
1890.10297239628,2715.73926108248
1878.54292587558,2715.74926108248
1873.75424605371,2715.75926108248
1872.41007436284,2715.76926108248
1871.82174286379,2715.77926108248
1876.77983224944,2715.78926108248
1875.25748744094,2715.79926108248
1873.51660754803,2715.80926108248
1874.47689777077,2715.81926108248
1871.83517604782,2715.82926108248
1856.39315913032,2715.83926108248
1835.17747366962,2715.84926108248
1813.32346449314,2715.85926108248
1795.28504994112,2715.86926108248
1784.01395713812,2715.87926108248
1785.13443753799,2715.88926108248
1814.5212314561,2715.89926108248
1873.43937723687,2715.90926108248
1957.18809830477,2715.91926108248
2056.90718941241,2715.92926108248
2160.57273029924,2715.93926108248
2251.69328990064,2715.94926108248
2336.79347792021,2715.95926108248
2417.44684709267,2715.96926108248
2477.50473937905,2715.97926108248
2534.98501367478,2715.98926108248
2583.93457024153,2715.99926108248
2618.63038186703,2716.00926108248
2643.80601376261,2716.01926108248
2658.42155468672,2716.02926108248
2660.68159646624,2716.03926108248
2660.23296959472,2716.04926108248
2653.84963924163,2716.05926108248
2629.56282007688,2716.06926108248
2596.38500256886,2716.07926108248
2562.44912766387,2716.08926108248
2526.42973091101,2716.09926108248
2482.44919698354,2716.10926108248
2444.06702483468,2716.11926108248
2408.65301644141,2716.12926108248
2366.26888587204,2716.13926108248
2314.60006923448,2716.14926108248
2263.2111242846,2716.15926108248
2205.06005831197,2716.16926108248
2159.69760240292,2716.17926108248
2114.41040746453,2716.18926108248
2076.51843376545,2716.19926108248
2046.13383120689,2716.20926108248
2012.71238588459,2716.21926108248
1996.33346036108,2716.22926108248
1986.66558132302,2716.23926108248
1993.54412274674,2716.24926108248
2003.19430189487,2716.25926108248
2013.66468827934,2716.26926108248
2018.32481996545,2716.27926108248
2017.98080168196,2716.28926108248
2022.69684993629,2716.29926108248
2035.86746583621,2716.30926108248
2054.56779895959,2716.31926108248
2061.535937356,2716.32926108248
2048.99939923023,2716.33926108248
2021.19742857936,2716.34926108248
1982.10821179246,2716.35926108248
1943.62358811989,2716.36926108248
1920.06808582801,2716.37926108248
1899.8660877941,2716.38926108248
1889.84194351123,2716.39926108248
1883.54167150813,2716.40926108248
1873.94354928529,2716.41926108248
1860.98384522199,2716.42926108248
1839.46086956501,2716.43926108248
1820.02715185468,2716.44926108248
1791.90765130595,2716.45926108248
1778.87391934276,2716.46926108248
1775.75784397114,2716.47926108248
1771.37093597853,2716.48926108248
1772.29723609832,2716.49926108248
1769.88933468796,2716.50926108248
1759.8894616864,2716.51926108248
1752.25183627086,2716.52926108248
1752.83128629444,2716.53926108248
1762.48426804793,2716.54926108248
1785.58099939925,2716.55926108248
1824.5228532572,2716.56926108248
1894.65424780978,2716.57926108248
1984.09081915664,2716.58926108248
2085.4027820314,2716.59926108248
2198.65990852089,2716.60926108248
2322.71055797004,2716.61926108248
2444.66724774889,2716.62926108248
2562.299135202,2716.63926108248
2665.05281758269,2716.64926108248
2751.31134166876,2716.65926108248
2815.87627432471,2716.66926108248
2854.18074463775,2716.67926108248
2879.25829999765,2716.68926108248
2889.64755601506,2716.69926108248
2886.07701509682,2716.70926108248
2880.06786656289,2716.71926108248
2866.0308718405,2716.72926108248
2853.96294364411,2716.73926108248
2842.17205912444,2716.74926108248
2828.30110636944,2716.75926108248
2809.60379499282,2716.76926108248
2795.64285976669,2716.77926108248
2769.44788085695,2716.78926108248
2736.84053054823,2716.79926108248
2698.50570399748,2716.80926108248
2653.0204518454,2716.81926108248
2616.53260515802,2716.82926108248
2583.69548258654,2716.83926108248
2532.6759919827,2716.84926108248
2481.2713413366,2716.85926108248
2432.50524947029,2716.86926108248
2387.67271634747,2716.87926108248
2342.66620709971,2716.88926108248
2308.68481696554,2716.89926108248
2284.04687334288,2716.90926108248
2254.50202318866,2716.91926108248
2233.3452585594,2716.92926108248
2212.5934387732,2716.93926108248
2203.98260783333,2716.94926108248
2210.92877333621,2716.95926108248
2221.47707422622,2716.96926108248
2226.89631371779,2716.97926108248
2223.34719240615,2716.98926108248
2216.71090914525,2716.99926108248
2210.97117069025,2717.00926108248
2209.77314600233,2717.01926108248
2205.29159432881,2717.02926108248
2203.48891911898,2717.03926108248
2199.73492768787,2717.04926108248
2190.81899050946,2717.05926108248
2183.79964313294,2717.06926108248
2168.26922176737,2717.07926108248
2154.24530719336,2717.08926108248
2143.43554479495,2717.09926108248
2128.76653339196,2717.10926108248
2116.90871739032,2717.11926108248
2114.26665013819,2717.12926108248
2112.20980964628,2717.13926108248
2094.72269643045,2717.14926108248
2057.43183825626,2717.15926108248
2025.12417850316,2717.16926108248
1995.12107275545,2717.17926108248
1973.32655145806,2717.18926108248
1969.79571959085,2717.19926108248
1974.3924635114,2717.20926108248
1977.7109047614,2717.21926108248
1990.13877927345,2717.22926108248
2009.93021833348,2717.23926108248
2030.37672891752,2717.24926108248
2068.68283663336,2717.25926108248
2133.50762846533,2717.26926108248
2217.8603469579,2717.27926108248
2322.75212256796,2717.28926108248
2426.14578201781,2717.29926108248
2525.80889408786,2717.30926108248
2617.12193565804,2717.31926108248
2693.7929228053,2717.32926108248
2749.71700038334,2717.33926108248
2795.00026051015,2717.34926108248
2827.51719915024,2717.35926108248
2843.79445498996,2717.36926108248
2844.54282900765,2717.37926108248
2837.6876900983,2717.38926108248
2829.30936662555,2717.39926108248
2826.30046884709,2717.40926108248
2818.61931160317,2717.41926108248
2805.01244970272,2717.42926108248
2791.85131374667,2717.43926108248
2769.87450199053,2717.44926108248
2746.31493518228,2717.45926108248
2727.1952158137,2717.46926108248
2699.03017173308,2717.47926108248
2671.24512803488,2717.48926108248
2639.9450667459,2717.49926108248
2611.33810858739,2717.50926108248
2576.83244996592,2717.51926108248
2533.86346350614,2717.52926108248
2484.20489821945,2717.53926108248
2437.62386064253,2717.54926108248
2406.51216828823,2717.55926108248
2380.91932916481,2717.56926108248
2364.39839909285,2717.57926108248
2347.95481241466,2717.58926108248
2334.17699282615,2717.59926108248
2319.6601124059,2717.60926108248
2312.65541837115,2717.61926108248
2302.02060500994,2717.62926108248
2294.45927216548,2717.63926108248
2289.12067483629,2717.64926108248
2282.66398318245,2717.65926108248
2277.19500509496,2717.66926108248
2275.27741309486,2717.67926108248
2278.31206617975,2717.68926108248
2282.34320686352,2717.69926108248
2286.86029739247,2717.70926108248
2287.16667284973,2717.71926108248
2277.3026071306,2717.72926108248
2258.5003461347,2717.73926108248
2236.01497586929,2717.74926108248
2201.78987588255,2717.75926108248
2174.68440498654,2717.76926108248
2155.16299379341,2717.77926108248
2139.81089413638,2717.78926108248
2131.24029503685,2717.79926108248
2121.75588961269,2717.80926108248
2095.44759701622,2717.81926108248
2067.03198870664,2717.82926108248
2039.14862619556,2717.83926108248
2007.60046797851,2717.84926108248
1987.00490748665,2717.85926108248
1976.36057055874,2717.86926108248
1976.09684557316,2717.87926108248
1975.55596948149,2717.88926108248
1976.55049697075,2717.89926108248
1968.57843164665,2717.90926108248
1958.73715536997,2717.91926108248
1955.59351603498,2717.92926108248
1951.65710723088,2717.93926108248
1950.10085846394,2717.94926108248
1949.64073438455,2717.95926108248
1965.20245782176,2717.96926108248
1993.90400651413,2717.97926108248
2040.22134091549,2717.98926108248
2101.26906297967,2717.99926108248
2189.18463476431,2718.00926108248
2290.22968034642,2718.01926108248
2388.71804967233,2718.02926108248
2474.73935829417,2718.03926108248
2552.80804288861,2718.04926108248
2617.43971048687,2718.05926108248
2667.8860466193,2718.06926108248
2701.56801048997,2718.07926108248
2724.40300868505,2718.08926108248
2731.74261858026,2718.09926108248
2717.97149654159,2718.10926108248
2705.14157155415,2718.11926108248
2692.59103298925,2718.12926108248
2677.23247587527,2718.13926108248
2662.75905724554,2718.14926108248
2647.15065518023,2718.15926108248
2625.3829572648,2718.16926108248
2580.07226481274,2718.17926108248
2532.3465427863,2718.18926108248
2476.14222062881,2718.19926108248
2430.51677979989,2718.20926108248
2381.72611939965,2718.21926108248
2336.2408828477,2718.22926108248
2283.05534465488,2718.23926108248
2221.01057134987,2718.24926108248
2164.2668946008,2718.25926108248
2109.5070887078,2718.26926108248
2072.51084134452,2718.27926108248
2050.51802483141,2718.28926108248
2030.61011593117,2718.29926108248
2009.54791600908,2718.30926108248
1990.02816299399,2718.31926108248
1978.82497069472,2718.32926108248
1971.85724260381,2718.33926108248
1973.63427183687,2718.34926108248
1965.88794032761,2718.35926108248
1965.1984217276,2718.36926108248
1962.76924544076,2718.37926108248
1950.86501732841,2718.38926108248
1948.35855552978,2718.39926108248
1932.99979332256,2718.40926108248
1916.28280540324,2718.41926108248
1907.16666886406,2718.42926108248
1891.02529503917,2718.43926108248
1881.89242124779,2718.44926108248
1871.96505134886,2718.45926108248
1865.574357887,2718.46926108248
1851.43758549914,2718.47926108248
1828.17528108166,2718.48926108248
1800.54068191782,2718.49926108248
1773.16704722923,2718.50926108248
1753.409670345,2718.51926108248
1745.23253028191,2718.52926108248
1737.09783730481,2718.53926108248
1726.41488791386,2718.54926108248
1716.84757507831,2718.55926108248
1700.79533233104,2718.56926108248
1686.94966764865,2718.57926108248
1674.19743115335,2718.58926108248
1658.20987964039,2718.59926108248
1646.5436660764,2718.60926108248
1631.15141519419,2718.61926108248
1602.33538696045,2718.62926108248
1571.29692489321,2718.63926108248
1540.58160969629,2718.64926108248
1525.39777807679,2718.65926108248
1509.85816649345,2718.66926108248
1495.85011923566,2718.67926108248
1489.36733371056,2718.68926108248
1484.82206813795,2718.69926108248
1484.28791837318,2718.70926108248
1487.55671473184,2718.71926108248
1493.25083553345,2718.72926108248
1492.51154583982,2718.73926108248
1486.10480978921,2718.74926108248
1486.09496185316,2718.75926108248
1511.55398407108,2718.76926108248
1563.1777095295,2718.77926108248
1647.9058528301,2718.78926108248
1755.48676999919,2718.79926108248
1886.52506769591,2718.80926108248
2030.77110567865,2718.81926108248
2170.38765788674,2718.82926108248
2290.58370651976,2718.83926108248
2394.18001274116,2718.84926108248
2468.17163077769,2718.85926108248
2515.96458359152,2718.86926108248
2532.07344991051,2718.87926108248
2535.45837554204,2718.88926108248
2541.35483345064,2718.89926108248
2546.24537962662,2718.90926108248
2550.37527600772,2718.91926108248
2556.92170593902,2718.92926108248
2550.37022934565,2718.93926108248
2531.03479463785,2718.94926108248
2502.54421115838,2718.95926108248
2478.14969588036,2718.96926108248
2458.54444139162,2718.97926108248
2444.2154875922,2718.98926108248
2426.55322332861,2718.99926108248
2389.72787752886,2719.00926108248
2345.62826222058,2719.01926108248
2301.05156220767,2719.02926108248
2260.96800653768,2719.03926108248
2211.74202897964,2719.04926108248
2173.06468273435,2719.05926108248
2141.59846506331,2719.06926108248
2111.93709512706,2719.07926108248
2089.72132500166,2719.08926108248
2079.33554692299,2719.09926108248
2082.22870727049,2719.10926108248
2102.50933786917,2719.11926108248
2119.16247400441,2719.12926108248
2135.01843503887,2719.13926108248
2152.42330983431,2719.14926108248
2166.07428074886,2719.15926108248
2183.57412659427,2719.16926108248
2202.55220215605,2719.17926108248
2219.71692418634,2719.18926108248
2228.44862718701,2719.19926108248
2236.83646461151,2719.20926108248
2220.03354590142,2719.21926108248
2209.95936819877,2719.22926108248
2202.63746061034,2719.23926108248
2195.47959967866,2719.24926108248
2175.11740702124,2719.25926108248
2158.60683399884,2719.26926108248
2137.79821160737,2719.27926108248
2114.63113184107,2719.28926108248
2086.50418329528,2719.29926108248
2052.53069004788,2719.30926108248
2001.49442736415,2719.31926108248
1963.75475028608,2719.32926108248
1942.41897318525,2719.33926108248
1933.86403614656,2719.34926108248
1929.51233610972,2719.35926108248
1929.15999149943,2719.36926108248
1938.58808443962,2719.37926108248
1948.85192827967,2719.38926108248
1950.21834385809,2719.39926108248
1944.28456373863,2719.40926108248
1935.89388969069,2719.41926108248
1929.69983572233,2719.42926108248
1924.79874864793,2719.43926108248
1919.89025829878,2719.44926108248
1918.00404884164,2719.45926108248
1903.89700319769,2719.46926108248
1888.13503539433,2719.47926108248
1875.85975738628,2719.48926108248
1862.20085820069,2719.49926108248
1859.31296343198,2719.50926108248
1865.99304512386,2719.51926108248
1876.24722787606,2719.52926108248
1891.09682989052,2719.53926108248
1922.374590562,2719.54926108248
1980.53539183407,2719.55926108248
2064.26594365806,2719.56926108248
2187.65660938818,2719.57926108248
2313.5835171759,2719.58926108248
2445.67916248479,2719.59926108248
2568.02077491893,2719.60926108248
2685.44784614885,2719.61926108248
2788.31272357725,2719.62926108248
2876.19553269524,2719.63926108248
2954.23205029304,2719.64926108248
3006.09716617953,2719.65926108248
3045.95751898077,2719.66926108248
3054.58404372235,2719.67926108248
3056.43879135906,2719.68926108248
3053.22733091315,2719.69926108248
3045.44092491318,2719.70926108248
3013.75594634123,2719.71926108248
2980.63577798677,2719.72926108248
2932.97096174634,2719.73926108248
2889.21226156499,2719.74926108248
2839.82272033599,2719.75926108248
2788.9373446477,2719.76926108248
2742.36912955794,2719.77926108248
2703.38680341135,2719.78926108248
2677.76796847475,2719.79926108248
2652.62347503818,2719.80926108248
2615.40186639064,2719.81926108248
2579.5399084471,2719.82926108248
2528.82925467781,2719.83926108248
2479.81873922268,2719.84926108248
2437.81102529879,2719.85926108248
2404.26501748472,2719.86926108248
2374.65136635272,2719.87926108248
2349.09890806695,2719.88926108248
2341.29917792444,2719.89926108248
2334.1478288389,2719.90926108248
2330.26200976951,2719.91926108248
2324.05854431727,2719.92926108248
2325.84980420242,2719.93926108248
2322.32468843628,2719.94926108248
2317.62542716135,2719.95926108248
2318.28475738203,2719.96926108248
2316.1910445012,2719.97926108248
2298.77180202772,2719.98926108248
2272.71068493076,2719.99926108248
2253.6677460725,2720.00926108248
2227.42507756755,2720.01926108248
2198.76228230632,2720.02926108248
2180.72324758014,2720.03926108248
2166.51312913598,2720.04926108248
2151.3910002611,2720.05926108248
2134.43074986544,2720.06926108248
2104.90733972706,2720.07926108248
2068.86142328421,2720.08926108248
2035.86446085974,2720.09926108248
2010.26960262643,2720.10926108248
1985.11783549955,2720.11926108248
1955.39111371625,2720.12926108248
1910.39069161265,2720.13926108248
1862.38177082062,2720.14926108248
1820.41456085541,2720.15926108248
1792.16009831633,2720.16926108248
1773.86213394263,2720.17926108248
1752.80249201803,2720.18926108248
1739.38857506391,2720.19926108248
1715.42472184465,2720.20926108248
1684.43941637038,2720.21926108248
1656.83957710155,2720.22926108248
1642.93001841693,2720.23926108248
1650.90073531879,2720.24926108248
1667.1147793034,2720.25926108248
1681.02417030744,2720.26926108248
1699.12676659876,2720.27926108248
1719.98907714006,2720.28926108248
1731.94770011721,2720.29926108248
1738.88918159107,2720.30926108248
1752.31125073601,2720.31926108248
1763.92241098851,2720.32926108248
1787.05077396145,2720.33926108248
1818.86957390423,2720.34926108248
1845.30313474068,2720.35926108248
1868.74983829402,2720.36926108248
1875.29506455957,2720.37926108248
1869.38020721579,2720.38926108248
1858.41877797202,2720.39926108248
1851.96473547061,2720.40926108248
1860.03713356339,2720.41926108248
1895.07302993452,2720.42926108248
1957.85545057905,2720.43926108248
2044.51890262032,2720.44926108248
2170.38440275714,2720.45926108248
2316.79116854122,2720.46926108248
2484.09389601268,2720.47926108248
2639.07103137384,2720.48926108248
2792.95495055835,2720.49926108248
2933.91220138714,2720.50926108248
3055.14377847341,2720.51926108248
3176.06184919771,2720.52926108248
3277.79410625447,2720.53926108248
3366.75541865235,2720.54926108248
3423.12213855629,2720.55926108248
3456.16009134466,2720.56926108248
3472.51497929402,2720.57926108248
3471.53092514919,2720.58926108248
3439.19414422739,2720.59926108248
3378.78841317156,2720.60926108248
3304.18713717171,2720.61926108248
3232.90391269599,2720.62926108248
3150.28061889461,2720.63926108248
3079.61953143364,2720.64926108248
3009.31223175855,2720.65926108248
2936.48815346345,2720.66926108248
2866.84990439785,2720.67926108248
2800.43836577097,2720.68926108248
2738.40496522862,2720.69926108248
2666.90091881608,2720.70926108248
2593.9738620699,2720.71926108248
2535.81619020957,2720.72926108248
2486.26818855976,2720.73926108248
2442.45883548305,2720.74926108248
2397.64274290176,2720.75926108248
2355.10976500714,2720.76926108248
2325.83629599077,2720.77926108248
2303.85213000991,2720.78926108248
2283.24905054127,2720.79926108248
2263.49603345178,2720.80926108248
2256.64455091337,2720.81926108248
2241.04154765011,2720.82926108248
2238.14479975939,2720.83926108248
2232.31962315537,2720.84926108248
2214.20047219611,2720.85926108248
2183.76722726275,2720.86926108248
2157.27763033319,2720.87926108248
2155.11051420035,2720.88926108248
2165.50913794304,2720.89926108248
2180.18516019554,2720.90926108248
2178.32133457432,2720.91926108248
2152.17226005104,2720.92926108248
2113.19552502871,2720.93926108248
2062.8616130085,2720.94926108248
2009.44905509639,2720.95926108248
1968.33505845023,2720.96926108248
1937.27491396536,2720.97926108248
1912.07393408659,2720.98926108248
1887.09250899323,2720.99926108248
1860.77014636648,2721.00926108248
1839.501999815,2721.01926108248
1830.6077963358,2721.02926108248
1813.84863019846,2721.03926108248
1796.28947311239,2721.04926108248
1766.63016416998,2721.05926108248
1723.43801248071,2721.06926108248
1682.02547167676,2721.07926108248
1640.52423061826,2721.08926108248
1609.7151911511,2721.09926108248
1590.03231044744,2721.10926108248
1570.38864874865,2721.11926108248
1552.74770919925,2721.12926108248
1529.30891187267,2721.13926108248
1504.20885829406,2721.14926108248
1475.39344286154,2721.15926108248
1442.61460990589,2721.16926108248
1418.53564431268,2721.17926108248
1400.26708106881,2721.18926108248
1378.06007504894,2721.19926108248
1348.45355741758,2721.20926108248
1307.53834852796,2721.21926108248
1285.36072745485,2721.22926108248
1273.98699733642,2721.23926108248
1268.87882845059,2721.24926108248
1268.26822028319,2721.25926108248
1272.30177283432,2721.26926108248
1286.15053809765,2721.27926108248
1306.32511864059,2721.28926108248
1320.50147456168,2721.29926108248
1333.7732383677,2721.30926108248
1332.31452281947,2721.31926108248
1324.4073682656,2721.32926108248
1326.6618303918,2721.33926108248
1316.48767446342,2721.34926108248
1326.10750217549,2721.35926108248
1348.94871510411,2721.36926108248
1398.51187976688,2721.37926108248
1495.8341296341,2721.38926108248
1635.88646389499,2721.39926108248
1812.17470708406,2721.40926108248
1996.04773491554,2721.41926108248
2173.26311089389,2721.42926108248
2340.33266779565,2721.43926108248
2484.94169113629,2721.44926108248
2596.19448844334,2721.45926108248
2670.23176781515,2721.46926108248
2719.5029294344,2721.47926108248
2740.72162508763,2721.48926108248
2749.84917947845,2721.49926108248
2751.70546853965,2721.50926108248
2751.36405514123,2721.51926108248
2735.83867274226,2721.52926108248
2723.31955466011,2721.53926108248
2712.85811191059,2721.54926108248
2693.40221907664,2721.55926108248
2659.47877634609,2721.56926108248
2624.66059409325,2721.57926108248
2579.54502615484,2721.58926108248
2513.83961999012,2721.59926108248
2440.17103479639,2721.60926108248
2369.88936436511,2721.61926108248
2308.23479799356,2721.62926108248
2250.27585320939,2721.63926108248
2197.53719136898,2721.64926108248
2146.99213928851,2721.65926108248
2089.72555924042,2721.66926108248
2041.01516813346,2721.67926108248
2006.19356279709,2721.68926108248
1972.37722412259,2721.69926108248
1929.87030413881,2721.70926108248
1891.75098580477,2721.71926108248
1864.08285162333,2721.72926108248
1856.83257076512,2721.73926108248
1861.02115681273,2721.74926108248
1869.7801511858,2721.75926108248
1890.86576812487,2721.76926108248
1917.74992023908,2721.77926108248
1932.75785018712,2721.78926108248
1934.11955633013,2721.79926108248
1941.58895751333,2721.80926108248
1941.20022980264,2721.81926108248
1929.48652010032,2721.82926108248
1916.85462612068,2721.83926108248
1904.10690211728,2721.84926108248
1891.63608876832,2721.85926108248
1885.71506301208,2721.86926108248
1879.19720503923,2721.87926108248
1866.14531636921,2721.88926108248
1851.66757582989,2721.89926108248
1832.21966992276,2721.90926108248
1813.69318844772,2721.91926108248
1785.87320117968,2721.92926108248
1750.08062680159,2721.93926108248
1700.67905049029,2721.94926108248
1650.27772396823,2721.95926108248
1596.50540746683,2721.96926108248
1545.09677638888,2721.97926108248
1497.18752624164,2721.98926108248
1459.91647095655,2721.99926108248
1436.42903276016,2722.00926108248
1422.3018367868,2722.01926108248
1420.03462244328,2722.02926108248
1431.6410664877,2722.03926108248
1456.91623288969,2722.04926108248
1474.19851055829,2722.05926108248
1480.15202322569,2722.06926108248
1463.16792211786,2722.07926108248
1444.363450741,2722.08926108248
1424.51559788483,2722.09926108248
1411.77484935036,2722.10926108248
1410.85622522665,2722.11926108248
1411.13708593005,2722.12926108248
1408.22645626226,2722.13926108248
1382.82937048349,2722.14926108248
1367.69761887048,2722.15926108248
1364.48692385403,2722.16926108248
1361.62017086135,2722.17926108248
1380.28726946706,2722.18926108248
1434.09022108769,2722.19926108248
1508.89166260582,2722.20926108248
1616.43998972275,2722.21926108248
1755.21068256436,2722.22926108248
1899.46120199392,2722.23926108248
2078.564140923,2722.24926108248
2237.26701899133,2722.25926108248
2409.74061319602,2722.26926108248
2579.14442005456,2722.27926108248
2724.80682417816,2722.28926108248
2855.67601650281,2722.29926108248
2938.97950541243,2722.30926108248
2999.0344037176,2722.31926108248
3018.36440313943,2722.32926108248
3018.28831632,2722.33926108248
2996.29261958622,2722.34926108248
2963.67363978245,2722.35926108248
2925.71816601604,2722.36926108248
2869.09834821482,2722.37926108248
2816.77457833521,2722.38926108248
2754.60829518806,2722.39926108248
2695.40544145343,2722.40926108248
2624.59261375435,2722.41926108248
2542.33945479943,2722.42926108248
2471.14929104314,2722.43926108248
2393.82305407261,2722.44926108248
2314.47461690825,2722.45926108248
2239.67024316898,2722.46926108248
2165.07929320804,2722.47926108248
2111.86996978474,2722.48926108248
2061.23562771545,2722.49926108248
2011.11292140952,2722.50926108248
1959.30894157243,2722.51926108248
1927.96705637486,2722.52926108248
1909.4743298704,2722.53926108248
1908.20622004029,2722.54926108248
1915.37519091799,2722.55926108248
1924.53726426152,2722.56926108248
1946.19504652658,2722.57926108248
1963.05137555168,2722.58926108248
1984.68070745965,2722.59926108248
1997.6738490233,2722.60926108248
2004.78362210285,2722.61926108248
1991.4016075194,2722.62926108248
1947.11599935838,2722.63926108248
1906.82047907063,2722.64926108248
1874.29460526907,2722.65926108248
1852.77863717888,2722.66926108248
1829.45468881265,2722.67926108248
1826.4088597456,2722.68926108248
1819.07231131184,2722.69926108248
1818.13294141153,2722.70926108248
1804.99019306719,2722.71926108248
1794.10833447503,2722.72926108248
1776.70007366653,2722.73926108248
1758.60222192565,2722.74926108248
1742.21451867566,2722.75926108248
1725.12941416042,2722.76926108248
1717.42378604559,2722.77926108248
1713.43884617393,2722.78926108248
1718.97305321319,2722.79926108248
1725.4400493516,2722.80926108248
1740.12433250167,2722.81926108248
1752.70164687505,2722.82926108248
1752.49182178487,2722.83926108248
1761.92033343767,2722.84926108248
1760.36008532452,2722.85926108248
1741.93905849873,2722.86926108248
1730.02380814074,2722.87926108248
1724.8622664031,2722.88926108248
1724.8717276565,2722.89926108248
1732.61084158177,2722.90926108248
1733.93885770591,2722.91926108248
1727.29905074425,2722.92926108248
1705.50295241511,2722.93926108248
1694.24820994371,2722.94926108248
1696.75706399755,2722.95926108248
1695.03579918748,2722.96926108248
1704.52853182824,2722.97926108248
1712.58052142379,2722.98926108248
1718.37934941145,2722.99926108248
1734.55062838494,2723.00926108248
1768.34439987032,2723.01926108248
1827.21697321699,2723.02926108248
1908.80193921861,2723.03926108248
2022.61591995113,2723.04926108248
2169.3855325448,2723.05926108248
2338.09327130421,2723.06926108248
2497.56642874804,2723.07926108248
2663.64825596664,2723.08926108248
2817.118434196,2723.09926108248
2941.90768106071,2723.10926108248
3030.37126725074,2723.11926108248
3087.76425089705,2723.12926108248
3104.38506120812,2723.13926108248
3099.1385274468,2723.14926108248
3075.01039229663,2723.15926108248
3041.66629371151,2723.16926108248
2996.32630945092,2723.17926108248
2955.59687269867,2723.18926108248
2921.23004406627,2723.19926108248
2893.14195415642,2723.20926108248
2869.60739112669,2723.21926108248
2830.01996542467,2723.22926108248
2781.2630755013,2723.23926108248
2734.63682498512,2723.24926108248
2685.9191572886,2723.25926108248
2626.99083660182,2723.26926108248
2565.76885411988,2723.27926108248
2509.99214829229,2723.28926108248
2461.72982819444,2723.29926108248
2406.65574135998,2723.30926108248
2344.48305836165,2723.31926108248
2271.6817946933,2723.32926108248
2195.40215365866,2723.33926108248
2127.88044262612,2723.34926108248
2089.10614189985,2723.35926108248
2058.47820729792,2723.36926108248
2022.64647470569,2723.37926108248
1987.49778517668,2723.38926108248
1951.20055810314,2723.39926108248
1940.91977883103,2723.40926108248
1949.55853399784,2723.41926108248
1973.34853039908,2723.42926108248
1995.96399682425,2723.43926108248
2019.43090373764,2723.44926108248
2010.83337039989,2723.45926108248
2010.36827104592,2723.46926108248
1999.37108174433,2723.47926108248
1986.32872824182,2723.48926108248
1980.7512465984,2723.49926108248
1965.9829269143,2723.50926108248
1950.76407753449,2723.51926108248
1939.33391777733,2723.52926108248
1933.03282685056,2723.53926108248
1929.38373415507,2723.54926108248
1934.06185918075,2723.55926108248
1936.10198926639,2723.56926108248
1955.28314446332,2723.57926108248
1962.62179768098,2723.58926108248
1969.83363455057,2723.59926108248
1972.63965934991,2723.60926108248
1956.41212740024,2723.61926108248
1941.6858549516,2723.62926108248
1929.57807949957,2723.63926108248
1916.47037840719,2723.64926108248
1914.31467272235,2723.65926108248
1923.02748700404,2723.66926108248
1931.52915170807,2723.67926108248
1953.3683255991,2723.68926108248
1978.12010402764,2723.69926108248
1985.00245815696,2723.70926108248
1991.07942047519,2723.71926108248
1993.74501994346,2723.72926108248
2000.99122368868,2723.73926108248
1999.4750691592,2723.74926108248
2000.43622376458,2723.75926108248
1999.77457950167,2723.76926108248
2000.2741028388,2723.77926108248
1992.59867217904,2723.78926108248
1982.65549515219,2723.79926108248
1980.18798720813,2723.80926108248
1986.29696473107,2723.81926108248
2006.45245446309,2723.82926108248
2003.43025343093,2723.83926108248
1979.56098473174,2723.84926108248
1941.79634194419,2723.85926108248
1893.20162004966,2723.86926108248
1852.94300241906,2723.87926108248
1821.97382345821,2723.88926108248
1808.50347563944,2723.89926108248
1798.6931774457,2723.90926108248
1806.33185160425,2723.91926108248
1827.41925981623,2723.92926108248
1856.18511635778,2723.93926108248
1902.54226107757,2723.94926108248
1991.08306488375,2723.95926108248
2122.72436167559,2723.96926108248
2294.45890392031,2723.97926108248
2481.23440622828,2723.98926108248
2654.17375071649,2723.99926108248
2808.87272978602,2724.00926108248
2942.61658834093,2724.01926108248
3056.90977210605,2724.02926108248
3158.77035661782,2724.03926108248
3230.34584095451,2724.04926108248
3281.95725782782,2724.05926108248
3317.45638960512,2724.06926108248
3335.41755130661,2724.07926108248
3337.87084284582,2724.08926108248
3311.18991254575,2724.09926108248
3282.9880624387,2724.10926108248
3261.30866288572,2724.11926108248
3244.3172667896,2724.12926108248
3210.58201902977,2724.13926108248
3159.30979012769,2724.14926108248
3092.6029502368,2724.15926108248
3022.63176664678,2724.16926108248
2959.61354614701,2724.17926108248
2897.50129777721,2724.18926108248
2834.67122434486,2724.19926108248
2756.91529137137,2724.20926108248
2673.64504580333,2724.21926108248
2597.28558244217,2724.22926108248
2528.49100622229,2724.23926108248
2468.15540974369,2724.24926108248
2408.67817375553,2724.25926108248
2339.75778329017,2724.26926108248
2263.3732355514,2724.27926108248
2201.74776573966,2724.28926108248
2152.6843145495,2724.29926108248
2112.36020054431,2724.30926108248
2073.23568431822,2724.31926108248
2059.36672080021,2724.32926108248
2050.3449150222,2724.33926108248
2035.54905620343,2724.34926108248
2044.46473166149,2724.35926108248
2061.34765536342,2724.36926108248
2069.59494529283,2724.37926108248
2077.98162693833,2724.38926108248
2064.06076870101,2724.39926108248
2057.34886500283,2724.40926108248
2036.1675697875,2724.41926108248
2003.51331774783,2724.42926108248
1976.47782393872,2724.43926108248
1949.45824094208,2724.44926108248
1933.29066430035,2724.45926108248
1909.06782880269,2724.46926108248
1884.37254738443,2724.47926108248
1862.59310220195,2724.48926108248
1833.30866734808,2724.49926108248
1813.01045170443,2724.50926108248
1796.42801340686,2724.51926108248
1775.45915947323,2724.52926108248
1753.39248758658,2724.53926108248
1738.89089667107,2724.54926108248
1734.38851168275,2724.55926108248
1725.73584954863,2724.56926108248
1718.08646452977,2724.57926108248
1700.48576511669,2724.58926108248
1683.35823563082,2724.59926108248
1663.00569784488,2724.60926108248
1637.07574904184,2724.61926108248
1615.13808471262,2724.62926108248
1598.7377814098,2724.63926108248
1602.45867564401,2724.64926108248
1599.73583179032,2724.65926108248
1610.56459934851,2724.66926108248
1607.48249693579,2724.67926108248
1600.59283322724,2724.68926108248
1598.86721846954,2724.69926108248
1587.8208370875,2724.70926108248
1564.01978675496,2724.71926108248
1533.16609654886,2724.72926108248
1516.96863506575,2724.73926108248
1500.22128015311,2724.74926108248
1488.01348044423,2724.75926108248
1479.55484276799,2724.76926108248
1484.65214056925,2724.77926108248
1488.044047447,2724.78926108248
1485.61557324177,2724.79926108248
1490.78751467519,2724.80926108248
1497.04527806988,2724.81926108248
1497.18738520899,2724.82926108248
1493.41139577841,2724.83926108248
1485.70965191738,2724.84926108248
1487.19060221667,2724.85926108248
1486.00201918347,2724.86926108248
1506.47128294701,2724.87926108248
1579.67346000909,2724.88926108248
1689.66567692823,2724.89926108248
1829.49756627473,2724.90926108248
1994.48437230119,2724.91926108248
2151.52478672385,2724.92926108248
2318.42217710131,2724.93926108248
2471.63273796406,2724.94926108248
2628.85383676713,2724.95926108248
2764.92829112013,2724.96926108248
2887.40163903062,2724.97926108248
2986.97657926192,2724.98926108248
3050.62227291866,2724.99926108248
3073.57041658615,2725.00926108248
3075.67209038316,2725.01926108248
3060.59637533117,2725.02926108248
3030.74787842848,2725.03926108248
2995.01031047044,2725.04926108248
2948.86808543804,2725.05926108248
2887.61068951927,2725.06926108248
2814.027532902,2725.07926108248
2731.38091631134,2725.08926108248
2634.17884373436,2725.09926108248
2520.3287376307,2725.10926108248
2417.14971625673,2725.11926108248
2333.55381989567,2725.12926108248
2267.02336539202,2725.13926108248
2192.20359207757,2725.14926108248
2123.85904793507,2725.15926108248
2048.92726029061,2725.16926108248
1976.03963540155,2725.17926108248
1902.8400293153,2725.18926108248
1848.80357507332,2725.19926108248
1813.61711952599,2725.20926108248
1798.50460269879,2725.21926108248
1804.94742917515,2725.22926108248
1817.21523488446,2725.23926108248
1841.29654121174,2725.24926108248
1881.26038908419,2725.25926108248
1918.13166291111,2725.26926108248
1949.17392237471,2725.27926108248
1983.21394231365,2725.28926108248
2025.07264831037,2725.29926108248
2073.16278483631,2725.30926108248
2108.39642253201,2725.31926108248
2136.87783720952,2725.32926108248
2145.23991921477,2725.33926108248
2159.02992745371,2725.34926108248
2182.94532356641,2725.35926108248
2202.02304043406,2725.36926108248
2218.29956667268,2725.37926108248
2219.17856012766,2725.38926108248
2219.10204518539,2725.39926108248
2211.28683079835,2725.40926108248
2198.66521757731,2725.41926108248
2176.2967561514,2725.42926108248
2146.47766779138,2725.43926108248
2119.41062091116,2725.44926108248
2086.80385933853,2725.45926108248
2050.94169610723,2725.46926108248
2016.24666177249,2725.47926108248
1975.85666763808,2725.48926108248
1953.03743986458,2725.49926108248
1953.27606885952,2725.50926108248
1952.57609940546,2725.51926108248
1960.61556887785,2725.52926108248
1970.05142149339,2725.53926108248
1973.07775418046,2725.54926108248
1960.3623957714,2725.55926108248
1943.95574502351,2725.56926108248
1942.4091331093,2725.57926108248
1946.20148013874,2725.58926108248
1954.14641935344,2725.59926108248
1951.89644583284,2725.60926108248
1956.33173396029,2725.61926108248
1962.49622951794,2725.62926108248
1954.33010399081,2725.63926108248
1944.38456499793,2725.64926108248
1942.46386522048,2725.65926108248
1950.91025949463,2725.66926108248
1953.53944981674,2725.67926108248
1958.8394087003,2725.68926108248
1973.88035844361,2725.69926108248
1990.80222809865,2725.70926108248
2032.14596126441,2725.71926108248
2101.02797638421,2725.72926108248
2190.67539114513,2725.73926108248
2319.34019213423,2725.74926108248
2482.16832404074,2725.75926108248
2667.15803982878,2725.76926108248
2847.03210413605,2725.77926108248
3002.82997525734,2725.78926108248
3121.31814791402,2725.79926108248
3206.62871803737,2725.80926108248
3268.02715524028,2725.81926108248
3303.75317937091,2725.82926108248
3320.48144766723,2725.83926108248
3321.96378060388,2725.84926108248
3318.70961477368,2725.85926108248
3297.96268633635,2725.86926108248
3252.11840897981,2725.87926108248
3212.54405119316,2725.88926108248
3171.89674723098,2725.89926108248
3123.73541511888,2725.90926108248
3068.5292579137,2725.91926108248
3011.05875165701,2725.92926108248
2946.18169925136,2725.93926108248
2880.0360933861,2725.94926108248
2817.96372739879,2725.95926108248
2759.18100858449,2725.96926108248
2696.48266432877,2725.97926108248
2636.99616462878,2725.98926108248
2573.11490493389,2725.99926108248
2503.47731406912,2726.00926108248
2437.55759385054,2726.01926108248
2381.65187791271,2726.02926108248
2335.07474938237,2726.03926108248
2297.1366207954,2726.04926108248
2273.8162079598,2726.05926108248
2254.55121365336,2726.06926108248
2243.24452810526,2726.07926108248
2237.12131436754,2726.08926108248
2238.87594586217,2726.09926108248
2234.25990086826,2726.10926108248
2227.40687066793,2726.11926108248
2218.84738666974,2726.12926108248
2200.83861667051,2726.13926108248
2182.18290182787,2726.14926108248
2180.19697550502,2726.15926108248
2184.04066540445,2726.16926108248
2175.81169082337,2726.17926108248
2159.02677780451,2726.18926108248
2151.05272502854,2726.19926108248
2147.75751209142,2726.20926108248
2152.4408256141,2726.21926108248
2151.51437950887,2726.22926108248
2152.83005570309,2726.23926108248
2141.0397689113,2726.24926108248
2109.54141342548,2726.25926108248
2083.85858422581,2726.26926108248
2046.55201222966,2726.27926108248
2028.89335702862,2726.28926108248
2029.57647136293,2726.29926108248
2029.86535412906,2726.30926108248
2052.45042398826,2726.31926108248
2051.63374399461,2726.32926108248
2033.63640922019,2726.33926108248
2017.98535122378,2726.34926108248
2000.40455736615,2726.35926108248
2000.32953916929,2726.36926108248
2015.19623697592,2726.37926108248
2035.80448142276,2726.38926108248
2038.3265856371,2726.39926108248
2030.8758983542,2726.40926108248
2018.40437964572,2726.41926108248
2003.02346127513,2726.42926108248
1978.74488196447,2726.43926108248
1955.88833123635,2726.44926108248
1932.4551912988,2726.45926108248
1886.89794809694,2726.46926108248
1847.31191121312,2726.47926108248
1808.15112945981,2726.48926108248
1784.70916526115,2726.49926108248
1782.13353598538,2726.50926108248
1792.08508392573,2726.51926108248
1857.49780836087,2726.52926108248
1953.44222506615,2726.53926108248
2077.06627956064,2726.54926108248
2234.237262199,2726.55926108248
2395.67499015756,2726.56926108248
2579.40075832189,2726.57926108248
2771.03636921939,2726.58926108248
2946.62801351672,2726.59926108248
3096.13687298782,2726.60926108248
3210.13910755284,2726.61926108248
3280.35904964156,2726.62926108248
3326.55753355141,2726.63926108248
3352.05563075944,2726.64926108248
3370.76104242394,2726.65926108248
3380.01462271926,2726.66926108248
3374.93827864515,2726.67926108248
3356.01006354163,2726.68926108248
3311.71315116348,2726.69926108248
3260.64492030222,2726.70926108248
3199.4336159116,2726.71926108248
3129.94515042322,2726.72926108248
3075.83236616067,2726.73926108248
3020.90283463656,2726.74926108248
2963.47751935114,2726.75926108248
2901.05264699393,2726.76926108248
2856.13263987738,2726.77926108248
2815.11290902005,2726.78926108248
2769.70355806996,2726.79926108248
2723.3535280679,2726.80926108248
2667.55250596072,2726.81926108248
2631.34285433199,2726.82926108248
2584.85223086587,2726.83926108248
2520.51078886954,2726.84926108248
2481.76516352969,2726.85926108248
2431.76921004584,2726.86926108248
2384.59017911472,2726.87926108248
2351.19623843957,2726.88926108248
2322.41606476257,2726.89926108248
2303.79892582254,2726.90926108248
2307.58410504846,2726.91926108248
2321.60049488951,2726.92926108248
2331.95898517466,2726.93926108248
2337.38473425352,2726.94926108248
2333.20805022901,2726.95926108248
2328.05047740484,2726.96926108248
2305.68251628593,2726.97926108248
2286.37476802515,2726.98926108248
2277.2384736415,2726.99926108248
2275.91832868615,2727.00926108248
2275.91216235873,2727.01926108248
2276.5284363337,2727.02926108248
2272.98036503498,2727.03926108248
2255.40738468071,2727.04926108248
2240.30647588502,2727.05926108248
2223.84072914583,2727.06926108248
2208.96316336005,2727.07926108248
2192.35102658527,2727.08926108248
2177.86894543444,2727.09926108248
2149.09914560568,2727.10926108248
2112.30564625084,2727.11926108248
2094.1798212873,2727.12926108248
2071.23211970886,2727.13926108248
2043.76895047775,2727.14926108248
2027.11006993828,2727.15926108248
2014.61724126495,2727.16926108248
2002.4976122076,2727.17926108248
1995.91306249436,2727.18926108248
1991.70530534092,2727.19926108248
1985.19685265165,2727.20926108248
1957.460226594,2727.21926108248
1924.89874029732,2727.22926108248
1884.6270655226,2727.23926108248
1855.94841570427,2727.24926108248
1829.20803249686,2727.25926108248
1820.79457508885,2727.26926108248
1805.22799178151,2727.27926108248
1778.61514557911,2727.28926108248
1760.47275875521,2727.29926108248
1743.93256991638,2727.30926108248
1754.88410417923,2727.31926108248
1819.06044917018,2727.32926108248
1924.02448255126,2727.33926108248
2056.6465986789,2727.34926108248
2217.9279994135,2727.35926108248
2381.00327828778,2727.36926108248
2540.10959111878,2727.37926108248
2676.34564955856,2727.38926108248
2797.42024312467,2727.39926108248
2906.55849659493,2727.40926108248
2991.36152642283,2727.41926108248
3047.60779068047,2727.42926108248
3081.49010916771,2727.43926108248
3091.97431031422,2727.44926108248
3071.09915362542,2727.45926108248
3047.05723498229,2727.46926108248
3012.1216803822,2727.47926108248
2972.40351804361,2727.48926108248
2924.91424557137,2727.49926108248
2883.61606682833,2727.50926108248
2848.54051893715,2727.51926108248
2813.92460488331,2727.52926108248
2772.07698365426,2727.53926108248
2715.73418442476,2727.54926108248
2650.66724437879,2727.55926108248
2560.76496617924,2727.56926108248
2473.61920109033,2727.57926108248
2383.00869777287,2727.58926108248
2301.24911763273,2727.59926108248
2238.32777989593,2727.60926108248
2171.24222098097,2727.61926108248
2098.48046520321,2727.62926108248
2009.61202819034,2727.63926108248
1925.04430788682,2727.64926108248
1859.94647086277,2727.65926108248
1810.1415771482,2727.66926108248
1780.8916123927,2727.67926108248
1762.59650218543,2727.68926108248
1765.72767731097,2727.69926108248
1780.93611395982,2727.70926108248
1788.47985630086,2727.71926108248
1802.62457946054,2727.72926108248
1820.3994692071,2727.73926108248
1846.78655974579,2727.74926108248
1897.92237487506,2727.75926108248
1948.65957943702,2727.76926108248
2003.36327682969,2727.77926108248
2033.12398536229,2727.78926108248
2060.17505377668,2727.79926108248
2078.13626263915,2727.80926108248
2097.0221248688,2727.81926108248
2116.72745313931,2727.82926108248
2126.84107121745,2727.83926108248
2137.83689046324,2727.84926108248
2139.95807236904,2727.85926108248
2132.55194712859,2727.86926108248
2130.73293614497,2727.87926108248
2122.45520583706,2727.88926108248
2127.62415942637,2727.89926108248
2141.63357415834,2727.90926108248
2143.33616200076,2727.91926108248
2142.92327076844,2727.92926108248
2133.24967557406,2727.93926108248
2115.96609953621,2727.94926108248
2104.59593424035,2727.95926108248
2102.49389239976,2727.96926108248
2090.85911918563,2727.97926108248
2085.64597650242,2727.98926108248
2086.02727689398,2727.99926108248
2085.58389964222,2728.00926108248
2093.43710612543,2728.01926108248
2092.83521641503,2728.02926108248
2080.95885583462,2728.03926108248
2077.87435818685,2728.04926108248
2092.23592838454,2728.05926108248
2135.73877322964,2728.06926108248
2212.76436206801,2728.07926108248
2319.123132003,2728.08926108248
2461.00263708146,2728.09926108248
2604.66211010483,2728.10926108248
2731.45087446948,2728.11926108248
2866.28488641056,2728.12926108248
2995.65974802762,2728.13926108248
3103.71654879286,2728.14926108248
3177.78444620088,2728.15926108248
3214.56660432055,2728.16926108248
3225.23704170579,2728.17926108248
3216.26066721242,2728.18926108248
3194.78463044599,2728.19926108248
3177.83152030531,2728.20926108248
3154.01764432292,2728.21926108248
3118.39794958214,2728.22926108248
3060.77971484867,2728.23926108248
2993.88375448283,2728.24926108248
2924.04723844654,2728.25926108248
2855.32132106317,2728.26926108248
2799.07997576346,2728.27926108248
2751.83772678179,2728.28926108248
2718.38204160585,2728.29926108248
2695.8258014044,2728.30926108248
2669.98659486854,2728.31926108248
2643.49553270705,2728.32926108248
2616.72684656854,2728.33926108248
2561.52761349315,2728.34926108248
2494.92960385556,2728.35926108248
2420.56469516967,2728.36926108248
2344.61434547737,2728.37926108248
2257.81833791559,2728.38926108248
2168.64722058587,2728.39926108248
2094.94852105547,2728.40926108248
2031.71537789869,2728.41926108248
1977.92773591045,2728.42926108248
1941.03752347059,2728.43926108248
1920.27484007224,2728.44926108248
1932.49977028392,2728.45926108248
1941.18274374485,2728.46926108248
1952.12398793659,2728.47926108248
1949.99642021851,2728.48926108248
1941.70883919187,2728.49926108248
1936.91983718354,2728.50926108248
1914.79839385839,2728.51926108248
1898.57126155274,2728.52926108248
1863.63298474788,2728.53926108248
1833.3740357168,2728.54926108248
1797.57004800742,2728.55926108248
1759.33134599727,2728.56926108248
1710.53978028586,2728.57926108248
1661.84341356562,2728.58926108248
1637.82501554909,2728.59926108248
1617.05504347525,2728.60926108248
1611.26690290408,2728.61926108248
1607.29480186266,2728.62926108248
1608.63124363758,2728.63926108248
1611.07030994942,2728.64926108248
1613.54327774597,2728.65926108248
1613.5083670721,2728.66926108248
1601.71310741674,2728.67926108248
1600.60304676484,2728.68926108248
1611.2610883347,2728.69926108248
1630.39821230366,2728.70926108248
1625.20392831036,2728.71926108248
1622.55482770106,2728.72926108248
1639.87574778253,2728.73926108248
1682.88982524636,2728.74926108248
1771.95364598415,2728.75926108248
1876.02849909888,2728.76926108248
1998.79089981819,2728.77926108248
2129.67641011636,2728.78926108248
2259.54187504721,2728.79926108248
2394.86852899966,2728.80926108248
2523.07169473089,2728.81926108248
2647.90417104583,2728.82926108248
2752.06319026166,2728.83926108248
2836.90171634714,2728.84926108248
2887.02472999114,2728.85926108248
2902.27630012335,2728.86926108248
2893.46973200155,2728.87926108248
2869.27193658983,2728.88926108248
2825.96803264564,2728.89926108248
2780.25385475535,2728.90926108248
2709.77495133926,2728.91926108248
2639.45708898238,2728.92926108248
2584.47157163542,2728.93926108248
2540.9633492703,2728.94926108248
2486.16481452503,2728.95926108248
2427.62323499954,2728.96926108248
2364.62909715995,2728.97926108248
2307.53192838343,2728.98926108248
2255.81817561846,2728.99926108248
2228.52003566764,2729.00926108248
2187.89886646996,2729.01926108248
2147.73620924553,2729.02926108248
2117.63948572834,2729.03926108248
2094.95691133864,2729.04926108248
2097.41527385456,2729.05926108248
2111.5101731411,2729.06926108248
2143.23645623344,2729.07926108248
2181.16212345202,2729.08926108248
2219.95976262266,2729.09926108248
2254.80551491104,2729.10926108248
2280.23809118062,2729.11926108248
2286.60619246699,2729.12926108248
2299.0245620976,2729.13926108248
2317.35065414215,2729.14926108248
2320.66390291132,2729.15926108248
2310.62329262898,2729.16926108248
2292.98530051938,2729.17926108248
2281.57325256099,2729.18926108248
2266.68872134251,2729.19926108248
2267.40036334378,2729.20926108248
2267.12156054027,2729.21926108248
2264.29413401892,2729.22926108248
2255.88452341759,2729.23926108248
2238.46062402706,2729.24926108248
2235.31873772238,2729.25926108248
2226.28046790396,2729.26926108248
2231.77198357123,2729.27926108248
2241.10702955436,2729.28926108248
2248.50148072342,2729.29926108248
2243.16390565087,2729.30926108248
2223.09406961174,2729.31926108248
2206.20068318628,2729.32926108248
2192.74924857713,2729.33926108248
2173.2803304943,2729.34926108248
2136.33950620428,2729.35926108248
2109.26669433068,2729.36926108248
2080.23133819567,2729.37926108248
2052.70052043849,2729.38926108248
2028.01103560722,2729.39926108248
2029.26124280244,2729.40926108248
2034.95060601653,2729.41926108248
2068.28162524003,2729.42926108248
2131.74435710108,2729.43926108248
2221.77659475637,2729.44926108248
2340.32393678769,2729.45926108248
2472.61829554685,2729.46926108248
2620.36982188287,2729.47926108248
2780.19506272739,2729.48926108248
2931.68305205294,2729.49926108248
3064.71734784295,2729.50926108248
3174.69225165829,2729.51926108248
3260.31685460821,2729.52926108248
3319.29286528907,2729.53926108248
3377.75697196149,2729.54926108248
3403.30837586427,2729.55926108248
3414.24091664709,2729.56926108248
3398.08217897048,2729.57926108248
3353.86210251641,2729.58926108248
3304.1187965297,2729.59926108248
3241.75129482164,2729.60926108248
3179.26411111833,2729.61926108248
3113.55237512365,2729.62926108248
3058.71819137821,2729.63926108248
3001.01512464283,2729.64926108248
2948.37147779163,2729.65926108248
2892.27720028938,2729.66926108248
2814.69541562136,2729.67926108248
2758.03467376539,2729.68926108248
2707.26569488996,2729.69926108248
2651.4298285884,2729.70926108248
2600.44071831139,2729.71926108248
2545.53360103835,2729.72926108248
2488.89041143048,2729.73926108248
2453.19321839114,2729.74926108248
2436.16938929794,2729.75926108248
2405.56234729194,2729.76926108248
2382.26672580222,2729.77926108248
2358.70913425477,2729.78926108248
2343.33603644113,2729.79926108248
2340.64945158559,2729.80926108248
2348.28078845904,2729.81926108248
2363.05084932748,2729.82926108248
2357.37758688133,2729.83926108248
2349.18073067397,2729.84926108248
2337.9818859854,2729.85926108248
2331.05772357138,2729.86926108248
2315.09431325713,2729.87926108248
2304.15781087603,2729.88926108248
2291.28975843205,2729.89926108248
2260.02419522785,2729.90926108248
2229.31241616714,2729.91926108248
2228.91940742597,2729.92926108248
2180.21539085802,2729.93926108248
2169.25888442138,2729.94926108248
2125.08984665938,2729.95926108248
2110.6259485242,2729.96926108248
2108.47311265477,2729.97926108248
2103.25452816218,2729.98926108248
2121.39792656872,2729.99926108248
2124.49935551145,2730.00926108248
2123.51047914856,2730.01926108248
2124.46196978417,2730.02926108248
2100.00958738067,2730.03926108248
2093.81748411869,2730.04926108248
2103.62031346797,2730.05926108248
2105.67240150032,2730.06926108248
2104.22479872795,2730.07926108248
2106.14968289245,2730.08926108248
2080.00454073846,2730.09926108248
2076.03694170452,2730.10926108248
2059.2985353347,2730.11926108248
2057.23459485487,2730.12926108248
1994.13190799806,2730.13926108248
1976.62304889776,2730.14926108248
1907.00760873793,2730.15926108248
1875.61136676715,2730.16926108248
1941.3559771362,2730.17926108248
1935.42113052436,2730.18926108248
2099.82112061083,2730.19926108248
2121.85672415638,2730.20926108248
2370.57776480982,2730.21926108248
2423.88844099616,2730.22926108248
2706.55720664648,2730.23926108248
2784.00122806115,2730.24926108248
2974.56192399619,2730.25926108248
3040.21591215377,2730.26926108248
3159.80544659158,2730.27926108248
3209.12854797414,2730.28926108248
3284.18998441176,2730.29926108248
3321.55118578598,2730.30926108248
3335.84864422232,2730.31926108248
3356.62779695239,2730.32926108248
3290.03999766819,2730.33926108248
3284.7545950818,2730.34926108248
3225.88098502174,2730.35926108248
3216.20728145301,2730.36926108248
3136.71732845119,2730.37926108248
3119.31965649648,2730.38926108248
3035.21532855341,2730.39926108248
3014.45862915484,2730.40926108248
2945.84796634151,2730.41926108248
2929.65916961909,2730.42926108248
2813.43719387821,2730.43926108248
2785.04852425311,2730.44926108248
2680.1570425605,2730.45926108248
2651.47071641697,2730.46926108248
2554.9467648151,2730.47926108248
2527.25518043677,2730.48926108248
2416.95508714209,2730.49926108248
2383.20016958304,2730.50926108248
2322.17819124972,2730.51926108248
2298.68821270715,2730.52926108248
2252.22795641343,2730.53926108248
2233.44463950889,2730.54926108248
2201.03212689141,2730.55926108248
2186.01508913888,2730.56926108248
2192.0610362686,2730.57926108248
2188.79297488062,2730.58926108248
2205.7892831373,2730.59926108248
2210.36538142242,2730.60926108248
2192.09965037872,2730.61926108248
2190.78357718727,2730.62926108248
2165.66172811518,2730.63926108248
2162.65836205486,2730.64926108248
2113.9721056388,2730.65926108248
2104.15116765852,2730.66926108248
2042.47368714007,2730.67926108248
2026.26697859938,2730.68926108248
1983.20677622868,2730.69926108248
1969.32919162721,2730.70926108248
1948.96134985349,2730.71926108248
1941.94574557426,2730.72926108248
1911.58108713251,2730.73926108248
1904.14749381708,2730.74926108248
1850.73136273212,2730.75926108248
1836.44436201666,2730.76926108248
1800.54811680094,2730.77926108248
1788.46797987485,2730.78926108248
1769.06250036024,2730.79926108248
1761.29586093623,2730.80926108248
1747.99301353215,2730.81926108248
1742.93565103349,2730.82926108248
1720.61822687146,2730.83926108248
1713.35286337258,2730.84926108248
1708.27721817865,2730.85926108248
1704.93867101794,2730.86926108248
1698.34889375882,2730.87926108248
1694.35206988988,2730.88926108248
1690.04545449721,2730.89926108248
1683.7926058997,2730.90926108248
1705.83280682606,2730.91926108248
1701.54457386487,2730.92926108248
1758.38175534839,2730.93926108248
1757.27484112775,2730.94926108248
1918.0798792761,2730.95926108248
1941.48607288403,2730.96926108248
2205.53985771851,2730.97926108248
2264.45076184441,2730.98926108248
2536.50652708328,2730.99926108248
2613.38287415119,2731.00926108248
2802.98097189116,2731.01926108248
2870.10577073435,2731.02926108248
2972.26222233694,2731.03926108248
3019.30754825574,2731.04926108248
3055.36715842971,2731.05926108248
3082.50642989057,2731.06926108248
3069.06840135512,2731.07926108248
3078.73926662805,2731.08926108248
3054.73389159022,2731.09926108248
3058.47091101145,2731.10926108248
2974.09276083889,2731.11926108248
2959.17688941668,2731.12926108248
2865.93349395361,2731.13926108248
2842.50521456516,2731.14926108248
2784.29551948667,2731.15926108248
2767.78517098883,2731.16926108248
2707.27636170064,2731.17926108248
2692.70210127844,2731.18926108248
2606.71862924154,2731.19926108248
2586.80872976859,2731.20926108248
2479.28971603118,2731.21926108248
2451.81061104446,2731.22926108248
2355.72673781398,2731.23926108248
2327.98641731098,2731.24926108248
2225.81926712666,2731.25926108248
2192.75408636122,2731.26926108248
2141.29768147726,2731.27926108248
2117.72420401742,2731.28926108248
2103.86244221885,2731.29926108248
2090.57924777708,2731.30926108248
2121.35412166749,2731.31926108248
2123.11306058056,2731.32926108248
2140.48121179997,2731.33926108248
2142.71062630591,2731.34926108248
2174.55475872191,2731.35926108248
2182.1630402162,2731.36926108248
2196.39384518109,2731.37926108248
2200.78988058327,2731.38926108248
2238.05617754922,2731.39926108248
2249.88903360016,2731.40926108248
2253.41074206891,2731.41926108248
2259.24686394338,2731.42926108248
2239.75288178205,2731.43926108248
2238.94739232215,2731.44926108248
2213.04914413257,2731.45926108248
2209.23977655756,2731.46926108248
2176.9062823086,2731.47926108248
2170.63352390181,2731.48926108248
2123.78147718197,2731.49926108248
2112.02145243008,2731.50926108248
2052.75254133104,2731.51926108248
2033.41300731104,2731.52926108248
2025.20808912708,2731.53926108248
2015.85321356818,2731.54926108248
2051.96982615796,2731.55926108248
2057.49224275627,2731.56926108248
2072.3263501331,2731.57926108248
2077.04014437091,2731.58926108248
2075.33057007228,2731.59926108248
2076.32045982604,2731.60926108248
2068.46551699716,2731.61926108248
2066.28552899784,2731.62926108248
2082.86201735133,2731.63926108248
2085.94387031724,2731.64926108248
2078.44592019987,2731.65926108248
2072.96287305626,2731.66926108248
2072.44581614817,2731.67926108248
2060.03011388114,2731.68926108248
2152.51382832439,2731.69926108248
2156.16039011694,2731.70926108248
2372.39000738846,2731.71926108248
2410.10673833609,2731.72926108248
2685.31575039471,2731.73926108248
2749.52404532672,2731.74926108248
3035.87948794374,2731.75926108248
3117.10496682873,2731.76926108248
3329.70187949785,2731.77926108248
3403.48781170683,2731.78926108248
3534.60207456135,2731.79926108248
3592.04009383217,2731.80926108248
3623.62531632006,2731.81926108248
3654.25804712173,2731.82926108248
3629.23359639839,2731.83926108248
3640.10846365309,2731.84926108248
3559.66906626152,2731.85926108248
3550.40564942034,2731.86926108248
3453.14581361269,2731.87926108248
3433.56493035989,2731.88926108248
3325.19167288334,2731.89926108248
3298.44810924128,2731.90926108248
3208.69834383826,2731.91926108248
3184.57498650701,2731.92926108248
3064.16675769737,2731.93926108248
3029.37690747313,2731.94926108248
2922.4898701477,2731.95926108248
2882.52313981294,2731.96926108248
2772.82240754593,2731.97926108248
2679.27055186188,2731.98926108248
2551.59924120889,2731.99926108248
2485.12938316437,2732.00926108248
2412.14527153774,2732.01926108248
2339.55201467921,2732.02926108248
2276.98864022435,2732.03926108248
2231.81799280541,2732.04926108248
2200.94360362266,2732.05926108248
2185.76068199781,2732.06926108248
2177.04009442916,2732.07926108248
2163.76422930934,2732.08926108248
2155.51775392243,2732.09926108248
2140.95000738441,2732.10926108248
2146.23125372466,2732.11926108248
2155.48600224213,2732.12926108248
2163.08733460292,2732.13926108248
2158.86713687483,2732.14926108248
2148.19859656212,2732.15926108248
2142.57221688505,2732.16926108248
2128.09562247242,2732.17926108248
2119.77794328993,2732.18926108248
2113.26016489252,2732.19926108248
2107.77497971677,2732.20926108248
2100.48819873784,2732.21926108248
2095.49826128813,2732.22926108248
2091.64542661038,2732.23926108248
2093.10274347985,2732.24926108248
2094.94429084365,2732.25926108248
2098.25920677789,2732.26926108248
2105.69510408202,2732.27926108248
2097.0021706892,2732.28926108248
2076.42838363497,2732.29926108248
2062.84815144809,2732.30926108248
2045.64917443779,2732.31926108248
2025.33951021701,2732.32926108248
2018.84261407445,2732.33926108248
2016.65638374149,2732.34926108248
2005.4452210665,2732.35926108248
1999.59293113548,2732.36926108248
1999.39922632346,2732.37926108248
2002.36571350898,2732.38926108248
2013.64117193484,2732.39926108248
2018.64486690042,2732.40926108248
2037.73777178778,2732.41926108248
2090.20124402282,2732.42926108248
2170.78333865615,2732.43926108248
2276.51237007936,2732.44926108248
2418.42565762907,2732.45926108248
2591.12389706841,2732.46926108248
2760.99183223189,2732.47926108248
2938.29266727863,2732.48926108248
3092.56983601074,2732.49926108248
3225.81661427332,2732.50926108248
3339.0871008674,2732.51926108248
3423.50648094136,2732.52926108248
3496.29476938514,2732.53926108248
3532.66939013074,2732.54926108248
3540.12469109056,2732.55926108248
3537.43227990886,2732.56926108248
3523.59154254888,2732.57926108248
3499.5930051238,2732.58926108248
3463.57964103075,2732.59926108248
3412.4093714811,2732.60926108248
3346.65637282615,2732.61926108248
3275.65121981505,2732.62926108248
3213.6671816762,2732.63926108248
3149.56683451867,2732.64926108248
3084.72390248319,2732.65926108248
3006.51889643969,2732.66926108248
2927.6640252735,2732.67926108248
2841.87527050058,2732.68926108248
2761.25599958414,2732.69926108248
2691.92848063535,2732.70926108248
2615.95282565979,2732.71926108248
2535.97885334739,2732.72926108248
2456.8603343274,2732.73926108248
2385.58680993886,2732.74926108248
2331.62464523675,2732.75926108248
2276.61798146968,2732.76926108248
2226.27360684741,2732.77926108248
2183.07444742619,2732.78926108248
2145.58714276445,2732.79926108248
2114.26974748279,2732.80926108248
2106.61365190615,2732.81926108248
2104.27030960133,2732.82926108248
2105.35767840801,2732.83926108248
2104.38348988528,2732.84926108248
2097.79474790773,2732.85926108248
2090.81700210101,2732.86926108248
2086.40810514374,2732.87926108248
2074.97823828388,2732.88926108248
2063.43331312441,2732.89926108248
2045.21586078048,2732.90926108248
2033.47741733085,2732.91926108248
2020.91340455821,2732.92926108248
2011.13555380187,2732.93926108248
2001.67212452717,2732.94926108248
1984.31969553,2732.95926108248
1955.38248794173,2732.96926108248
1925.19031061658,2732.97926108248
1896.38490248108,2732.98926108248
1870.72579442627,2732.99926108248
1860.49085574115,2733.00926108248
1836.13402472257,2733.01926108248
1810.53427531284,2733.02926108248
1765.52135484464,2733.03926108248
1738.66465800095,2733.04926108248
1716.95500544702,2733.05926108248
1697.5360135035,2733.06926108248
1685.14916446843,2733.07926108248
1675.38244435251,2733.08926108248
1672.92857758025,2733.09926108248
1670.45710176237,2733.10926108248
1663.69571847969,2733.11926108248
1650.97129509155,2733.12926108248
1637.07959680706,2733.13926108248
1621.57289097172,2733.14926108248
1609.0431724331,2733.15926108248
1592.52490136842,2733.16926108248
1576.44976879937,2733.17926108248
1564.08718466719,2733.18926108248
1560.21342799787,2733.19926108248
1542.49619863961,2733.20926108248
1530.30278453658,2733.21926108248
1517.44503639302,2733.22926108248
1514.27021323371,2733.23926108248
1519.75382164756,2733.24926108248
1531.34526764541,2733.25926108248
1561.57924304698,2733.26926108248
1612.8038065513,2733.27926108248
1679.59856478679,2733.28926108248
1773.27668975487,2733.29926108248
1899.59400022426,2733.30926108248
2047.93498739648,2733.31926108248
2236.77654886556,2733.32926108248
2422.84920898395,2733.33926108248
2597.28752790915,2733.34926108248
2738.41991211508,2733.35926108248
2854.75462257946,2733.36926108248
2934.36895153833,2733.37926108248
2986.13381233542,2733.38926108248
3013.14682806835,2733.39926108248
3024.79952126352,2733.40926108248
3025.29183124266,2733.41926108248
3009.94112810048,2733.42926108248
2980.35120618868,2733.43926108248
2949.19423745486,2733.44926108248
2896.90504160836,2733.45926108248
2843.85266226661,2733.46926108248
2776.31712248646,2733.47926108248
2698.58749816645,2733.48926108248
2630.95021058589,2733.49926108248
2548.97760858872,2733.50926108248
2462.43096932745,2733.51926108248
2377.32647013306,2733.52926108248
2291.97327657737,2733.53926108248
2208.63763964033,2733.54926108248
2127.47983802397,2733.55926108248
2067.12309765484,2733.56926108248
2012.50570591328,2733.57926108248
1953.43578666921,2733.58926108248
1902.73628449475,2733.59926108248
1864.42409980202,2733.60926108248
1857.82403668706,2733.61926108248
1874.07962818655,2733.62926108248
1921.18524220979,2733.63926108248
1955.4507236501,2733.64926108248
1981.70984782506,2733.65926108248
1991.46636269385,2733.66926108248
1994.17123356395,2733.67926108248
1999.53402518831,2733.68926108248
2014.55641744707,2733.69926108248
2038.3402620846,2733.70926108248
2053.32783560336,2733.71926108248
2057.95766817592,2733.72926108248
2057.35806908437,2733.73926108248
2054.13828990693,2733.74926108248
2035.93585389728,2733.75926108248
2013.8505911237,2733.76926108248
1983.18923994859,2733.77926108248
1962.87664434338,2733.78926108248
1942.22183435927,2733.79926108248
1932.16124925822,2733.80926108248
1913.22485974897,2733.81926108248
1891.72171421549,2733.82926108248
1858.85467601301,2733.83926108248
1822.45505584724,2733.84926108248
1783.98639354693,2733.85926108248
1730.94341550454,2733.86926108248
1672.31923634206,2733.87926108248
1632.24489661817,2733.88926108248
1608.31756848626,2733.89926108248
1592.62338575976,2733.90926108248
1591.79978695915,2733.91926108248
1591.98662623338,2733.92926108248
1591.60340363834,2733.93926108248
1592.5286832821,2733.94926108248
1588.44057967401,2733.95926108248
1573.83312357327,2733.96926108248
1579.72836861622,2733.97926108248
1591.12178762771,2733.98926108248
1605.99808965364,2733.99926108248
1633.49850304261,2734.00926108248
1653.10890652375,2734.01926108248
1668.28250773624,2734.02926108248
1688.46984126094,2734.03926108248
1701.86822464733,2734.04926108248
1750.64164872307,2734.05926108248
1842.18138757181,2734.06926108248
2007.29922053507,2734.07926108248
2195.07666315045,2734.08926108248
2356.23796540767,2734.09926108248
2559.00905702644,2734.10926108248
2739.65573753116,2734.11926108248
2913.32474237769,2734.12926108248
3052.0984413608,2734.13926108248
3164.43674217766,2734.14926108248
3260.34298752789,2734.15926108248
3328.67852892252,2734.16926108248
3364.54977242098,2734.17926108248
3382.22103860914,2734.18926108248
3378.05860898424,2734.19926108248
3353.78003204819,2734.20926108248
3313.21040514232,2734.21926108248
3277.35787692273,2734.22926108248
3228.8803618088,2734.23926108248
3178.95880504898,2734.24926108248
3111.82305594529,2734.25926108248
3041.454152493,2734.26926108248
2964.97363761176,2734.27926108248
2906.67520293793,2734.28926108248
2855.04909043698,2734.29926108248
2788.62510432251,2734.30926108248
2718.44178160267,2734.31926108248
2655.83650056002,2734.32926108248
2600.44039609695,2734.33926108248
2536.86092107713,2734.34926108248
2465.89996203743,2734.35926108248
2382.24362887826,2734.36926108248
2298.04702032361,2734.37926108248
2228.3734658711,2734.38926108248
2170.57912672428,2734.39926108248
2135.89842543228,2734.40926108248
2111.65479423196,2734.41926108248
2096.23392579617,2734.42926108248
2091.55345552471,2734.43926108248
2087.47248059867,2734.44926108248
2105.30294811156,2734.45926108248
2118.04687117766,2734.46926108248
2150.23300359084,2734.47926108248
2176.04760911055,2734.48926108248
2191.70038573503,2734.49926108248
2199.15194699474,2734.50926108248
2177.18056504609,2734.51926108248
2164.26895113285,2734.52926108248
2150.28085513384,2734.53926108248
2142.07451183406,2734.54926108248
2135.83770051257,2734.55926108248
2129.24890687203,2734.56926108248
2108.4819427312,2734.57926108248
2086.26457012658,2734.58926108248
2053.80417091359,2734.59926108248
2023.46707949195,2734.60926108248
1987.30969199892,2734.61926108248
1955.61713921719,2734.62926108248
1938.93875992918,2734.63926108248
1933.18387507792,2734.64926108248
1912.67518777068,2734.65926108248
1894.33011810524,2734.66926108248
1870.05703407619,2734.67926108248
1857.39668566226,2734.68926108248
1843.45248528291,2734.69926108248
1837.70036177324,2734.70926108248
1829.35544588033,2734.71926108248
1815.32990223758,2734.72926108248
1801.51504221992,2734.73926108248
1779.92904748896,2734.74926108248
1761.4065614235,2734.75926108248
1751.30338090817,2734.76926108248
1750.15627330146,2734.77926108248
1755.5592745976,2734.78926108248
1754.70278092572,2734.79926108248
1761.38117698799,2734.80926108248
1771.1909368637,2734.81926108248
1787.06504741938,2734.82926108248
1801.3019883899,2734.83926108248
1817.04505757408,2734.84926108248
1825.25585193823,2734.85926108248
1839.08548671768,2734.86926108248
1845.76416938637,2734.87926108248
1842.43643030823,2734.88926108248
1822.5295689907,2734.89926108248
1814.44247126738,2734.90926108248
1837.98460506705,2734.91926108248
1904.32279298565,2734.92926108248
1998.05822432393,2734.93926108248
2117.3516430237,2734.94926108248
2255.91706660187,2734.95926108248
2405.32794401247,2734.96926108248
2555.1174033081,2734.97926108248
2706.33376839893,2734.98926108248
2835.90352279428,2734.99926108248
2937.71143933198,2735.00926108248
3024.39845642994,2735.01926108248
3074.52289031024,2735.02926108248
3115.16650471283,2735.03926108248
3144.9978937389,2735.04926108248
3149.57410970217,2735.05926108248
3125.19747271133,2735.06926108248
3072.7433478248,2735.07926108248
3011.52450064574,2735.08926108248
2954.04897063166,2735.09926108248
2903.06620962417,2735.10926108248
2853.79578024219,2735.11926108248
2801.835171891,2735.12926108248
2741.99319228276,2735.13926108248
2680.09852324876,2735.14926108248
2624.09454823504,2735.15926108248
2576.05368556115,2735.16926108248
2535.21635529709,2735.17926108248
2493.49053643879,2735.18926108248
2453.09289136677,2735.19926108248
2411.19075332564,2735.20926108248
2367.47308577469,2735.21926108248
2304.05179405903,2735.22926108248
2230.66539535886,2735.23926108248
2154.60456689762,2735.24926108248
2088.15549907443,2735.25926108248
2042.8301664307,2735.26926108248
2007.355012267,2735.27926108248
1979.39574053667,2735.28926108248
1962.68070878311,2735.29926108248
1947.61153898461,2735.30926108248
1949.32401383328,2735.31926108248
1952.84247073311,2735.32926108248
1970.21260969416,2735.33926108248
1988.08607231023,2735.34926108248
2004.22870914302,2735.35926108248
2024.08399660454,2735.36926108248
2020.06769369888,2735.37926108248
2009.00153305356,2735.38926108248
1996.59359313,2735.39926108248
1971.52707959581,2735.40926108248
1956.75357253694,2735.41926108248
1946.47403885379,2735.42926108248
1943.37822695035,2735.43926108248
1934.1219086506,2735.44926108248
1914.89533372431,2735.45926108248
1910.67445676005,2735.46926108248
1895.84481313377,2735.47926108248
1889.26868328564,2735.48926108248
1890.39594494323,2735.49926108248
1889.65665779331,2735.50926108248
1896.79975762508,2735.51926108248
1898.11913639646,2735.52926108248
1891.84704710551,2735.53926108248
1887.22415926294,2735.54926108248
1882.69136273192,2735.55926108248
1883.08794233096,2735.56926108248
1883.13397452324,2735.57926108248
1874.95440455465,2735.58926108248
1862.18136430065,2735.59926108248
1838.0878421117,2735.60926108248
1818.59491969198,2735.61926108248
1804.19644715544,2735.62926108248
1799.85482882981,2735.63926108248
1799.99178610549,2735.64926108248
1800.10863958985,2735.65926108248
1798.39897294219,2735.66926108248
1787.77295378557,2735.67926108248
1774.25568298156,2735.68926108248
1764.32974106509,2735.69926108248
1760.43813787609,2735.70926108248
1752.03092210613,2735.71926108248
1747.65120924125,2735.72926108248
1748.13189466105,2735.73926108248
1747.85080920582,2735.74926108248
1748.08729346346,2735.75926108248
1747.71940070712,2735.76926108248
1749.86819964696,2735.77926108248
1764.34013595051,2735.78926108248
1778.81612308417,2735.79926108248
1794.80371631527,2735.80926108248
1800.03444495833,2735.81926108248
1794.71976003748,2735.82926108248
1789.1798767919,2735.83926108248
1786.89141614342,2735.84926108248
1795.28724689267,2735.85926108248
1809.13519064941,2735.86926108248
1840.44132557629,2735.87926108248
1899.81051896746,2735.88926108248
1981.61467054759,2735.89926108248
2082.67441559734,2735.90926108248
2207.97586598435,2735.91926108248
2341.79323032716,2735.92926108248
2471.04178805826,2735.93926108248
2607.75944142751,2735.94926108248
2725.09205755012,2735.95926108248
2820.06499699038,2735.96926108248
2909.19039356765,2735.97926108248
2974.52996662703,2735.98926108248
3023.90621711808,2735.99926108248
3045.40738198098,2736.00926108248
3037.41269207264,2736.01926108248
3015.21604064588,2736.02926108248
2997.01265338222,2736.03926108248
2965.28725444964,2736.04926108248
2921.29711021289,2736.05926108248
2873.81546286702,2736.06926108248
2808.25194320381,2736.07926108248
2740.67878100926,2736.08926108248
2678.06418845829,2736.09926108248
2622.29723620297,2736.10926108248
2567.05329354181,2736.11926108248
2507.89881501845,2736.12926108248
2447.71850528966,2736.13926108248
2389.64828764275,2736.14926108248
2322.36063953428,2736.15926108248
2264.42700714577,2736.16926108248
2197.08487002857,2736.17926108248
2133.0181279991,2736.18926108248
2068.66942209078,2736.19926108248
2011.87576060839,2736.20926108248
1961.05914175168,2736.21926108248
1903.4279688606,2736.22926108248
1852.64080187436,2736.23926108248
1809.76131554477,2736.24926108248
1790.14968053135,2736.25926108248
1782.47994510456,2736.26926108248
1776.92772200602,2736.27926108248
1780.52512685078,2736.28926108248
1785.57279816218,2736.29926108248
1784.40736595194,2736.30926108248
1785.94466680118,2736.31926108248
1774.88872555443,2736.32926108248
1748.68882378788,2736.33926108248
1707.60682137881,2736.34926108248
1679.70492977223,2736.35926108248
1661.02325322311,2736.36926108248
1640.83005081091,2736.37926108248
1624.54432316505,2736.38926108248
1588.46068694877,2736.39926108248
1556.16785868819,2736.40926108248
1529.70260528798,2736.41926108248
1512.929834447,2736.42926108248
1509.23904097248,2736.43926108248
1518.5070007877,2736.44926108248
1523.23769175016,2736.45926108248
1522.71314223104,2736.46926108248
1516.97705730625,2736.47926108248
1506.24202679356,2736.48926108248
1498.8712465942,2736.49926108248
1501.02659627664,2736.50926108248
1491.31972429167,2736.51926108248
1476.63793308766,2736.52926108248
1460.38394525641,2736.53926108248
1455.05644196167,2736.54926108248
1453.95598031034,2736.55926108248
1458.95392082342,2736.56926108248
1458.12688260433,2736.57926108248
1446.93966465234,2736.58926108248
1447.92162188012,2736.59926108248
1450.60551073628,2736.60926108248
1453.09573488581,2736.61926108248
1448.93124257623,2736.62926108248
1458.61899451914,2736.63926108248
1465.08992932218,2736.64926108248
1477.68285756192,2736.65926108248
1475.51152757619,2736.66926108248
1467.25766788332,2736.67926108248
1454.15308089069,2736.68926108248
1444.31089537511,2736.69926108248
1439.45415221091,2736.70926108248
1440.0805729803,2736.71926108248
1445.58440783209,2736.72926108248
1456.52860507884,2736.73926108248
1471.06378651611,2736.74926108248
1512.64886211416,2736.75926108248
1571.39331824379,2736.76926108248
1652.35471684505,2736.77926108248
1766.56746937664,2736.78926108248
1893.34557214263,2736.79926108248
2029.1966418407,2736.80926108248
2173.54376427483,2736.81926108248
2306.20343610696,2736.82926108248
2426.77889716948,2736.83926108248
2523.66095239569,2736.84926108248
2599.91358278804,2736.85926108248
2651.54986724307,2736.86926108248
2687.1924611106,2736.87926108248
2710.82783319906,2736.88926108248
2718.15956853928,2736.89926108248
2724.22700094831,2736.90926108248
2714.94398276032,2736.91926108248
2684.39206721053,2736.92926108248
2644.2661156652,2736.93926108248
2589.41104532896,2736.94926108248
2537.62424361947,2736.95926108248
2480.30966779127,2736.96926108248
2405.20463962099,2736.97926108248
2328.42682358148,2736.98926108248
2248.40803506645,2736.99926108248
2164.18426144372,2737.00926108248
2085.14506129199,2737.01926108248
2009.7042550139,2737.02926108248
1949.50940275883,2737.03926108248
1900.20488139977,2737.04926108248
1869.52537688386,2737.05926108248
1844.51118455962,2737.06926108248
1817.92665212512,2737.07926108248
1801.96652015504,2737.08926108248
1799.05714083959,2737.09926108248
1802.26131454281,2737.10926108248
1816.7057436509,2737.11926108248
1837.56703714087,2737.12926108248
1861.19747139845,2737.13926108248
1886.26147829943,2737.14926108248
1911.88266172435,2737.15926108248
1928.06556670276,2737.16926108248
1933.22242375699,2737.17926108248
1942.57910552359,2737.18926108248
1947.87162844628,2737.19926108248
1955.4246294169,2737.20926108248
1966.4953412871,2737.21926108248
1962.12241274213,2737.22926108248
1945.79913711095,2737.23926108248
1933.82978002213,2737.24926108248
1918.80188635243,2737.25926108248
1909.83306368668,2737.26926108248
1904.24531364168,2737.27926108248
1913.6998960994,2737.28926108248
1923.48858907078,2737.29926108248
1934.09683022972,2737.30926108248
1933.53010007982,2737.31926108248
1918.109582629,2737.32926108248
1912.69874195634,2737.33926108248
1912.82941564438,2737.34926108248
1913.61050104752,2737.35926108248
1910.06382695744,2737.36926108248
1904.67313021012,2737.37926108248
1904.68252249115,2737.38926108248
1907.65318058718,2737.39926108248
1913.636215807,2737.40926108248
1912.67461307539,2737.41926108248
1906.6529465126,2737.42926108248
1904.45315808453,2737.43926108248
1911.7305292422,2737.44926108248
1918.93693030595,2737.45926108248
1920.10021670631,2737.46926108248
1919.81324367959,2737.47926108248
1919.80284651894,2737.48926108248
1919.76613684148,2737.49926108248
1921.39654326089,2737.50926108248
1939.10812783658,2737.51926108248
1952.97390191696,2737.52926108248
1967.64295092162,2737.53926108248
2007.82022693579,2737.54926108248
2075.5032208073,2737.55926108248
2177.29568389335,2737.56926108248
2299.37026461406,2737.57926108248
2437.67176145126,2737.58926108248
2555.91336877112,2737.59926108248
2675.96810363082,2737.60926108248
2782.28031145003,2737.61926108248
2863.99722032888,2737.62926108248
2935.15189313475,2737.63926108248
2998.07961522326,2737.64926108248
3037.89941384042,2737.65926108248
3067.55504708288,2737.66926108248
3076.64875048984,2737.67926108248
3069.19002076443,2737.68926108248
3054.26822848642,2737.69926108248
3013.41614027085,2737.70926108248
2962.6361393023,2737.71926108248
2913.22934391887,2737.72926108248
2862.1392704136,2737.73926108248
2815.79218190111,2737.74926108248
2768.81403032976,2737.75926108248
2708.6538963542,2737.76926108248
2651.3091718747,2737.77926108248
2600.16334239166,2737.78926108248
2550.48571073216,2737.79926108248
2505.03835649652,2737.80926108248
2457.06608360791,2737.81926108248
2400.1522299735,2737.82926108248
2342.73358607268,2737.83926108248
2286.48870905094,2737.84926108248
2240.40482653108,2737.85926108248
2203.23884159531,2737.86926108248
2171.47051954942,2737.87926108248
2148.28069249451,2737.88926108248
2122.17422841521,2737.89926108248
2105.62845697048,2737.90926108248
2093.31950862215,2737.91926108248
2100.2918585613,2737.92926108248
2127.41087387522,2737.93926108248
2166.53938497805,2737.94926108248
2199.25551838442,2737.95926108248
2213.63162721303,2737.96926108248
2230.24833179915,2737.97926108248
2234.85385708453,2737.98926108248
2244.04940596922,2737.99926108248
2250.91364881806,2738.00926108248
2249.98539545804,2738.01926108248
2242.4442063265,2738.02926108248
2225.47418081722,2738.03926108248
2207.66363507055,2738.04926108248
2196.66577386252,2738.05926108248
2180.76605616912,2738.06926108248
2161.11977362835,2738.07926108248
2132.57318863752,2738.08926108248
2102.60605369511,2738.09926108248
2076.41764933366,2738.10926108248
2046.70889169249,2738.11926108248
2031.16457317141,2738.12926108248
2015.82048226097,2738.13926108248
2002.0070430252,2738.14926108248
1983.23374482291,2738.15926108248
1963.95034512691,2738.16926108248
1940.04766047398,2738.17926108248
1914.03580618421,2738.18926108248
1912.59883451641,2738.19926108248
1922.44833370323,2738.20926108248
1948.57761953697,2738.21926108248
1964.02584665811,2738.22926108248
1965.78371889596,2738.23926108248
1956.32148780184,2738.24926108248
1943.56008639007,2738.25926108248
1942.61509628286,2738.26926108248
1950.97206452355,2738.27926108248
1967.1128956785,2738.28926108248
1979.58426339008,2738.29926108248
1971.69940093739,2738.30926108248
1949.74607470816,2738.31926108248
1925.15702701321,2738.32926108248
1903.24767074226,2738.33926108248
1916.69856599632,2738.34926108248
1951.67710375807,2738.35926108248
2017.73721072342,2738.36926108248
2109.31227339961,2738.37926108248
2220.77539446535,2738.38926108248
2354.16578587082,2738.39926108248
2496.75739502235,2738.40926108248
2654.37673656526,2738.41926108248
2805.5394307286,2738.42926108248
2946.11717324149,2738.43926108248
3058.87412161752,2738.44926108248
3125.76039570955,2738.45926108248
3155.56849765141,2738.46926108248
3167.28280548819,2738.47926108248
3154.50335606069,2738.48926108248
3133.56285347214,2738.49926108248
3112.18741971732,2738.50926108248
3068.79431321828,2738.51926108248
3015.76591502356,2738.52926108248
2957.78079316142,2738.53926108248
2896.43337909781,2738.54926108248
2839.74452957475,2738.55926108248
2796.35299801705,2738.56926108248
2748.36153622181,2738.57926108248
2703.02683245301,2738.58926108248
2664.59442583159,2738.59926108248
2620.67798049865,2738.60926108248
2570.65212640136,2738.61926108248
2511.5935553003,2738.62926108248
2452.35060630792,2738.63926108248
2394.24110198216,2738.64926108248
2340.58193132061,2738.65926108248
2281.73835887557,2738.66926108248
2224.35790774067,2738.67926108248
2168.75420924544,2738.68926108248
2107.61054411583,2738.69926108248
2072.60524174425,2738.70926108248
2026.40847924077,2738.71926108248
2011.3485459202,2738.72926108248
2003.06299684341,2738.73926108248
2017.58029718546,2738.74926108248
2032.46487200888,2738.75926108248
2040.20706513527,2738.76926108248
2058.88605889513,2738.77926108248
2068.14275212965,2738.78926108248
2079.49103456372,2738.79926108248
2085.64197568481,2738.80926108248
2085.08601299994,2738.81926108248
2081.34686889229,2738.82926108248
2052.48427400584,2738.83926108248
2031.17006252156,2738.84926108248
2007.23370367915,2738.85926108248
1979.44800591664,2738.86926108248
1963.07085248101,2738.87926108248
1959.63703798057,2738.88926108248
1965.96632718149,2738.89926108248
1958.70434699187,2738.90926108248
1945.83399958326,2738.91926108248
1921.92710404238,2738.92926108248
1894.54671087427,2738.93926108248
1872.86204734421,2738.94926108248
1855.20067943627,2738.95926108248
1845.8808666936,2738.96926108248
1832.72955604748,2738.97926108248
1835.1987165202,2738.98926108248
1847.10852235187,2738.99926108248
1855.13898965666,2739.00926108248
1863.35428640706,2739.01926108248
1867.90095961958,2739.02926108248
1875.88239504884,2739.03926108248
1886.40835395136,2739.04926108248
1896.54896375582,2739.05926108248
1904.0512188179,2739.06926108248
1905.39907647165,2739.07926108248
1902.8959805346,2739.08926108248
1902.20026420041,2739.09926108248
1910.42195860516,2739.10926108248
1923.0552243318,2739.11926108248
1936.22478757897,2739.12926108248
1951.79656723578,2739.13926108248
1966.3864118448,2739.14926108248
1975.82656101366,2739.15926108248
1987.99956988414,2739.16926108248
2012.36165970927,2739.17926108248
2044.34743355028,2739.18926108248
2094.06916585804,2739.19926108248
2166.82838408326,2739.20926108248
2252.88307872096,2739.21926108248
2354.3133664284,2739.22926108248
2477.39072699256,2739.23926108248
2609.17907260188,2739.24926108248
2741.56753814705,2739.25926108248
2860.73208177407,2739.26926108248
2963.68102113857,2739.27926108248
3053.19187147648,2739.28926108248
3123.72791318279,2739.29926108248
3168.86526992767,2739.30926108248
3181.74030496838,2739.31926108248
3178.48289033525,2739.32926108248
3160.30990637139,2739.33926108248
3122.01325616765,2739.34926108248
3079.55425392639,2739.35926108248
3030.90229209297,2739.36926108248
2978.49229896195,2739.37926108248
2913.28075687467,2739.38926108248
2852.25205209099,2739.39926108248
2795.40910714797,2739.40926108248
2737.54791599837,2739.41926108248
2679.14714088697,2739.42926108248
2615.22720969542,2739.43926108248
2559.62755370467,2739.44926108248
2504.55152723277,2739.45926108248
2457.57605981714,2739.46926108248
2421.15735409526,2739.47926108248
2384.66398404792,2739.48926108248
2359.11518152273,2739.49926108248
2331.79996581425,2739.50926108248
2297.44979627457,2739.51926108248
2244.82714728978,2739.52926108248
2183.3928886111,2739.53926108248
2131.94754729366,2739.54926108248
2092.78443998881,2739.55926108248
2069.32656413166,2739.56926108248
2055.39199819276,2739.57926108248
2054.87983348674,2739.58926108248
2054.89689859457,2739.59926108248
2054.67160786618,2739.60926108248
2057.17614381055,2739.61926108248
2077.86605383904,2739.62926108248
2096.48726835711,2739.63926108248
2126.60343969111,2739.64926108248
2145.24155126121,2739.65926108248
2144.53847941077,2739.66926108248
2145.87903800187,2739.67926108248
2147.28384195285,2739.68926108248
2130.81483540827,2739.69926108248
2100.43542152137,2739.70926108248
2075.06944550725,2739.71926108248
2057.71378448985,2739.72926108248
2040.26458520149,2739.73926108248
2022.97334006536,2739.74926108248
2017.59154962527,2739.75926108248
2018.06381122862,2739.76926108248
2018.17450851524,2739.77926108248
2015.84946541523,2739.78926108248
2006.77358673569,2739.79926108248
2002.8187295526,2739.80926108248
1991.09506968647,2739.81926108248
1984.85146576494,2739.82926108248
1977.67391899403,2739.83926108248
1970.16914438549,2739.84926108248
1956.57372992665,2739.85926108248
1940.9180697953,2739.86926108248
1933.83450082616,2739.87926108248
1932.14864594283,2739.88926108248
1934.49826819445,2739.89926108248
1937.60677811906,2739.90926108248
1943.67460007323,2739.91926108248
1935.91215014905,2739.92926108248
1929.07942226058,2739.93926108248
1920.88617512775,2739.94926108248
1919.65359030763,2739.95926108248
1919.4940075158,2739.96926108248
1923.30687113498,2739.97926108248
1943.41941060803,2739.98926108248
1970.30617178676,2739.99926108248
2022.63715372089,2740.00926108248
2091.9630090624,2740.01926108248
2177.49471867017,2740.02926108248
2278.85888525994,2740.03926108248
2393.04824234636,2740.04926108248
2517.51908967789,2740.05926108248
2647.68226422045,2740.06926108248
2766.16735600199,2740.07926108248
2862.66938117171,2740.08926108248
2949.27284572616,2740.09926108248
3010.54909994364,2740.10926108248
3055.16415270699,2740.11926108248
3081.08961411866,2740.12926108248
3090.17500517303,2740.13926108248
3076.14709587073,2740.14926108248
3056.65657266603,2740.15926108248
3019.31985139883,2740.16926108248
2961.39998460305,2740.17926108248
2896.46186359175,2740.18926108248
2825.32108302086,2740.19926108248
2763.98678620753,2740.20926108248
2712.20855360912,2740.21926108248
2671.03081987263,2740.22926108248
2637.33140501975,2740.23926108248
2598.64684938624,2740.24926108248
2555.04541282057,2740.25926108248
2525.32062492419,2740.26926108248
2488.08553306053,2740.27926108248
2456.74262069758,2740.28926108248
2421.44685202608,2740.29926108248
2387.6330172612,2740.30926108248
2346.68665222436,2740.31926108248
2305.08502856006,2740.32926108248
2274.67806281125,2740.33926108248
2240.0969218229,2740.34926108248
2212.78633120397,2740.35926108248
2192.66821279953,2740.36926108248
2184.21977123727,2740.37926108248
2190.93172828592,2740.38926108248
2197.48025317369,2740.39926108248
2215.70590818163,2740.40926108248
2219.44789163149,2740.41926108248
2222.95635981821,2740.42926108248
2228.40439755359,2740.43926108248
2228.12511940309,2740.44926108248
2219.78660571592,2740.45926108248
2201.36155503814,2740.46926108248
2171.82064298121,2740.47926108248
2150.68433084154,2740.48926108248
2136.50948645406,2740.49926108248
2127.12560277987,2740.50926108248
2114.3294300142,2740.51926108248
2098.36101909164,2740.52926108248
2078.3103947312,2740.53926108248
2053.29568930329,2740.54926108248
2028.29666178756,2740.55926108248
2005.71063931688,2740.56926108248
1985.69182654816,2740.57926108248
1965.38003801459,2740.58926108248
1953.95091194172,2740.59926108248
1944.59714927083,2740.60926108248
1940.04072601015,2740.61926108248
1926.95758461496,2740.62926108248
1914.27940001478,2740.63926108248
1902.08433023181,2740.64926108248
1897.06615101041,2740.65926108248
1900.73766153075,2740.66926108248
1904.90807509782,2740.67926108248
1913.44500439664,2740.68926108248
1921.53915618052,2740.69926108248
1915.06817325596,2740.70926108248
1898.80162600751,2740.71926108248
1883.19625878529,2740.72926108248
1882.74668108282,2740.73926108248
1896.14577518642,2740.74926108248
1931.29336170935,2740.75926108248
1978.83364733439,2740.76926108248
2042.95473755747,2740.77926108248
2133.15466897964,2740.78926108248
2242.29105549004,2740.79926108248
2370.1394625058,2740.80926108248
2495.79098939219,2740.81926108248
2618.31483912831,2740.82926108248
2727.54777679927,2740.83926108248
2830.42011120075,2740.84926108248
2901.24837764897,2740.85926108248
2951.75461860458,2740.86926108248
2972.62392382947,2740.87926108248
2985.24379365125,2740.88926108248
2983.1097981306,2740.89926108248
2969.81519053562,2740.90926108248
2951.30129214093,2740.91926108248
2923.18225888711,2740.92926108248
2881.84477465623,2740.93926108248
2823.96169735647,2740.94926108248
2770.70876406592,2740.95926108248
2705.58044578469,2740.96926108248
2638.43383247086,2740.97926108248
2585.77575625912,2740.98926108248
2527.13922831028,2740.99926108248
2477.81556476307,2741.00926108248
2427.66404971255,2741.01926108248
2371.65404632763,2741.02926108248
2314.32203555407,2741.03926108248
2259.33505320512,2741.04926108248
2205.05974109057,2741.05926108248
2149.03731436349,2741.06926108248
2103.29589796973,2741.07926108248
2057.14796685858,2741.08926108248
2023.865553523,2741.09926108248
2008.06233750285,2741.10926108248
2004.3245505976,2741.11926108248
2024.47978306328,2741.12926108248
2051.91840704763,2741.13926108248
2087.81555605873,2741.14926108248
2110.09368705505,2741.15926108248
2115.41637908385,2741.16926108248
2102.73333540007,2741.17926108248
2087.00798107938,2741.18926108248
2084.79650994513,2741.19926108248
2085.07256004713,2741.20926108248
2085.37749836029,2741.21926108248
2083.12150520161,2741.22926108248
2075.11224090065,2741.23926108248
2061.95988757919,2741.24926108248
2045.27874001657,2741.25926108248
2022.86620007729,2741.26926108248
1991.30547462034,2741.27926108248
1970.93239819756,2741.28926108248
1944.35056678105,2741.29926108248
1911.71364350891,2741.30926108248
1869.20386067125,2741.31926108248
1814.56082428354,2741.32926108248
1767.58513257438,2741.33926108248
1726.653410102,2741.34926108248
1696.39006358205,2741.35926108248
1669.70433657133,2741.36926108248
1648.05305643944,2741.37926108248
1626.67392149366,2741.38926108248
1597.18183170695,2741.39926108248
1567.53161625115,2741.40926108248
1542.22060224498,2741.41926108248
1513.55825336832,2741.42926108248
1495.60959734406,2741.43926108248
1489.75016632099,2741.44926108248
1482.88927854545,2741.45926108248
1472.7372521069,2741.46926108248
1452.97220235724,2741.47926108248
1438.98865236596,2741.48926108248
1422.69069287162,2741.49926108248
1410.98813394022,2741.50926108248
1408.59200020192,2741.51926108248
1426.35067994948,2741.52926108248
1466.13847188157,2741.53926108248
1528.14565479975,2741.54926108248
1621.47864312751,2741.55926108248
1738.59897496781,2741.56926108248
1875.3209032957,2741.57926108248
2027.3931530183,2741.58926108248
2189.59568754317,2741.59926108248
2334.5205582961,2741.60926108248
2467.64110438574,2741.61926108248
2571.5777392391,2741.62926108248
2653.60214435138,2741.63926108248
2709.86770120886,2741.64926108248
2748.18401481834,2741.65926108248
2774.08864883621,2741.66926108248
2782.43711640391,2741.67926108248
2769.40449208181,2741.68926108248
2742.35662192829,2741.69926108248
2698.60362016583,2741.70926108248
2647.77136399926,2741.71926108248
2596.2728289772,2741.72926108248
2537.39882526578,2741.73926108248
2480.88854374417,2741.74926108248
2416.01139664337,2741.75926108248
2360.11224616376,2741.76926108248
2303.45080742788,2741.77926108248
2248.66932449482,2741.78926108248
2202.53221700972,2741.79926108248
2155.20008574325,2741.80926108248
2109.01444617762,2741.81926108248
2048.14558216882,2741.82926108248
1991.65176299335,2741.83926108248
1939.11228488156,2741.84926108248
1888.6106433857,2741.85926108248
1856.37007325291,2741.86926108248
1829.06055810371,2741.87926108248
1808.05482560897,2741.88926108248
1781.80592814801,2741.89926108248
1759.98334915624,2741.90926108248
1742.58875822476,2741.91926108248
1744.87679809015,2741.92926108248
1753.66680388933,2741.93926108248
1771.3231835433,2741.94926108248
1789.10670092164,2741.95926108248
1803.91765006196,2741.96926108248
1813.85050114122,2741.97926108248
1815.50220172623,2741.98926108248
1813.30514584629,2741.99926108248
1796.35402650273,2742.00926108248
1763.32951798367,2742.01926108248
1733.68812000134,2742.02926108248
1703.44938037511,2742.03926108248
1679.45947687656,2742.04926108248
1663.74348173308,2742.05926108248
1648.46197194986,2742.06926108248
1635.65693813726,2742.07926108248
1629.32110023418,2742.08926108248
1620.83076420233,2742.09926108248
1614.37513798187,2742.10926108248
1605.61972135345,2742.11926108248
1605.59285397526,2742.12926108248
1601.95623972163,2742.13926108248
1599.99454819311,2742.14926108248
1605.54835965804,2742.15926108248
1604.85022503464,2742.16926108248
1599.0717331113,2742.17926108248
1598.02656948946,2742.18926108248
1596.96930887668,2742.19926108248
1602.97283188387,2742.20926108248
1613.89579849092,2742.21926108248
1613.79130562427,2742.22926108248
1623.73659050209,2742.23926108248
1632.84977045503,2742.24926108248
1644.11106359209,2742.25926108248
1663.82941602941,2742.26926108248
1708.28403795896,2742.27926108248
1791.92733974999,2742.28926108248
1905.33870239895,2742.29926108248
2043.92427211628,2742.30926108248
2186.22551122845,2742.31926108248
2335.10332143956,2742.32926108248
2485.97026632983,2742.33926108248
2625.41022654343,2742.34926108248
2736.38229905463,2742.35926108248
2815.7150731556,2742.36926108248
2869.36777428564,2742.37926108248
2893.63884880572,2742.38926108248
2902.35310666532,2742.39926108248
2903.71355074022,2742.40926108248
2895.36448855983,2742.41926108248
2875.88300316437,2742.42926108248
2850.40145678523,2742.43926108248
2831.17478813209,2742.44926108248
2810.86331959187,2742.45926108248
2783.46513930024,2742.46926108248
2736.23412925031,2742.47926108248
2663.2715522809,2742.48926108248
2581.64708987345,2742.49926108248
2505.0063206803,2742.50926108248
2436.2046282314,2742.51926108248
2376.9991481872,2742.52926108248
2328.06019733452,2742.53926108248
2283.15525298957,2742.54926108248
2238.31527362458,2742.55926108248
2196.85192214495,2742.56926108248
2139.1540180117,2742.57926108248
2080.24709340749,2742.58926108248
2034.2178670025,2742.59926108248
2003.03200970274,2742.60926108248
1985.74404880072,2742.61926108248
1978.33668445223,2742.62926108248
1991.33078420966,2742.63926108248
2008.50902559515,2742.64926108248
2027.50441502741,2742.65926108248
2030.92903182575,2742.66926108248
2023.78317267854,2742.67926108248
2033.55852725853,2742.68926108248
2050.06751333352,2742.69926108248
2069.89668422123,2742.70926108248
2089.91567724296,2742.71926108248
2107.40551921495,2742.72926108248
2115.68316193557,2742.73926108248
2126.84803562874,2742.74926108248
2123.83862346243,2742.75926108248
2123.44483266632,2742.76926108248
2120.1864699004,2742.77926108248
2114.56751639747,2742.78926108248
2121.33367417558,2742.79926108248
2131.48504826084,2742.80926108248
2140.8491209874,2742.81926108248
2153.78814815943,2742.82926108248
2163.26716426902,2742.83926108248
2176.35664903993,2742.84926108248
2198.08183600303,2742.85926108248
2208.7109912985,2742.86926108248
2213.067138001,2742.87926108248
2213.34293528773,2742.88926108248
2210.51443386145,2742.89926108248
2196.38443101006,2742.90926108248
2180.72967724854,2742.91926108248
2166.83091701967,2742.92926108248
2153.55936716418,2742.93926108248
2145.94097672495,2742.94926108248
2157.95106307346,2742.95926108248
2180.50555721903,2742.96926108248
2232.55337230847,2742.97926108248
2303.60502639144,2742.98926108248
2402.67289944225,2742.99926108248
2513.76498956023,2743.00926108248
2637.16103480661,2743.01926108248
2776.65372215802,2743.02926108248
2910.64456188032,2743.03926108248
3035.84981173194,2743.04926108248
3144.94204842255,2743.05926108248
3217.73086654184,2743.06926108248
3268.11726169794,2743.07926108248
3304.28735605754,2743.08926108248
3319.23256162542,2743.09926108248
3323.68603647794,2743.10926108248
3315.64500209918,2743.11926108248
3300.27205043743,2743.12926108248
3267.52291596817,2743.13926108248
3235.52820824276,2743.14926108248
3188.96042190361,2743.15926108248
3115.35829262818,2743.16926108248
3034.71897873801,2743.17926108248
2953.29144839041,2743.18926108248
2863.58800247615,2743.19926108248
2771.59383261737,2743.20926108248
2698.28443950488,2743.21926108248
2638.4065359873,2743.22926108248
2575.21488438381,2743.23926108248
2515.42592506783,2743.24926108248
2459.5151734209,2743.25926108248
2404.56689334177,2743.26926108248
2349.71730951847,2743.27926108248
2313.88715431501,2743.28926108248
2289.29225688261,2743.29926108248
2287.67568424486,2743.30926108248
2281.64311783684,2743.31926108248
2271.53018760945,2743.32926108248
2249.45354646034,2743.33926108248
2223.2695398075,2743.34926108248
2206.94169297804,2743.35926108248
2204.47618235939,2743.36926108248
2205.25448358569,2743.37926108248
2204.6871005804,2743.38926108248
2205.30708730328,2743.39926108248
2198.94019149897,2743.40926108248
2198.18244963037,2743.41926108248
2195.78560199361,2743.42926108248
2193.19725162932,2743.43926108248
2190.05278130536,2743.44926108248
2190.03071091072,2743.45926108248
2184.30070203859,2743.46926108248
2176.30055431878,2743.47926108248
2160.92180631482,2743.48926108248
2136.46795915024,2743.49926108248
2117.81139218556,2743.50926108248
2104.42276138284,2743.51926108248
2087.12694747334,2743.52926108248
2074.55187752103,2743.53926108248
2064.26005835238,2743.54926108248
2054.42284205225,2743.55926108248
2034.78233255124,2743.56926108248
2003.9987793182,2743.57926108248
1989.14866501128,2743.58926108248
1971.02551791116,2743.59926108248
1962.48541922425,2743.60926108248
1954.85949860348,2743.61926108248
1949.4046299307,2743.62926108248
1944.56537068621,2743.63926108248
1940.31336080803,2743.64926108248
1924.28616690798,2743.65926108248
1900.14317698289,2743.66926108248
1880.41535463724,2743.67926108248
1873.56073409183,2743.68926108248
1878.97138444536,2743.69926108248
1915.68925838367,2743.70926108248
1977.87479475703,2743.71926108248
2067.73294740891,2743.72926108248
2188.5464752224,2743.73926108248
2325.95185200943,2743.74926108248
2468.6547490312,2743.75926108248
2612.33070334212,2743.76926108248
2749.06466008998,2743.77926108248
2866.82716267656,2743.78926108248
2976.33746563832,2743.79926108248
3062.11537737338,2743.80926108248
3118.68344320497,2743.81926108248
3154.70955047718,2743.82926108248
3159.13861666705,2743.83926108248
3130.5576796392,2743.84926108248
3084.1151560353,2743.85926108248
3030.42548545,2743.86926108248
2968.80151131975,2743.87926108248
2918.04931629167,2743.88926108248
2859.27247979529,2743.89926108248
2800.98847067027,2743.90926108248
2756.40702844395,2743.91926108248
2708.13228236838,2743.92926108248
2655.89628094364,2743.93926108248
2595.30268802287,2743.94926108248
2531.41897865859,2743.95926108248
2477.9424982376,2743.96926108248
2433.07350559581,2743.97926108248
2394.21323070046,2743.98926108248
2352.41001723879,2743.99926108248
2318.5658684965,2744.00926108248
2279.69596656061,2744.01926108248
2240.75270536216,2744.02926108248
2207.30116227437,2744.03926108248
2165.26712593447,2744.04926108248
2136.46707064151,2744.05926108248
2123.52151043879,2744.06926108248
2122.41506253466,2744.07926108248
2125.27221822386,2744.08926108248
2136.93295853239,2744.09926108248
2143.81124545771,2744.10926108248
2145.1718553299,2744.11926108248
2144.7735607895,2744.12926108248
2146.84128707189,2744.13926108248
2170.48145652372,2744.14926108248
2194.79947238373,2744.15926108248
2220.94908281951,2744.16926108248
2229.14021242891,2744.17926108248
2227.51548262438,2744.18926108248
2228.51180522255,2744.19926108248
2221.23760060893,2744.20926108248
2214.48628709966,2744.21926108248
2202.69976677224,2744.22926108248
2175.10587829309,2744.23926108248
2144.6850361744,2744.24926108248
2114.5101420379,2744.25926108248
2079.13965876792,2744.26926108248
2049.94452881306,2744.27926108248
2025.21204716799,2744.28926108248
2007.56300872196,2744.29926108248
1997.06464200137,2744.30926108248
1983.96105119864,2744.31926108248
1969.33584592558,2744.32926108248
1944.69482664012,2744.33926108248
1916.8112198052,2744.34926108248
1886.46430129919,2744.35926108248
1867.61944264113,2744.36926108248
1868.42980105954,2744.37926108248
1867.3657285866,2744.38926108248
1870.05452412681,2744.39926108248
1877.94620357998,2744.40926108248
1890.9982020298,2744.41926108248
1909.15910610137,2744.42926108248
1930.06420531953,2744.43926108248
1947.40544988342,2744.44926108248
1957.24563705781,2744.45926108248
1957.55680567847,2744.46926108248
1958.43468632585,2744.47926108248
1948.64412367304,2744.48926108248
1935.5037653168,2744.49926108248
1934.17793089421,2744.50926108248
1945.20323577865,2744.51926108248
1991.7666934834,2744.52926108248
2072.44813472115,2744.53926108248
2188.12636844688,2744.54926108248
2332.80664672454,2744.55926108248
2474.43060989794,2744.56926108248
2602.72413545231,2744.57926108248
2722.12061791867,2744.58926108248
2837.48470556522,2744.59926108248
2935.78195600735,2744.60926108248
3007.76369670813,2744.61926108248
3057.8005156747,2744.62926108248
3095.02754609107,2744.63926108248
3106.13173576332,2744.64926108248
3105.56272534301,2744.65926108248
3097.25852066076,2744.66926108248
3075.39456304023,2744.67926108248
3050.69100308493,2744.68926108248
3013.91049369226,2744.69926108248
2973.78728129222,2744.70926108248
2920.61636348675,2744.71926108248
2848.42157812552,2744.72926108248
2778.91173567173,2744.73926108248
2711.39100469915,2744.74926108248
2647.46190178289,2744.75926108248
2600.62594592642,2744.76926108248
2561.87091573921,2744.77926108248
2511.39849277705,2744.78926108248
2443.47553912261,2744.79926108248
2373.50041957866,2744.80926108248
2308.72487766822,2744.81926108248
2250.10789451407,2744.82926108248
2192.14175141881,2744.83926108248
2139.29496557204,2744.84926108248
2092.52161704401,2744.85926108248
2059.92010220183,2744.86926108248
2037.48480177162,2744.87926108248
2025.69100735042,2744.88926108248
2024.94297689272,2744.89926108248
2024.50111482183,2744.90926108248
2027.49689020613,2744.91926108248
2033.90084505859,2744.92926108248
2025.65725634764,2744.93926108248
2027.28666445668,2744.94926108248
2034.42499583037,2744.95926108248
2029.79732363527,2744.96926108248
2023.46273076807,2744.97926108248
1998.67046967445,2744.98926108248
1958.63130036315,2744.99926108248
1930.6860528275,2745.00926108248
1909.11549039779,2745.01926108248
1891.82605441646,2745.02926108248
1875.97707950625,2745.03926108248
1867.43127703922,2745.04926108248
1854.17629358615,2745.05926108248
1828.65965296335,2745.06926108248
1786.1426001276,2745.07926108248
1746.98166363498,2745.08926108248
1715.4923361326,2745.09926108248
1684.53683128433,2745.10926108248
1655.69439424963,2745.11926108248
1626.25268006516,2745.12926108248
1577.2301647717,2745.13926108248
1543.6227944936,2745.14926108248
1530.55094898274,2745.15926108248
1524.77860399602,2745.16926108248
1519.5008039551,2745.17926108248
1515.10243845677,2745.18926108248
1506.75759597046,2745.19926108248
1497.03714656195,2745.20926108248
1483.89045736296,2745.21926108248
1470.49953466928,2745.22926108248
1464.24534208153,2745.23926108248
1462.64578740284,2745.24926108248
1468.43177234535,2745.25926108248
1472.79018088586,2745.26926108248
1484.27135372935,2745.27926108248
1491.13599583112,2745.28926108248
1495.22859599044,2745.29926108248
1502.47829348523,2745.30926108248
1510.37671912398,2745.31926108248
1517.09260117857,2745.32926108248
1533.25393280422,2745.33926108248
1562.715064816,2745.34926108248
1600.36729680647,2745.35926108248
1657.73925646136,2745.36926108248
1741.64375677692,2745.37926108248
1863.06259838027,2745.38926108248
2014.56308144659,2745.39926108248
2161.90795495198,2745.40926108248
2305.53524457711,2745.41926108248
2431.94591667771,2745.42926108248
2544.0124579551,2745.43926108248
2654.37555842805,2745.44926108248
2749.66380800402,2745.45926108248
2828.75980823703,2745.46926108248
2887.06790436682,2745.47926108248
2925.63799194346,2745.48926108248
2940.29104383746,2745.49926108248
2933.0635434662,2745.50926108248
2899.47061707801,2745.51926108248
2847.33700689394,2745.52926108248
2792.52192721545,2745.53926108248
2727.76285923252,2745.54926108248
2674.76140487623,2745.55926108248
2626.3409531874,2745.56926108248
2572.35295509625,2745.57926108248
2523.31440117688,2745.58926108248
2471.51023661312,2745.59926108248
2434.31305981366,2745.60926108248
2397.05484133157,2745.61926108248
2348.11280852423,2745.62926108248
2293.51487181248,2745.63926108248
2232.42967415503,2745.64926108248
2174.95400343416,2745.65926108248
2125.46528875686,2745.66926108248
2080.42927406282,2745.67926108248
2037.42744895142,2745.68926108248
2002.7697578555,2745.69926108248
1981.55226482957,2745.70926108248
1985.76374205731,2745.71926108248
1996.54540442847,2745.72926108248
2009.89207965075,2745.73926108248
2013.65212144151,2745.74926108248
2009.78383314954,2745.75926108248
2009.84398526591,2745.76926108248
2012.0152802848,2745.77926108248
2027.25471312005,2745.78926108248
2039.34141644319,2745.79926108248
2052.1872675584,2745.80926108248
2056.41240204678,2745.81926108248
2058.18429377456,2745.82926108248
2055.69340811308,2745.83926108248
2052.53676706961,2745.84926108248
2038.17006743471,2745.85926108248
2023.38196249315,2745.86926108248
2011.27948267518,2745.87926108248
1995.48111033867,2745.88926108248
1978.30159200016,2745.89926108248
1963.65836361318,2745.90926108248
1950.71771836788,2745.91926108248
1936.09895029881,2745.92926108248
1911.25682826187,2745.93926108248
1899.14795867765,2745.94926108248
1895.16121779758,2745.95926108248
1895.56323675603,2745.96926108248
1906.66401739972,2745.97926108248
1921.7892862388,2745.98926108248
1936.5701300288,2745.99926108248
1952.14458453233,2746.00926108248
1958.70720531692,2746.01926108248
1957.53389067202,2746.02926108248
1952.03317150714,2746.03926108248
1941.34295699236,2746.04926108248
1931.98829426269,2746.05926108248
1925.52794061482,2746.06926108248
1916.52170169487,2746.07926108248
1912.90049375114,2746.08926108248
1911.86716804601,2746.09926108248
1917.48019622797,2746.10926108248
1942.9281797858,2746.11926108248
1974.46663113081,2746.12926108248
2034.97148923065,2746.13926108248
2133.24570002005,2746.14926108248
2266.27005774069,2746.15926108248
2411.71747747543,2746.16926108248
2560.34549896022,2746.17926108248
2708.01006427096,2746.18926108248
2832.70462047552,2746.19926108248
2942.79110941769,2746.20926108248
3029.76801894128,2746.21926108248
3104.62818953862,2746.22926108248
3153.87429964091,2746.23926108248
3167.62340393411,2746.24926108248
3154.69935413198,2746.25926108248
3124.44333176216,2746.26926108248
3073.3884772323,2746.27926108248
3009.92640713021,2746.28926108248
2944.48182467564,2746.29926108248
2859.20852983733,2746.30926108248
2760.83184834929,2746.31926108248
2648.57686197769,2746.32926108248
2548.04356574413,2746.33926108248
2453.57443377968,2746.34926108248
2363.37340083935,2746.35926108248
2286.0444820816,2746.36926108248
2212.34414077566,2746.37926108248
2148.09393092103,2746.38926108248
2095.59560177886,2746.39926108248
2039.02606857235,2746.40926108248
1997.66353404928,2746.41926108248
1954.91772283924,2746.42926108248
1920.77420937065,2746.43926108248
1896.77592047466,2746.44926108248
1882.80688367875,2746.45926108248
1873.03541081165,2746.46926108248
1874.44955168603,2746.47926108248
1875.25350727261,2746.48926108248
1880.75178849768,2746.49926108248
1897.9242965241,2746.50926108248
1914.0088921313,2746.51926108248
1933.21528971478,2746.52926108248
1969.6300979476,2746.53926108248
1994.33876011803,2746.54926108248
2023.54454975321,2746.55926108248
2050.56811994005,2746.56926108248
2066.88935050933,2746.57926108248
2080.07968122886,2746.58926108248
2076.37704160998,2746.59926108248
2081.80563364481,2746.60926108248
2082.39513178255,2746.61926108248
2079.82126539059,2746.62926108248
2086.21422329351,2746.63926108248
2082.76084497593,2746.64926108248
2073.73660966568,2746.65926108248
2048.08521072942,2746.66926108248
2021.71719405606,2746.67926108248
1994.12260322833,2746.68926108248
1980.58454470332,2746.69926108248
1974.6480826562,2746.70926108248
1963.78165599974,2746.71926108248
1950.65844873204,2746.72926108248
1948.56894917003,2746.73926108248
1937.34648216213,2746.74926108248
1926.56219230383,2746.75926108248
1918.96304745657,2746.76926108248
1917.11060514396,2746.77926108248
1906.20956529816,2746.78926108248
1892.39935758067,2746.79926108248
1883.65319307054,2746.80926108248
1882.7276047904,2746.81926108248
1883.15900914993,2746.82926108248
1880.60923422286,2746.83926108248
1871.59733744342,2746.84926108248
1867.60639760833,2746.85926108248
1861.24254940977,2746.86926108248
1858.99735647333,2746.87926108248
1869.96473426983,2746.88926108248
1917.41927606226,2746.89926108248
1988.24581600292,2746.90926108248
2090.21174671393,2746.91926108248
2209.08677049515,2746.92926108248
2334.77679083846,2746.93926108248
2466.75881045818,2746.94926108248
2581.93548446453,2746.95926108248
2689.18517102208,2746.96926108248
2784.9390442984,2746.97926108248
2872.25149530599,2746.98926108248
2941.07624195893,2746.99926108248
2994.30271709532,2747.00926108248
3021.11565892794,2747.01926108248
3031.13200011706,2747.02926108248
3023.08745280998,2747.03926108248
2993.62128825039,2747.04926108248
2945.93433285879,2747.05926108248
2892.9835657362,2747.06926108248
2837.29375720739,2747.07926108248
2777.27132120234,2747.08926108248
2710.46576462007,2747.09926108248
2643.25921459647,2747.10926108248
2573.44171624994,2747.11926108248
2497.22302287638,2747.12926108248
2431.11219154425,2747.13926108248
2368.07811827069,2747.14926108248
2313.91211058752,2747.15926108248
2262.23197882633,2747.16926108248
2212.75051827763,2747.17926108248
2162.38051498417,2747.18926108248
2112.65996586251,2747.19926108248
2056.72418844208,2747.20926108248
2004.69537206089,2747.21926108248
1974.81619741339,2747.22926108248
1956.14501010129,2747.23926108248
1940.65844323466,2747.24926108248
1922.43869272909,2747.25926108248
1916.92143111553,2747.26926108248
1906.36350268582,2747.27926108248
1898.48202406656,2747.28926108248
1904.23527914732,2747.29926108248
1902.57334562713,2747.30926108248
1891.46967431548,2747.31926108248
1881.20645189305,2747.32926108248
1868.91489075212,2747.33926108248
1865.23275583272,2747.34926108248
1853.94820960305,2747.35926108248
1844.22973085523,2747.36926108248
1830.21697851005,2747.37926108248
1824.86358222946,2747.38926108248
1813.85621161926,2747.39926108248
1805.02819399649,2747.40926108248
1797.25626473662,2747.41926108248
1786.09745586466,2747.42926108248
1778.99732011007,2747.43926108248
1771.52621865997,2747.44926108248
1775.44111111713,2747.45926108248
1781.82847440503,2747.46926108248
1780.58363294301,2747.47926108248
1766.2759040301,2747.48926108248
1756.77384117278,2747.49926108248
1740.71918029496,2747.50926108248
1720.80784134863,2747.51926108248
1699.19464591686,2747.52926108248
1675.21789162151,2747.53926108248
1663.83684059573,2747.54926108248
1660.2984743073,2747.55926108248
1653.19104269845,2747.56926108248
1630.6031369004,2747.57926108248
1604.87497290326,2747.58926108248
1586.13981134791,2747.59926108248
1557.32558372399,2747.60926108248
1532.61861338111,2747.61926108248
1515.70117946735,2747.62926108248
1514.66348953673,2747.63926108248
1527.54557056013,2747.64926108248
1542.13268543198,2747.65926108248
1548.63326848456,2747.66926108248
1550.66074461467,2747.67926108248
1544.0020196189,2747.68926108248
1545.46680754529,2747.69926108248
1544.53351587354,2747.70926108248
1551.58956313547,2747.71926108248
1553.28052294031,2747.72926108248
1557.97838984157,2747.73926108248
1568.79888521748,2747.74926108248
1585.64961643677,2747.75926108248
1618.3802902405,2747.76926108248
1652.45511843242,2747.77926108248
1686.82275792705,2747.78926108248
1745.53590942484,2747.79926108248
1813.6299427224,2747.80926108248
1900.32677422507,2747.81926108248
2014.20423988946,2747.82926108248
2150.18066960067,2747.83926108248
2316.85015212226,2747.84926108248
2493.09584442902,2747.85926108248
2660.92387330009,2747.86926108248
2811.82224081048,2747.87926108248
2938.11569518504,2747.88926108248
3041.42665406553,2747.89926108248
3118.94796444247,2747.90926108248
3176.05481953815,2747.91926108248
3197.49826988415,2747.92926108248
3217.51541506822,2747.93926108248
3213.71092045365,2747.94926108248
3186.84092818088,2747.95926108248
3143.02783510522,2747.96926108248
3089.79401276368,2747.97926108248
3038.16902470072,2747.98926108248
2982.78956307718,2747.99926108248
2930.785821101,2748.00926108248
2875.86400794303,2748.01926108248
2831.58629228823,2748.02926108248
2783.00565222678,2748.03926108248
2731.00251179367,2748.04926108248
2671.70755492764,2748.05926108248
2608.30896236296,2748.06926108248
2563.70050062678,2748.07926108248
2518.07684779808,2748.08926108248
2478.69588397143,2748.09926108248
2426.94147644248,2748.10926108248
2372.54460332218,2748.11926108248
2311.41488288976,2748.12926108248
2259.55451477475,2748.13926108248
2212.80185007267,2748.14926108248
2176.34694628645,2748.15926108248
2148.23735769649,2748.16926108248
2125.70862761226,2748.17926108248
2111.29745615013,2748.18926108248
2107.72081881608,2748.19926108248
2108.06196248685,2748.20926108248
2107.42300368468,2748.21926108248
2116.12965743021,2748.22926108248
2138.01877426449,2748.23926108248
2154.94558228381,2748.24926108248
2166.71246692687,2748.25926108248
2182.65498825011,2748.26926108248
2203.79664887077,2748.27926108248
2204.97948773355,2748.28926108248
2211.74316289596,2748.29926108248
2206.9315986923,2748.30926108248
2198.72813817403,2748.31926108248
2184.57369077651,2748.32926108248
2160.12380802855,2748.33926108248
2129.94729271408,2748.34926108248
2109.39911712894,2748.35926108248
2079.42919572149,2748.36926108248
2062.02264658679,2748.37926108248
2044.53506780096,2748.38926108248
2037.71094745484,2748.39926108248
2029.39094685756,2748.40926108248
2025.55376385314,2748.41926108248
2014.43205612163,2748.42926108248
1987.22976914623,2748.43926108248
1962.45577714848,2748.44926108248
1945.75367738941,2748.45926108248
1943.37828641445,2748.46926108248
1942.55926411492,2748.47926108248
1943.30989157979,2748.48926108248
1936.08089431362,2748.49926108248
1929.34220641578,2748.50926108248
1919.08030301585,2748.51926108248
1903.56901278913,2748.52926108248
1896.46178747979,2748.53926108248
1903.16326056066,2748.54926108248
1921.91105862112,2748.55926108248
1943.15314888023,2748.56926108248
1951.2586070479,2748.57926108248
1949.02715546492,2748.58926108248
1952.87371229795,2748.59926108248
1959.07618451841,2748.60926108248
1953.48520718657,2748.61926108248
1938.67273359902,2748.62926108248
1935.93377770294,2748.63926108248
1929.98309922355,2748.64926108248
1918.4458824158,2748.65926108248
1921.26718490671,2748.66926108248
1916.8038986728,2748.67926108248
1913.01715007021,2748.68926108248
1912.16807482808,2748.69926108248
1921.34474065618,2748.70926108248
1928.65923942102,2748.71926108248
1932.84002832257,2748.72926108248
1935.46974087755,2748.73926108248
1941.67826917321,2748.74926108248
1971.98386197899,2748.75926108248
2031.95713069781,2748.76926108248
2120.1824097395,2748.77926108248
2241.96567135885,2748.78926108248
2383.23857435175,2748.79926108248
2538.5861574978,2748.80926108248
2691.29114481834,2748.81926108248
2830.19375869635,2748.82926108248
2951.16955814365,2748.83926108248
3053.64724638115,2748.84926108248
3129.56208428337,2748.85926108248
3172.37463911508,2748.86926108248
3199.00688406837,2748.87926108248
3211.99207799558,2748.88926108248
3202.68560258602,2748.89926108248
3180.3618977035,2748.90926108248
3128.19228182662,2748.91926108248
3076.0189464618,2748.92926108248
3011.55918222713,2748.93926108248
2938.48744032833,2748.94926108248
2856.40706379355,2748.95926108248
2774.10904371227,2748.96926108248
2696.6906923745,2748.97926108248
2621.79354847364,2748.98926108248
2569.81032232058,2748.99926108248
2528.30988733081,2749.00926108248
2500.55675383876,2749.01926108248
2466.8637434783,2749.02926108248
2425.65119811034,2749.03926108248
2375.15266092804,2749.04926108248
2325.1853461996,2749.05926108248
2281.51220620345,2749.06926108248
2240.30384087753,2749.07926108248
2212.18851969433,2749.08926108248
2187.35844862195,2749.09926108248
2156.64867055504,2749.10926108248
2122.74171596372,2749.11926108248
2113.90761654181,2749.12926108248
2115.21322268585,2749.13926108248
2121.54040782551,2749.14926108248
2140.47111297805,2749.15926108248
2157.34009316533,2749.16926108248
2170.99500570548,2749.17926108248
2177.86591688117,2749.18926108248
2183.61829254238,2749.19926108248
2182.93141502995,2749.20926108248
2174.93737505257,2749.21926108248
2152.11715967979,2749.22926108248
2136.60625941108,2749.23926108248
2119.19009883841,2749.24926108248
2095.92241728889,2749.25926108248
2073.68369905325,2749.26926108248
2052.49487660618,2749.27926108248
2027.91786844854,2749.28926108248
2008.41841346388,2749.29926108248
1988.03970284043,2749.30926108248
1970.3173239052,2749.31926108248
1964.48448426374,2749.32926108248
1959.6793531227,2749.33926108248
1957.03388082311,2749.34926108248
1959.24483824122,2749.35926108248
1946.54857609366,2749.36926108248
1923.83747082453,2749.37926108248
1900.30200272801,2749.38926108248
1883.46250875503,2749.39926108248
1880.73225722808,2749.40926108248
1868.19349519521,2749.41926108248
1868.49305647293,2749.42926108248
1853.68989887151,2749.43926108248
1833.21984115916,2749.44926108248
1813.4684860247,2749.45926108248
1798.87981150905,2749.46926108248
1777.82741142396,2749.47926108248
1760.61729075464,2749.48926108248
1752.92610916069,2749.49926108248
1742.97797164348,2749.50926108248
1723.30038155241,2749.51926108248
