PPG,time
-0.131504521363152,4051.47326737652
-0.266937304589347,4051.48326737652
-0.243828046051808,4051.49326737652
-0.266795051801389,4051.50326737652
-0.261296843610372,4051.51326737652
-0.270982836353743,4051.52326737652
-0.26908207342301,4051.53326737652
-0.273200745082207,4051.54326737652
-0.272835609443679,4051.55326737652
-0.274366882878704,4051.56326737652
-0.274321806977748,4051.57326737652
-0.274343601250531,4051.58326737652
-0.274554147797661,4051.59326737652
-0.274499587192439,4051.60326737652
-0.274639275210114,4051.61326737652
-0.276121322339653,4051.62326737652
-0.278459606756167,4051.63326737652
-0.282088205680588,4051.64326737652
-0.286652125559036,4051.65326737652
-0.291644688180602,4051.66326737652
-0.297204918992092,4051.67326737652
-0.303141271156188,4051.68326737652
-0.309909828506534,4051.69326737652
-0.317104735916106,4051.70326737652
-0.324729929901623,4051.71326737652
-0.332994568264761,4051.72326737652
-0.341178260396755,4051.73326737652
-0.349787645709502,4051.74326737652
-0.358140287568863,4051.75326737652
-0.365911877966784,4051.76326737652
-0.374152174707001,4051.77326737652
-0.382021549316983,4051.78326737652
-0.3902931847738,4051.79326737652
-0.398266983820971,4051.80326737652
-0.406551367118412,4051.81326737652
-0.414592317059466,4051.82326737652
-0.422619126281921,4051.83326737652
-0.430615213804837,4051.84326737652
-0.438166940225474,4051.85326737652
-0.445820402860646,4051.86326737652
-0.453046698220356,4051.87326737652
-0.460206533851943,4051.88326737652
-0.466903847615419,4051.89326737652
-0.473502132820561,4051.90326737652
-0.480395793867833,4051.91326737652
-0.487659782016509,4051.92326737652
-0.495224013464789,4051.93326737652
-0.503094139215919,4051.94326737652
-0.51072620544053,4051.95326737652
-0.518444181085333,4051.96326737652
-0.525753759909971,4051.97326737652
-0.533119197097461,4051.98326737652
-0.540038438629862,4051.99326737652
-0.546288769078275,4052.00326737652
-0.552993848355958,4052.01326737652
-0.559163466224355,4052.02326737652
-0.565804758636559,4052.03326737652
-0.57284441282135,4052.04326737652
-0.579694245452024,4052.05326737652
-0.587034951093404,4052.06326737652
-0.594250568169648,4052.07326737652
-0.600978154060677,4052.08326737652
-0.608057776525882,4052.09326737652
-0.614799102795564,4052.10326737652
-0.621464425880166,4052.11326737652
-0.627792810523625,4052.12326737652
-0.633218083371126,4052.13326737652
-0.638372309514586,4052.14326737652
-0.64247476910294,4052.15326737652
-0.645113022688737,4052.16326737652
-0.645087658422194,4052.17326737652
-0.641417133242988,4052.18326737652
-0.633100607321944,4052.19326737652
-0.619279946982123,4052.20326737652
-0.599754008796012,4052.21326737652
-0.575057359440324,4052.22326737652
-0.546425711107501,4052.23326737652
-0.51422677931977,4052.24326737652
-0.481255628435264,4052.25326737652
-0.448159807882213,4052.26326737652
-0.417645058726107,4052.27326737652
-0.390035428613572,4052.28326737652
-0.367129659599063,4052.29326737652
-0.348658288517859,4052.30326737652
-0.334824062164726,4052.31326737652
-0.324605531543648,4052.32326737652
-0.316553322331687,4052.33326737652
-0.310559836789036,4052.34326737652
-0.305370307744655,4052.35326737652
-0.300876962071411,4052.36326737652
-0.296607152604646,4052.37326737652
-0.292658386040485,4052.38326737652
-0.289171607440735,4052.39326737652
-0.285709961436807,4052.40326737652
-0.281528400766044,4052.41326737652
-0.277426372132753,4052.42326737652
-0.273558785839365,4052.43326737652
-0.270942868475174,4052.44326737652
-0.270380635918581,4052.45326737652
-0.272138768300496,4052.46326737652
-0.276854002699548,4052.47326737652
-0.283192697493976,4052.48326737652
-0.291469615936478,4052.49326737652
-0.299357285462123,4052.50326737652
-0.306804027952938,4052.51326737652
-0.312732345398046,4052.52326737652
-0.317585008587631,4052.53326737652
-0.321419441318617,4052.54326737652
-0.323707619457532,4052.55326737652
-0.32464868957487,4052.56326737652
-0.324907027104206,4052.57326737652
-0.324856697980053,4052.58326737652
-0.323345242124268,4052.59326737652
-0.322073983430649,4052.60326737652
-0.320970317363526,4052.61326737652
-0.319727803197936,4052.62326737652
-0.318910904557197,4052.63326737652
-0.318533803399238,4052.64326737652
-0.318916926908188,4052.65326737652
-0.319892566737349,4052.66326737652
-0.321610935981325,4052.67326737652
-0.32432139405202,4052.68326737652
-0.327527558413136,4052.69326737652
-0.330878575215764,4052.70326737652
-0.334978729613367,4052.71326737652
-0.339454973392241,4052.72326737652
-0.343885756840181,4052.73326737652
-0.349180167872408,4052.74326737652
-0.354636708062451,4052.75326737652
-0.360257271919133,4052.76326737652
-0.366838431220354,4052.77326737652
-0.373638105901713,4052.78326737652
-0.380337868918255,4052.79326737652
-0.38729683464563,4052.80326737652
-0.394026627599136,4052.81326737652
-0.400334168764038,4052.82326737652
-0.406766329711485,4052.83326737652
-0.413872684465475,4052.84326737652
-0.420742872834299,4052.85326737652
-0.427578142114151,4052.86326737652
-0.434078944556069,4052.87326737652
-0.439784936067935,4052.88326737652
-0.445156195354305,4052.89326737652
-0.449930121708458,4052.90326737652
-0.454665773486223,4052.91326737652
-0.459151783281958,4052.92326737652
-0.46367869163824,4052.93326737652
-0.468166749657187,4052.94326737652
-0.473648729559398,4052.95326737652
-0.479285786261454,4052.96326737652
-0.485562326302159,4052.97326737652
-0.492526022290027,4052.98326737652
-0.499681097374146,4052.99326737652
-0.506753893719358,4053.00326737652
-0.513136823362637,4053.01326737652
-0.518731657904802,4053.02326737652
-0.524085767696851,4053.03326737652
-0.529016469917635,4053.04326737652
-0.533709555975077,4053.05326737652
-0.538495801965708,4053.06326737652
-0.543256197917829,4053.07326737652
-0.548061512180258,4053.08326737652
-0.553096494920346,4053.09326737652
-0.557524649351932,4053.10326737652
-0.561404396422824,4053.11326737652
-0.56570176748099,4053.12326737652
-0.569382660513906,4053.13326737652
-0.573151593744131,4053.14326737652
-0.577514667041331,4053.15326737652
-0.582299970189141,4053.16326737652
-0.587111194915802,4053.17326737652
-0.591573981540287,4053.18326737652
-0.596449496006224,4053.19326737652
-0.601197258239237,4053.20326737652
-0.606264716712948,4053.21326737652
-0.610713707288008,4053.22326737652
-0.614967638941248,4053.23326737652
-0.618299958578837,4053.24326737652
-0.62042374881663,4053.25326737652
-0.621510000748482,4053.26326737652
-0.619179073628586,4053.27326737652
-0.612496923657066,4053.28326737652
-0.600639851301327,4053.29326737652
-0.582698858993303,4053.30326737652
-0.559676569997763,4053.31326737652
-0.531407506637852,4053.32326737652
-0.500097973086803,4053.33326737652
-0.467150480652877,4053.34326737652
-0.434515241873869,4053.35326737652
-0.402577096676091,4053.36326737652
-0.37324975517054,4053.37326737652
-0.347730872487034,4053.38326737652
-0.326241444223352,4053.39326737652
-0.309742972626186,4053.40326737652
-0.296586423472775,4053.41326737652
-0.286748298194376,4053.42326737652
-0.279298706286647,4053.43326737652
-0.273481554899823,4053.44326737652
-0.268490671974438,4053.45326737652
-0.264323094842732,4053.46326737652
-0.260604150500124,4053.47326737652
-0.257011539499997,4053.48326737652
-0.252972126352531,4053.49326737652
-0.24876663013818,4053.50326737652
-0.244211717415988,4053.51326737652
-0.239831941310847,4053.52326737652
-0.236253008261113,4053.53326737652
-0.233593450658178,4053.54326737652
-0.233279026403022,4053.55326737652
-0.235698134269779,4053.56326737652
-0.239814459726352,4053.57326737652
-0.245836836760382,4053.58326737652
-0.252476619239259,4053.59326737652
-0.259193251220427,4053.60326737652
-0.265078345982524,4053.61326737652
-0.269581213139164,4053.62326737652
-0.273203695957985,4053.63326737652
-0.275570626416116,4053.64326737652
-0.276761075082938,4053.65326737652
-0.27683855414709,4053.66326737652
-0.27643605156143,4053.67326737652
-0.275042187557208,4053.68326737652
-0.272988255107375,4053.69326737652
-0.270726028311791,4053.70326737652
-0.268355590543762,4053.71326737652
-0.266257745492458,4053.72326737652
-0.265274245136394,4053.73326737652
-0.264534396870099,4053.74326737652
-0.263989757562738,4053.75326737652
-0.264836888520506,4053.76326737652
-0.266338153495268,4053.77326737652
-0.268252947098546,4053.78326737652
-0.270842832032684,4053.79326737652
-0.273712349187038,4053.80326737652
-0.27752896138113,4053.81326737652
-0.282044155277102,4053.82326737652
-0.286810281815955,4053.83326737652
-0.292438919945414,4053.84326737652
-0.298666539274921,4053.85326737652
-0.305505247230345,4053.86326737652
-0.311988330152896,4053.87326737652
-0.318229228895264,4053.88326737652
-0.323601451297366,4053.89326737652
-0.328923504239228,4053.90326737652
-0.334184629846984,4053.91326737652
-0.339158210743748,4053.92326737652
-0.344330523514008,4053.93326737652
-0.349673116509683,4053.94326737652
-0.354881214592193,4053.95326737652
-0.360194010586817,4053.96326737652
-0.365332950124151,4053.97326737652
-0.370745699611287,4053.98326737652
-0.375510876375272,4053.99326737652
-0.379798062436606,4054.00326737652
-0.38389674546335,4054.01326737652
-0.387890818569453,4054.02326737652
-0.392475438973398,4054.03326737652
-0.397694779982974,4054.04326737652
-0.402998750374199,4054.05326737652
-0.408404376405989,4054.06326737652
-0.4138458349659,4054.07326737652
-0.419198027300908,4054.08326737652
-0.424611655480611,4054.09326737652
-0.429993695573216,4054.10326737652
-0.435192411667494,4054.11326737652
-0.440564953027459,4054.12326737652
-0.445772439894198,4054.13326737652
-0.450439602664184,4054.14326737652
-0.455355866712593,4054.15326737652
-0.45969541808345,4054.16326737652
-0.464249682470766,4054.17326737652
-0.468052144542732,4054.18326737652
-0.471356282503328,4054.19326737652
-0.474829120975795,4054.20326737652
-0.478269367742254,4054.21326737652
-0.481953903966556,4054.22326737652
-0.486099316324238,4054.23326737652
-0.490511119808203,4054.24326737652
-0.494697768915678,4054.25326737652
-0.498917097487913,4054.26326737652
-0.502599733824046,4054.27326737652
-0.506165438083642,4054.28326737652
-0.509925809495911,4054.29326737652
-0.513511430647844,4054.30326737652
-0.517742811319913,4054.31326737652
-0.52201574852895,4054.32326737652
-0.52627932875293,4054.33326737652
-0.530325987282669,4054.34326737652
-0.53462142680472,4054.35326737652
-0.538249926123364,4054.36326737652
-0.541484095303593,4054.37326737652
-0.544483736325666,4054.38326737652
-0.547602261458367,4054.39326737652
-0.549771089243879,4054.40326737652
-0.549624403944763,4054.41326737652
-0.545784384465765,4054.42326737652
-0.537091108816558,4054.43326737652
-0.522743232073539,4054.44326737652
-0.501811107022498,4054.45326737652
-0.475553248660721,4054.46326737652
-0.444626442501542,4054.47326737652
-0.410765170228596,4054.48326737652
-0.375667758597491,4054.49326737652
-0.340965376489502,4054.50326737652
-0.307611800682269,4054.51326737652
-0.277279178487569,4054.52326737652
-0.251424527967014,4054.53326737652
-0.230069297641051,4054.54326737652
-0.213777577335207,4054.55326737652
-0.201528215301975,4054.56326737652
-0.192179318404085,4054.57326737652
-0.185303332354158,4054.58326737652
-0.180096344501147,4054.59326737652
-0.175259291330331,4054.60326737652
-0.170801804175143,4054.61326737652
-0.16661760250513,4054.62326737652
-0.162148246865972,4054.63326737652
-0.158172980666664,4054.64326737652
-0.153614959218567,4054.65326737652
-0.150072864782487,4054.66326737652
-0.146682146710139,4054.67326737652
-0.14399419448589,4054.68326737652
-0.142793483373828,4054.69326737652
-0.143708659418023,4054.70326737652
-0.147048044382311,4054.71326737652
-0.151609364559727,4054.72326737652
-0.157025165449469,4054.73326737652
-0.161965939843571,4054.74326737652
-0.165934653010056,4054.75326737652
-0.16829663460717,4054.76326737652
-0.169261365643601,4054.77326737652
-0.16894425896446,4054.78326737652
-0.167978650085718,4054.79326737652
-0.166539909096085,4054.80326737652
-0.164447334571351,4054.81326737652
-0.162552689853913,4054.82326737652
-0.159707974667802,4054.83326737652
-0.156725510530858,4054.84326737652
-0.1534077546297,4054.85326737652
-0.15005563245002,4054.86326737652
-0.147467537028265,4054.87326737652
-0.145541035974791,4054.88326737652
-0.144415622226849,4054.89326737652
-0.143465645694796,4054.90326737652
-0.143118384652513,4054.91326737652
-0.143563349286601,4054.92326737652
-0.144514067398934,4054.93326737652
-0.14633369884717,4054.94326737652
-0.149093111594757,4054.95326737652
-0.152896442360495,4054.96326737652
-0.157384573198061,4054.97326737652
-0.16263142670417,4054.98326737652
-0.168552086557504,4054.99326737652
-0.174098907791932,4055.00326737652
-0.179512285008179,4055.01326737652
-0.184873267713843,4055.02326737652
-0.189330837815344,4055.03326737652
-0.194102507016039,4055.04326737652
-0.198983118045398,4055.05326737652
-0.203781279646084,4055.06326737652
-0.208722440986834,4055.07326737652
-0.21310754314773,4055.08326737652
-0.217536846703865,4055.09326737652
-0.222024440815965,4055.10326737652
-0.226944278404852,4055.11326737652
-0.231865935151325,4055.12326737652
-0.237672604971054,4055.13326737652
-0.243242038188856,4055.14326737652
-0.248306284223848,4055.15326737652
-0.253152540206159,4055.16326737652
-0.257591964262211,4055.17326737652
-0.261368165534976,4055.18326737652
-0.265241195894447,4055.19326737652
-0.269466089823382,4055.20326737652
-0.274203793081283,4055.21326737652
-0.27863227165762,4055.22326737652
-0.28332041217642,4055.23326737652
-0.288115436150073,4055.24326737652
-0.29284442980079,4055.25326737652
-0.296731915090607,4055.26326737652
-0.300543736303947,4055.27326737652
-0.304935716059717,4055.28326737652
-0.309170784791453,4055.29326737652
-0.313066435115342,4055.30326737652
-0.316557640106503,4055.31326737652
-0.320137109521626,4055.32326737652
-0.323306404030893,4055.33326737652
-0.326687642797201,4055.34326737652
-0.32990367692924,4055.35326737652
-0.333017985986016,4055.36326737652
-0.335282951765684,4055.37326737652
-0.337707255365438,4055.38326737652
-0.339346854273741,4055.39326737652
-0.340601039013046,4055.40326737652
-0.341462095451104,4055.41326737652
-0.34083441548185,4055.42326737652
-0.337659865570268,4055.43326737652
-0.330688529650057,4055.44326737652
-0.318376032857936,4055.45326737652
-0.30030859930397,4055.46326737652
-0.275917297558108,4055.47326737652
-0.245981176302233,4055.48326737652
-0.211823498213074,4055.49326737652
-0.175009197028444,4055.50326737652
-0.137480230109218,4055.51326737652
-0.101264985459311,4055.52326737652
-0.0678941736316145,4055.53326737652
-0.0387865005946616,4055.54326737652
-0.0142071141106619,4055.55326737652
0.00520018493329204,4055.56326737652
0.0202130326882505,4055.57326737652
0.0311954401246478,4055.58326737652
0.0386124023263242,4055.59326737652
0.0431555307891447,4055.60326737652
0.0459602992467464,4055.61326737652
0.0473180300590246,4055.62326737652
0.0481065152451949,4055.63326737652
0.0493002511469319,4055.64326737652
0.0501903441918266,4055.65326737652
0.0511827182530373,4055.66326737652
0.052208322351394,4055.67326737652
0.0536580092436859,4055.68326737652
0.0541456251959121,4055.69326737652
0.0529619182974634,4055.70326737652
0.0502274334423075,4055.71326737652
0.0453750139306257,4055.72326737652
0.0390385679880376,4055.73326737652
0.0316220127642486,4055.74326737652
0.0247328270384499,4055.75326737652
0.0182053548032403,4055.76326737652
0.0130763389922662,4055.77326737652
0.00929721344199269,4055.78326737652
0.00735392597667033,4055.79326737652
0.0067124126944797,4055.80326737652
0.00745908587538758,4055.81326737652
0.00970065875275362,4055.82326737652
0.0123599237753212,4055.83326737652
0.01536628377217,4055.84326737652
0.0182685469986363,4055.85326737652
0.0211336490335221,4055.86326737652
0.0229737379632404,4055.87326737652
0.0244117947670549,4055.88326737652
0.0250686754076811,4055.89326737652
0.0250705082000036,4055.90326737652
0.0240979814272079,4055.91326737652
0.022611482288576,4055.92326737652
0.0201615900945553,4055.93326737652
0.0165387238639834,4055.94326737652
0.0123589709144281,4055.95326737652
0.00787930992031618,4055.96326737652
0.0025799008674034,4055.97326737652
-0.00363569504896533,4055.98326737652
-0.00988080185573465,4055.99326737652
-0.0169306384574552,4056.00326737652
-0.0234998580150252,4056.01326737652
-0.0297104894664714,4056.02326737652
-0.0357723333070355,4056.03326737652
-0.0415258856255796,4056.04326737652
-0.0474506776394993,4056.05326737652
-0.0533212717115301,4056.06326737652
-0.0593972845446714,4056.07326737652
-0.0658917562268249,4056.08326737652
-0.0719172725795037,4056.09326737652
-0.078437113758299,4056.10326737652
-0.0843168698156026,4056.11326737652
-0.0898961697609523,4056.12326737652
-0.0957137465203302,4056.13326737652
-0.101189270210841,4056.14326737652
-0.106038521324867,4056.15326737652
-0.110951598368489,4056.16326737652
-0.116514195074082,4056.17326737652
-0.122567181497972,4056.18326737652
-0.129468301849728,4056.19326737652
-0.136727778763436,4056.20326737652
-0.143988191890376,4056.21326737652
-0.150833551473645,4056.22326737652
-0.156643376809532,4056.23326737652
-0.161709346106594,4056.24326737652
-0.166363801648751,4056.25326737652
-0.171012718009228,4056.26326737652
-0.176547798504067,4056.27326737652
-0.182161606271359,4056.28326737652
-0.188324374362445,4056.29326737652
-0.19437218235817,4056.30326737652
-0.200179795498724,4056.31326737652
-0.206233913025376,4056.32326737652
-0.212318938846458,4056.33326737652
-0.218410772749786,4056.34326737652
-0.225014405306515,4056.35326737652
-0.230881565943957,4056.36326737652
-0.236483457046315,4056.37326737652
-0.241560433041473,4056.38326737652
-0.246179938508405,4056.39326737652
-0.250741606992827,4056.40326737652
-0.254548011132561,4056.41326737652
-0.258157364188416,4056.42326737652
-0.25983278531033,4056.43326737652
-0.258552230978726,4056.44326737652
-0.253133317942697,4056.45326737652
-0.242309864356131,4056.46326737652
-0.225403735890876,4056.47326737652
-0.202392012548918,4056.48326737652
-0.174032399409131,4056.49326737652
-0.141889888830613,4056.50326737652
-0.106690016815545,4056.51326737652
-0.0719826429589555,4056.52326737652
-0.038677690609842,4056.53326737652
-0.00818129385029828,4056.54326737652
0.0172971202209789,4056.55326737652
0.0379893067793523,4056.56326737652
0.0533650614424172,4056.57326737652
0.0643575754108341,4056.58326737652
0.071709193731002,4056.59326737652
0.0767337375969011,4056.60326737652
0.0800670595285952,4056.61326737652
0.0817355190286487,4056.62326737652
0.0832569878473529,4056.63326737652
0.0836894143857546,4056.64326737652
0.0843649653963936,4056.65326737652
0.0849489730228104,4056.66326737652
0.085687625151492,4056.67326737652
0.0858359433261783,4056.68326737652
0.0868597080909005,4056.69326737652
0.0871969600214076,4056.70326737652
0.0870650383064594,4056.71326737652
0.0853566282547529,4056.72326737652
0.0809906789117944,4056.73326737652
0.0745506264916953,4056.74326737652
0.0664126068495929,4056.75326737652
0.0579802209871949,4056.76326737652
0.0498748255498969,4056.77326737652
0.0424245390547179,4056.78326737652
0.0358600817209173,4056.79326737652
0.029925006522992,4056.80326737652
0.0248665905173505,4056.81326737652
0.0211339769219192,4056.82326737652
0.0178346631566377,4056.83326737652
0.0155204068695756,4056.84326737652
0.0140318294943078,4056.85326737652
0.0129998106570672,4056.86326737652
0.0124553846810084,4056.87326737652
0.0122064121461438,4056.88326737652
0.011369774633451,4056.89326737652
0.0106072586327433,4056.90326737652
0.00892852478453413,4056.91326737652
0.00664486928079831,4056.92326737652
0.0028865182695889,4056.93326737652
-0.00161874518434531,4056.94326737652
-0.0065171889798244,4056.95326737652
-0.0122356026922903,4056.96326737652
-0.0186991658783209,4056.97326737652
-0.0253487447035767,4056.98326737652
-0.0321344037500192,4056.99326737652
-0.0393535139490539,4057.00326737652
-0.0468457756492948,4057.01326737652
-0.0535987811247622,4057.02326737652
-0.0609686409760455,4057.03326737652
-0.0684750619589884,4057.04326737652
-0.0760169876232466,4057.05326737652
-0.0839887279132658,4057.06326737652
-0.091631378418357,4057.07326737652
-0.0998704293066993,4057.08326737652
-0.108281708625915,4057.09326737652
-0.116757395510416,4057.10326737652
-0.124977413096317,4057.11326737652
-0.133169072560806,4057.12326737652
-0.140620853758214,4057.13326737652
-0.147873419946274,4057.14326737652
-0.155036274487464,4057.15326737652
-0.161506790918005,4057.16326737652
-0.168889590996494,4057.17326737652
-0.17668320815233,4057.18326737652
-0.184646571073529,4057.19326737652
-0.193165640693479,4057.20326737652
-0.202220675917833,4057.21326737652
-0.21099545517479,4057.22326737652
-0.219612954996626,4057.23326737652
-0.228583495969527,4057.24326737652
-0.237458912683088,4057.25326737652
-0.245638332351195,4057.26326737652
-0.253329635229919,4057.27326737652
-0.260758960049379,4057.28326737652
-0.267838771968993,4057.29326737652
-0.274788321227507,4057.30326737652
-0.2821077142841,4057.31326737652
-0.289792965504491,4057.32326737652
-0.297364652403519,4057.33326737652
-0.304135282587136,4057.34326737652
-0.310478422664645,4057.35326737652
-0.316271609646238,4057.36326737652
-0.32244810626221,4057.37326737652
-0.32832473759189,4057.38326737652
-0.334310002857752,4057.39326737652
-0.341229014573765,4057.40326737652
-0.348675498815173,4057.41326737652
-0.356282741971332,4057.42326737652
-0.364047549632123,4057.43326737652
-0.370973529161235,4057.44326737652
-0.377992886803088,4057.45326737652
-0.384169905615654,4057.46326737652
-0.390179955462467,4057.47326737652
-0.396353833964737,4057.48326737652
-0.401800466671097,4057.49326737652
-0.406829179086819,4057.50326737652
-0.41050568000041,4057.51326737652
-0.411957592206448,4057.52326737652
-0.410359650687222,4057.53326737652
-0.403981334891693,4057.54326737652
-0.392276488137316,4057.55326737652
-0.374442977987335,4057.56326737652
-0.351635363794854,4057.57326737652
-0.324992584683333,4057.58326737652
-0.29619224377242,4057.59326737652
-0.266258204241666,4057.60326737652
-0.237631100608833,4057.61326737652
-0.210900946877717,4057.62326737652
-0.187913648974478,4057.63326737652
-0.168484045385374,4057.64326737652
-0.153437663309488,4057.65326737652
-0.142163278265452,4057.66326737652
-0.13459546041923,4057.67326737652
-0.129436924530718,4057.68326737652
-0.126069442023891,4057.69326737652
-0.123201887179235,4057.70326737652
-0.121146202875046,4057.71326737652
-0.119826206598183,4057.72326737652
-0.11948089789573,4057.73326737652
-0.119582659967024,4057.74326737652
-0.119112785306421,4057.75326737652
-0.118658542859145,4057.76326737652
-0.117599562601041,4057.77326737652
-0.116296589917279,4057.78326737652
-0.115678662068763,4057.79326737652
-0.116420167158504,4057.80326737652
-0.119451903198079,4057.81326737652
-0.124189555411986,4057.82326737652
-0.130696753930982,4057.83326737652
-0.13850468681832,4057.84326737652
-0.146467216177576,4057.85326737652
-0.153429919905834,4057.86326737652
-0.159348796160745,4057.87326737652
-0.164051382735314,4057.88326737652
-0.168088858213271,4057.89326737652
-0.171111005446656,4057.90326737652
-0.172919485189937,4057.91326737652
-0.174458871995855,4057.92326737652
-0.17537685853414,4057.93326737652
-0.175786200235215,4057.94326737652
-0.176917912721745,4057.95326737652
-0.177789533377332,4057.96326737652
-0.178750963030147,4057.97326737652
-0.17978184555517,4057.98326737652
-0.180886701278857,4057.99326737652
-0.182196154524115,4058.00326737652
-0.183865818631914,4058.01326737652
-0.186215889011272,4058.02326737652
-0.189358930113349,4058.03326737652
-0.19334287276984,4058.04326737652
-0.198260338527704,4058.05326737652
-0.203472725243427,4058.06326737652
-0.209197267256522,4058.07326737652
-0.215177219711971,4058.08326737652
-0.221257480443395,4058.09326737652
-0.22778732515375,4058.10326737652
-0.234645699237837,4058.11326737652
-0.241482807114902,4058.12326737652
-0.248431573337156,4058.13326737652
-0.254932538731942,4058.14326737652
-0.261806196678922,4058.15326737652
-0.26887783849006,4058.16326737652
-0.276326549525239,4058.17326737652
-0.283279024498011,4058.18326737652
-0.289735739221486,4058.19326737652
-0.295832252298613,4058.20326737652
-0.301388622539456,4058.21326737652
-0.306771964691124,4058.22326737652
-0.311732897498054,4058.23326737652
-0.317152440707543,4058.24326737652
-0.322574552651608,4058.25326737652
-0.327848792457366,4058.26326737652
-0.332932105255258,4058.27326737652
-0.338091199113314,4058.28326737652
-0.34278694469429,4058.29326737652
-0.347602921893283,4058.30326737652
-0.352771242788782,4058.31326737652
-0.357752816086229,4058.32326737652
-0.362834351106115,4058.33326737652
-0.36823593962772,4058.34326737652
-0.373778174035596,4058.35326737652
-0.379170384252353,4058.36326737652
-0.384250370223845,4058.37326737652
-0.389499142084436,4058.38326737652
-0.395054980211354,4058.39326737652
-0.400387614079078,4058.40326737652
-0.405158957957477,4058.41326737652
-0.409882639791774,4058.42326737652
-0.414032352895888,4058.43326737652
-0.418553891246575,4058.44326737652
-0.423181169412716,4058.45326737652
-0.428016920024743,4058.46326737652
-0.432449322982595,4058.47326737652
-0.436725891894184,4058.48326737652
-0.440795883284284,4058.49326737652
-0.445106778524402,4058.50326737652
-0.449174945469392,4058.51326737652
-0.453395002810628,4058.52326737652
-0.457700741818704,4058.53326737652
-0.462542635202021,4058.54326737652
-0.467438623305609,4058.55326737652
-0.471958951154751,4058.56326737652
-0.476250949093162,4058.57326737652
-0.480236528364427,4058.58326737652
-0.483856757240661,4058.59326737652
-0.486947810586277,4058.60326737652
-0.489437324701214,4058.61326737652
-0.489802226383709,4058.62326737652
-0.486996055823273,4058.63326737652
-0.479930665003222,4058.64326737652
-0.467627782865189,4058.65326737652
-0.449844378674535,4058.66326737652
-0.427379718933521,4058.67326737652
-0.401408292457028,4058.68326737652
-0.372899321957024,4058.69326737652
-0.343920954726532,4058.70326737652
-0.315797315931438,4058.71326737652
-0.289204127805597,4058.72326737652
-0.265901968331705,4058.73326737652
-0.245990535952483,4058.74326737652
-0.229850496442818,4058.75326737652
-0.217808168332837,4058.76326737652
-0.208984491047272,4058.77326737652
-0.20318794330402,4058.78326737652
-0.199071193960457,4058.79326737652
-0.195667440679314,4058.80326737652
-0.193250521633853,4058.81326737652
-0.191049961075398,4058.82326737652
-0.188861015899671,4058.83326737652
-0.187215914456413,4058.84326737652
-0.185105060979013,4058.85326737652
-0.183231310790525,4058.86326737652
-0.18102231709802,4058.87326737652
-0.179553255768416,4058.88326737652
-0.179395657094586,4058.89326737652
-0.181010647687504,4058.90326737652
-0.184397078724177,4058.91326737652
-0.189294161257275,4058.92326737652
-0.195236205885096,4058.93326737652
-0.200646976721044,4058.94326737652
-0.205915898012957,4058.95326737652
-0.210467238248453,4058.96326737652
-0.21382936959227,4058.97326737652
-0.216364659728167,4058.98326737652
-0.217784231841209,4058.99326737652
-0.218140695822606,4059.00326737652
-0.217627289687481,4059.01326737652
-0.216502119434143,4059.02326737652
-0.214964485257904,4059.03326737652
-0.213188322277005,4059.04326737652
-0.21129421289559,4059.05326737652
-0.209422023108947,4059.06326737652
-0.207521625746053,4059.07326737652
-0.206234335861341,4059.08326737652
-0.205593524495959,4059.09326737652
-0.205999131786479,4059.10326737652
-0.207163188457302,4059.11326737652
-0.2088695950206,4059.12326737652
-0.211386495531121,4059.13326737652
-0.21341798134583,4059.14326737652
-0.215871499473508,4059.15326737652
-0.219156096823046,4059.16326737652
-0.222324131902031,4059.17326737652
-0.226592425301925,4059.18326737652
-0.23091106035815,4059.19326737652
-0.235520120846941,4059.20326737652
-0.23975561267493,4059.21326737652
-0.2435595473451,4059.22326737652
-0.247333045402951,4059.23326737652
-0.251586108352669,4059.24326737652
-0.256121674345969,4059.25326737652
-0.2606666659193,4059.26326737652
-0.265775090488633,4059.27326737652
-0.270746791391036,4059.28326737652
-0.275730364282794,4059.29326737652
-0.280538712433222,4059.30326737652
-0.284812742599482,4059.31326737652
-0.288763681732296,4059.32326737652
-0.292290006633053,4059.33326737652
-0.295895718557319,4059.34326737652
-0.299237319465847,4059.35326737652
-0.302234459192936,4059.36326737652
-0.305541036866497,4059.37326737652
-0.308737273658051,4059.38326737652
-0.312183862795224,4059.39326737652
-0.316116392037567,4059.40326737652
-0.320231138628992,4059.41326737652
-0.324253463791438,4059.42326737652
-0.328362615034765,4059.43326737652
-0.332419482951475,4059.44326737652
-0.336390882059567,4059.45326737652
-0.340617388989008,4059.46326737652
-0.344593709193236,4059.47326737652
-0.348716756909671,4059.48326737652
-0.352540445227771,4059.49326737652
-0.356566625850596,4059.50326737652
-0.360641301901919,4059.51326737652
-0.364662609828892,4059.52326737652
-0.368264000536401,4059.53326737652
-0.371920380618228,4059.54326737652
-0.375027004345546,4059.55326737652
-0.377977627500213,4059.56326737652
-0.380985061659927,4059.57326737652
-0.384025360586825,4059.58326737652
-0.387081788013815,4059.59326737652
-0.389995171228201,4059.60326737652
-0.392651462351387,4059.61326737652
-0.393638673982306,4059.62326737652
-0.392758892885438,4059.63326737652
-0.388427329425945,4059.64326737652
-0.379782566760104,4059.65326737652
-0.366410194977319,4059.66326737652
-0.348077148740473,4059.67326737652
-0.325005346974403,4059.68326737652
-0.29818117038539,4059.69326737652
-0.268482746936187,4059.70326737652
-0.236906741761756,4059.71326737652
-0.20610162864291,4059.72326737652
-0.177010632513496,4059.73326737652
-0.151045201681867,4059.74326737652
-0.128650294507674,4059.75326737652
-0.109363814806236,4059.76326737652
-0.0937950027723971,4059.77326737652
-0.0816969654861667,4059.78326737652
-0.0726977301375206,4059.79326737652
-0.0660297802899918,4059.80326737652
-0.0614007970196138,4059.81326737652
-0.0578130434858325,4059.82326737652
-0.0547753447788244,4059.83326737652
-0.0519426219182989,4059.84326737652
-0.0498102512935212,4059.85326737652
-0.0471965042122776,4059.86326737652
-0.0443433109186343,4059.87326737652
-0.0418632198724568,4059.88326737652
-0.0393675995239996,4059.89326737652
-0.0379241549628772,4059.90326737652
-0.0380350127811405,4059.91326737652
-0.038902731313755,4059.92326737652
-0.0408860134346374,4059.93326737652
-0.0431125307424071,4059.94326737652
-0.0449436723050726,4059.95326737652
-0.0459921950848929,4059.96326737652
-0.0461411846685666,4059.97326737652
-0.0447702361107378,4059.98326737652
-0.0419832897667738,4059.99326737652
-0.0376184006324642,4060.00326737652
-0.0315970465374174,4060.01326737652
-0.0248384104513266,4060.02326737652
-0.0181351485243477,4060.03326737652
-0.0119621758981832,4060.04326737652
-0.00605802224042628,4060.05326737652
-0.000727758034620273,4060.06326737652
0.00352097817348779,4060.07326737652
0.00648395245414749,4060.08326737652
0.00832492910836877,4060.09326737652
0.00891241770578993,4060.10326737652
0.00839861476193858,4060.11326737652
0.0070509042619183,4060.12326737652
0.00452573543180633,4060.13326737652
0.00152236449135574,4060.14326737652
-0.00190591549850705,4060.15326737652
-0.00534929620244578,4060.16326737652
-0.00890501287256455,4060.17326737652
-0.0130943703293627,4060.18326737652
-0.0175965879934676,4060.19326737652
-0.0227726149865417,4060.20326737652
-0.0287941037156136,4060.21326737652
-0.0346234797684459,4060.22326737652
-0.0400239043926994,4060.23326737652
-0.0453688689143375,4060.24326737652
-0.0495325881182868,4060.25326737652
-0.0534171950450898,4060.26326737652
-0.0573298871362016,4060.27326737652
-0.0608879083554397,4060.28326737652
-0.0648348092477649,4060.29326737652
-0.0686422331923915,4060.30326737652
-0.072540446484171,4060.31326737652
-0.0765875996307409,4060.32326737652
-0.0801383604992151,4060.33326737652
-0.0838097592207613,4060.34326737652
-0.0877535808293029,4060.35326737652
-0.0913590082975021,4060.36326737652
-0.0956961386850636,4060.37326737652
-0.100445145065112,4060.38326737652
-0.105207808920653,4060.39326737652
-0.110532333013227,4060.40326737652
-0.115885748461991,4060.41326737652
-0.121292126136951,4060.42326737652
-0.12633327878053,4060.43326737652
-0.131195989506856,4060.44326737652
-0.134700108961418,4060.45326737652
-0.138200814878297,4060.46326737652
-0.141434347629777,4060.47326737652
-0.14507869280415,4060.48326737652
-0.148838875117591,4060.49326737652
-0.152759086544381,4060.50326737652
-0.156415887346928,4060.51326737652
-0.16032517107992,4060.52326737652
-0.164554409084508,4060.53326737652
-0.168962236931996,4060.54326737652
-0.173924264044524,4060.55326737652
-0.178509535302667,4060.56326737652
-0.182043248155769,4060.57326737652
-0.184399794218203,4060.58326737652
-0.185197216184077,4060.59326737652
-0.183649541342452,4060.60326737652
-0.178988571327827,4060.61326737652
-0.169745609145573,4060.62326737652
-0.155339860725377,4060.63326737652
-0.134761970176878,4060.64326737652
-0.1093400733896,4060.65326737652
-0.079559690172371,4060.66326737652
-0.0476528692063007,4060.67326737652
-0.0150322213241555,4060.68326737652
0.0165862048521728,4060.69326737652
0.0457228465642509,4060.70326737652
0.0713650321202812,4060.71326737652
0.0929655204962139,4060.72326737652
0.109481615322089,4060.73326737652
0.122260728742498,4060.74326737652
0.131566112354467,4060.75326737652
0.137427306202106,4060.76326737652
0.1406783296921,4060.77326737652
0.142986458025031,4060.78326737652
0.144596706387541,4060.79326737652
0.146687451221084,4060.80326737652
0.149155024294037,4060.81326737652
0.152161827414568,4060.82326737652
0.155684586300589,4060.83326737652
0.159249016441052,4060.84326737652
0.162095432568442,4060.85326737652
0.164020399740225,4060.86326737652
0.164488123680131,4060.87326737652
0.163104591381354,4060.88326737652
0.159684251405232,4060.89326737652
0.154737310167808,4060.90326737652
0.148141113484882,4060.91326737652
0.141254296379405,4060.92326737652
0.134195176510364,4060.93326737652
0.127908270172595,4060.94326737652
0.1224897539534,4060.95326737652
0.11853554443637,4060.96326737652
0.115353865364075,4060.97326737652
0.112596196374157,4060.98326737652
0.110920441445919,4060.99326737652
0.109893579481652,4061.00326737652
0.109706918615551,4061.01326737652
0.110397427247819,4061.02326737652
0.111917191661028,4061.03326737652
0.113160328547057,4061.04326737652
0.11481241134038,4061.05326737652
0.115457844917775,4061.06326737652
0.115148208431058,4061.07326737652
0.11366476426554,4061.08326737652
0.110834221777268,4061.09326737652
0.107496451685911,4061.10326737652
0.103527413631406,4061.11326737652
0.098971554747504,4061.12326737652
0.0936131958754267,4061.13326737652
0.0872932515824211,4061.14326737652
0.0802977610864996,4061.15326737652
0.07244149866546,4061.16326737652
0.0640666862440675,4061.17326737652
0.0554398763878909,4061.18326737652
0.0467392897725164,4061.19326737652
0.0379870025855608,4061.20326737652
0.0299702776561261,4061.21326737652
0.0215237450681609,4061.22326737652
0.0139895794646975,4061.23326737652
0.00651391859645828,4061.24326737652
-0.000711556072299393,4061.25326737652
-0.00784336984241097,4061.26326737652
-0.0151328718980378,4061.27326737652
-0.0218779472614789,4061.28326737652
-0.02919245853839,4061.29326737652
-0.0362447601543136,4061.30326737652
-0.0438228299991548,4061.31326737652
-0.0513650996050666,4061.32326737652
-0.0593644369967059,4061.33326737652
-0.0673416592852416,4061.34326737652
-0.0749821736986678,4061.35326737652
-0.0822802463020575,4061.36326737652
-0.0890348947955537,4061.37326737652
-0.096003254671063,4061.38326737652
-0.103196400501874,4061.39326737652
-0.110731222824977,4061.40326737652
-0.118507456532523,4061.41326737652
-0.126050458868246,4061.42326737652
-0.133609250182826,4061.43326737652
-0.140730072151403,4061.44326737652
-0.147959661450149,4061.45326737652
-0.155509605835651,4061.46326737652
-0.162772061305085,4061.47326737652
-0.169939881131188,4061.48326737652
-0.176378716618977,4061.49326737652
-0.182839919416281,4061.50326737652
-0.188706475504837,4061.51326737652
-0.194529899152311,4061.52326737652
-0.199974425923589,4061.53326737652
-0.205005580779889,4061.54326737652
-0.21038657028697,4061.55326737652
-0.21479458927046,4061.56326737652
-0.21873493020902,4061.57326737652
-0.221608108781744,4061.58326737652
-0.221545345176424,4061.59326737652
-0.217663582517343,4061.60326737652
-0.209216648666426,4061.61326737652
-0.195938042687572,4061.62326737652
-0.178391697959424,4061.63326737652
-0.157571149858094,4061.64326737652
-0.134710661985597,4061.65326737652
-0.110215795295937,4061.66326737652
-0.0861991075280697,4061.67326737652
-0.0633554453185332,4061.68326737652
-0.0437085812894008,4061.69326737652
-0.0264824386683151,4061.70326737652
-0.0125176927733726,4061.71326737652
-0.00233536889743776,4061.72326737652
0.00579320787403357,4061.73326737652
0.0116690989715071,4061.74326737652
0.0161871368173879,4061.75326737652
0.0199424762384295,4061.76326737652
0.0231195193339849,4061.77326737652
0.0265303134776771,4061.78326737652
0.029587744066013,4061.79326737652
0.0321866954965242,4061.80326737652
0.0342123083351672,4061.81326737652
0.0357024678247777,4061.82326737652
0.0363816975789689,4061.83326737652
0.0367791140369524,4061.84326737652
0.0360910888299528,4061.85326737652
0.0349871397837891,4061.86326737652
0.0327067484800143,4061.87326737652
0.0286147523767506,4061.88326737652
0.0232780335885687,4061.89326737652
0.0168551111659534,4061.90326737652
0.00914027571887018,4061.91326737652
0.00179522779194428,4061.92326737652
-0.00494172939950349,4061.93326737652
-0.011183940825103,4061.94326737652
-0.0164774937791973,4061.95326737652
-0.0203258682186127,4061.96326737652
-0.0237923992821281,4061.97326737652
-0.0267224226334662,4061.98326737652
-0.0296103044746606,4061.99326737652
-0.0322276225950669,4062.00326737652
-0.0349435628852839,4062.01326737652
-0.0378069926199249,4062.02326737652
-0.0406696334128001,4062.03326737652
-0.0433689211237235,4062.04326737652
-0.0459808015609414,4062.05326737652
-0.0482793254359506,4062.06326737652
-0.0506361541820729,4062.07326737652
-0.052866710052209,4062.08326737652
-0.0551241735755725,4062.09326737652
-0.057076232472464,4062.10326737652
-0.0591868208757398,4062.11326737652
-0.0608045898454697,4062.12326737652
-0.0628950312228286,4062.13326737652
-0.0645750158199545,4062.14326737652
-0.0666961539431115,4062.15326737652
-0.0680874850909645,4062.16326737652
-0.0689539083306274,4062.17326737652
-0.0684538269720872,4062.18326737652
-0.0666852174419134,4062.19326737652
-0.0642242551995787,4062.20326737652
-0.0616635493347277,4062.21326737652
-0.0596381710469709,4062.22326737652
-0.0594728812626411,4062.23326737652
-0.0609552049093524,4062.24326737652
-0.0651997576424726,4062.25326737652
-0.071133825415434,4062.26326737652
-0.0783138280522502,4062.27326737652
-0.0865807384520407,4062.28326737652
-0.0945730890168172,4062.29326737652
-0.102753306695187,4062.30326737652
-0.111028069977101,4062.31326737652
-0.119726340286934,4062.32326737652
-0.128579344068232,4062.33326737652
-0.138145906183512,4062.34326737652
-0.149165160446289,4062.35326737652
-0.160764390141072,4062.36326737652
-0.173409950554766,4062.37326737652
-0.1875111003428,4062.38326737652
-0.201943806304158,4062.39326737652
-0.216232519779592,4062.40326737652
-0.229799584309405,4062.41326737652
-0.241801113299733,4062.42326737652
-0.252485343697574,4062.43326737652
-0.261874950672952,4062.44326737652
-0.269986702064704,4062.45326737652
-0.276774726642027,4062.46326737652
-0.282617366820786,4062.47326737652
-0.28814647477263,4062.48326737652
-0.293975766397006,4062.49326737652
-0.300451592967612,4062.50326737652
-0.308381037621109,4062.51326737652
-0.316563846969316,4062.52326737652
-0.324243446212104,4062.53326737652
-0.330183720378049,4062.54326737652
-0.33374318084845,4062.55326737652
-0.33339333227109,4062.56326737652
-0.328680290968658,4062.57326737652
-0.321038188453283,4062.58326737652
-0.311244764623972,4062.59326737652
-0.30002296634433,4062.60326737652
-0.288443681104346,4062.61326737652
-0.277116205590896,4062.62326737652
-0.266336017628049,4062.63326737652
-0.256490762631003,4062.64326737652
-0.248384491100758,4062.65326737652
-0.242685269061848,4062.66326737652
-0.239546145351897,4062.67326737652
-0.238612788929798,4062.68326737652
-0.239807021056948,4062.69326737652
-0.242351490836399,4062.70326737652
-0.245631236397797,4062.71326737652
-0.249139926607218,4062.72326737652
-0.252815373716944,4062.73326737652
-0.25631795473207,4062.74326737652
-0.259267332330988,4062.75326737652
-0.262342332731712,4062.76326737652
-0.265743517623135,4062.77326737652
-0.27028813016199,4062.78326737652
-0.276299569349507,4062.79326737652
-0.283564954914999,4062.80326737652
-0.29193798137067,4062.81326737652
-0.300958324443465,4062.82326737652
-0.309723705699435,4062.83326737652
-0.318100893490575,4062.84326737652
-0.325253933388807,4062.85326737652
-0.331518859548686,4062.86326737652
-0.337119710640154,4062.87326737652
-0.342618495311699,4062.88326737652
-0.348994716688672,4062.89326737652
-0.35685274314996,4062.90326737652
-0.36598424074681,4062.91326737652
-0.376357364882323,4062.92326737652
-0.386895482878158,4062.93326737652
-0.397336655019091,4062.94326737652
-0.40653351360097,4062.95326737652
-0.413716527358636,4062.96326737652
-0.420246237940852,4062.97326737652
-0.426558631797519,4062.98326737652
-0.433135164607418,4062.99326737652
-0.43936325259791,4063.00326737652
-0.445764587317147,4063.01326737652
-0.451570164072872,4063.02326737652
-0.456365324023312,4063.03326737652
-0.460020299954575,4063.04326737652
-0.463130272356327,4063.05326737652
-0.466180591554991,4063.06326737652
-0.468951406930695,4063.07326737652
-0.472714379347619,4063.08326737652
-0.477459238893219,4063.09326737652
-0.483066343934455,4063.10326737652
-0.489435800532,4063.11326737652
-0.496745043974312,4063.12326737652
-0.504161065005989,4063.13326737652
-0.511861183686073,4063.14326737652
-0.519366101542866,4063.15326737652
-0.527057921293001,4063.16326737652
-0.534866825687236,4063.17326737652
-0.542795847851275,4063.18326737652
-0.551858477777482,4063.19326737652
-0.561796032527532,4063.20326737652
-0.572640550012675,4063.21326737652
-0.583981444298039,4063.22326737652
-0.595376964913695,4063.23326737652
-0.607107128469355,4063.24326737652
-0.618881216892834,4063.25326737652
-0.630595527493549,4063.26326737652
-0.642964829913666,4063.27326737652
-0.654282117144082,4063.28326737652
-0.66527716660907,4063.29326737652
-0.675309920005195,4063.30326737652
-0.684547928986399,4063.31326737652
-0.693272344927772,4063.32326737652
-0.701512508563136,4063.33326737652
-0.70909564113613,4063.34326737652
-0.716185942526458,4063.35326737652
-0.72353391794408,4063.36326737652
-0.731051160881162,4063.37326737652
-0.738027031415263,4063.38326737652
-0.745204799285784,4063.39326737652
-0.752235102889186,4063.40326737652
-0.758627717231674,4063.41326737652
-0.764527873908749,4063.42326737652
-0.770024088529539,4063.43326737652
-0.773320042025748,4063.44326737652
-0.7752387484848,4063.45326737652
-0.7747247177187,4063.46326737652
-0.771989102912579,4063.47326737652
-0.766475763558238,4063.48326737652
-0.758731920667893,4063.49326737652
-0.748237847507206,4063.50326737652
-0.736198368118239,4063.51326737652
-0.72337347061714,4063.52326737652
-0.709857461430009,4063.53326737652
-0.697373817473552,4063.54326737652
-0.686738996200475,4063.55326737652
-0.678829356503647,4063.56326737652
-0.674242366054257,4063.57326737652
-0.671653678314,4063.58326737652
-0.67129896597515,4063.59326737652
-0.67226108052249,4063.60326737652
-0.673939741438666,4063.61326737652
-0.67624831816211,4063.62326737652
-0.678734915961349,4063.63326737652
-0.681531879112188,4063.64326737652
-0.68363505215629,4063.65326737652
-0.686245049886729,4063.66326737652
-0.688943931515879,4063.67326737652
-0.692615380696025,4063.68326737652
-0.696644754964476,4063.69326737652
-0.701379380963759,4063.70326737652
-0.706082919319735,4063.71326737652
-0.710821671969527,4063.72326737652
-0.71633950338461,4063.73326737652
-0.722205846009217,4063.74326737652
-0.729477727480434,4063.75326737652
-0.737328684049931,4063.76326737652
-0.744889171284267,4063.77326737652
-0.751973668849793,4063.78326737652
-0.758019859516099,4063.79326737652
-0.763094543280955,4063.80326737652
-0.767662105592287,4063.81326737652
-0.771473507510716,4063.82326737652
-0.774856948093146,4063.83326737652
-0.777781927056062,4063.84326737652
-0.780269584865079,4063.85326737652
-0.782155548197066,4063.86326737652
-0.783626061227645,4063.87326737652
-0.78589170855695,4063.88326737652
-0.788567196047402,4063.89326737652
-0.792722384269816,4063.90326737652
-0.797191876797293,4063.91326737652
-0.801907035974829,4063.92326737652
-0.805840780036008,4063.93326737652
-0.808698492479226,4063.94326737652
-0.810362960534603,4063.95326737652
-0.810618467035024,4063.96326737652
-0.810104958183912,4063.97326737652
-0.808778088710255,4063.98326737652
-0.807985790810077,4063.99326737652
-0.807441966865897,4064.00326737652
-0.807246896229481,4064.01326737652
-0.80731612406278,4064.02326737652
-0.807170171842511,4064.03326737652
-0.807516083817496,4064.04326737652
-0.807787291852655,4064.05326737652
-0.808264456421665,4064.06326737652
-0.808860278317027,4064.07326737652
-0.809370543111464,4064.08326737652
-0.810177097963185,4064.09326737652
-0.811078888558231,4064.10326737652
-0.812272300598915,4064.11326737652
-0.812925757044923,4064.12326737652
-0.813581530278538,4064.13326737652
-0.813737460781691,4064.14326737652
-0.814105894474117,4064.15326737652
-0.814934337661352,4064.16326737652
-0.81638157893874,4064.17326737652
-0.818041817417046,4064.18326737652
-0.819402281718974,4064.19326737652
-0.820067744443718,4064.20326737652
-0.820860779772781,4064.21326737652
-0.82085143893903,4064.22326737652
-0.821020586240675,4064.23326737652
-0.821779848968738,4064.24326737652
-0.823276557133632,4064.25326737652
-0.825593343796247,4064.26326737652
-0.827745145303981,4064.27326737652
-0.829787168048237,4064.28326737652
-0.830926387361504,4064.29326737652
-0.831728401882128,4064.30326737652
-0.832664573570855,4064.31326737652
-0.833620261499098,4064.32326737652
-0.83423299726124,4064.33326737652
-0.834875736815301,4064.34326737652
-0.834847601836311,4064.35326737652
-0.834149418109706,4064.36326737652
-0.832408230926533,4064.37326737652
-0.828552626487205,4064.38326737652
-0.822160704998524,4064.39326737652
-0.812834196380143,4064.40326737652
-0.80030007303002,4064.41326737652
-0.7855591353401,4064.42326737652
-0.768682135737104,4064.43326737652
-0.750482274817168,4064.44326737652
-0.732561652791749,4064.45326737652
-0.715892265967971,4064.46326737652
-0.70021947164962,4064.47326737652
-0.685714286884583,4064.48326737652
-0.67234823324082,4064.49326737652
-0.659825908951117,4064.50326737652
-0.647929284810947,4064.51326737652
-0.637535632005081,4064.52326737652
-0.628218664324978,4064.53326737652
-0.620425036165158,4064.54326737652
-0.613269241819146,4064.55326737652
-0.607068026703226,4064.56326737652
-0.601952276088928,4064.57326737652
-0.597568875530149,4064.58326737652
-0.593586070569888,4064.59326737652
-0.590614518680106,4064.60326737652
-0.587472291492118,4064.61326737652
-0.584921094122353,4064.62326737652
-0.582753416663275,4064.63326737652
-0.580547902324888,4064.64326737652
-0.579197847298004,4064.65326737652
-0.577691971118743,4064.66326737652
-0.575833922411494,4064.67326737652
-0.57435519477584,4064.68326737652
-0.573375454518751,4064.69326737652
-0.572894030902744,4064.70326737652
-0.573143312200314,4064.71326737652
-0.573985336560842,4064.72326737652
-0.575118994592914,4064.73326737652
-0.575976438170315,4064.74326737652
-0.576674257041952,4064.75326737652
-0.576473096320918,4064.76326737652
-0.575069871224242,4064.77326737652
-0.57331465143696,4064.78326737652
-0.57057011624055,4064.79326737652
-0.568153689005128,4064.80326737652
-0.565518641774821,4064.81326737652
-0.563541800715378,4064.82326737652
-0.562547801831695,4064.83326737652
-0.561788163909822,4064.84326737652
-0.560956425139409,4064.85326737652
-0.560145840202065,4064.86326737652
-0.559029688843461,4064.87326737652
-0.558608416958285,4064.88326737652
-0.558275740628559,4064.89326737652
-0.558509732842927,4064.90326737652
-0.558828117224645,4064.91326737652
-0.559275128888726,4064.92326737652
-0.560074660122681,4064.93326737652
-0.561206498945306,4064.94326737652
-0.562343625163104,4064.95326737652
-0.564675009230852,4064.96326737652
-0.567752853980383,4064.97326737652
-0.57069756709861,4064.98326737652
-0.574195338486622,4064.99326737652
-0.578361074765525,4065.00326737652
-0.583202260421133,4065.01326737652
-0.58862744756611,4065.02326737652
-0.594742310499557,4065.03326737652
-0.600729199639371,4065.04326737652
-0.606368985102053,4065.05326737652
-0.611344215073259,4065.06326737652
-0.615016856923955,4065.07326737652
-0.618384317937173,4065.08326737652
-0.621067590765141,4065.09326737652
-0.623186782280334,4065.10326737652
-0.625203169709834,4065.11326737652
-0.626544557396768,4065.12326737652
-0.627032097619716,4065.13326737652
-0.627546984281488,4065.14326737652
-0.62768518284913,4065.15326737652
-0.627838882512969,4065.16326737652
-0.628026226355932,4065.17326737652
-0.628477125623865,4065.18326737652
-0.629190222058501,4065.19326737652
-0.629203467802033,4065.20326737652
-0.629204916590087,4065.21326737652
-0.629017487471626,4065.22326737652
-0.628701109527734,4065.23326737652
-0.628057710589295,4065.24326737652
-0.627339424155277,4065.25326737652
-0.626643328675144,4065.26326737652
-0.625910283509405,4065.27326737652
-0.62462725080568,4065.28326737652
-0.62384420975974,4065.29326737652
-0.623686889412687,4065.30326737652
-0.624136267473284,4065.31326737652
-0.625212603183833,4065.32326737652
-0.625682230841187,4065.33326737652
-0.625320458787873,4065.34326737652
-0.622943421988744,4065.35326737652
-0.617500069516075,4065.36326737652
-0.609472035292968,4065.37326737652
-0.598532934400127,4065.38326737652
-0.585567584454204,4065.39326737652
-0.571087665063764,4065.40326737652
-0.556354390444465,4065.41326737652
-0.542341339168721,4065.42326737652
-0.530140152201088,4065.43326737652
-0.519840604828568,4065.44326737652
-0.511888362591005,4065.45326737652
-0.506137838170441,4065.46326737652
-0.502168772671601,4065.47326737652
-0.499502878810793,4065.48326737652
-0.497403797946193,4065.49326737652
-0.49597413714718,4065.50326737652
-0.494050300995886,4065.51326737652
-0.49197121042707,4065.52326737652
-0.490002292679718,4065.53326737652
-0.487711266245727,4065.54326737652
-0.484892874824403,4065.55326737652
-0.481581166291719,4065.56326737652
-0.477916882823141,4065.57326737652
-0.474629211838159,4065.58326737652
-0.471922613454322,4065.59326737652
-0.470134349730558,4065.60326737652
-0.468821715305342,4065.61326737652
-0.468673408748208,4065.62326737652
-0.469509169078905,4065.63326737652
-0.471374752131646,4065.64326737652
-0.47393366094136,4065.65326737652
-0.477124144701665,4065.66326737652
-0.47982383737086,4065.67326737652
-0.482524578477512,4065.68326737652
-0.484668043368325,4065.69326737652
-0.486242710745891,4065.70326737652
-0.487331598627551,4065.71326737652
-0.48758762728951,4065.72326737652
-0.487659180666728,4065.73326737652
-0.487675681247778,4065.74326737652
-0.487563634819045,4065.75326737652
-0.487335091118956,4065.76326737652
-0.486745719265893,4065.77326737652
-0.486285588543139,4065.78326737652
-0.486329798549778,4065.79326737652
-0.487449844460859,4065.80326737652
-0.489233976320108,4065.81326737652
-0.492169665052766,4065.82326737652
-0.495967493849408,4065.83326737652
-0.500150132641587,4065.84326737652
-0.505311119698992,4065.85326737652
-0.510590873918571,4065.86326737652
-0.516592512940503,4065.87326737652
-0.52295172116072,4065.88326737652
-0.529526092156331,4065.89326737652
-0.536147035449739,4065.90326737652
-0.542614761959374,4065.91326737652
-0.548951571358959,4065.92326737652
-0.554817123772052,4065.93326737652
-0.560443730738848,4065.94326737652
-0.565845193725216,4065.95326737652
-0.570765695779129,4065.96326737652
-0.575977659866946,4065.97326737652
-0.580873342451826,4065.98326737652
-0.585906851525936,4065.99326737652
-0.590646678038331,4066.00326737652
-0.595275123486197,4066.01326737652
-0.600025435925945,4066.02326737652
-0.604114305039452,4066.03326737652
-0.608509210639285,4066.04326737652
-0.613087068044782,4066.05326737652
-0.617441314091637,4066.06326737652
-0.621563463996056,4066.07326737652
-0.625356361787439,4066.08326737652
-0.628811659508274,4066.09326737652
-0.63139964525976,4066.10326737652
-0.633823652483056,4066.11326737652
-0.636362621154147,4066.12326737652
-0.638980938245948,4066.13326737652
-0.641454081861634,4066.14326737652
-0.644471007306328,4066.15326737652
-0.648080635046916,4066.16326737652
-0.651907530961867,4066.17326737652
-0.656126895687666,4066.18326737652
-0.660180175411951,4066.19326737652
-0.66438848979348,4066.20326737652
-0.66768162167948,4066.21326737652
-0.669525594495756,4066.22326737652
-0.668722194408099,4066.23326737652
-0.665503700810352,4066.24326737652
-0.659790321861936,4066.25326737652
-0.651655784250447,4066.26326737652
-0.64135921061326,4066.27326737652
-0.630358331591189,4066.28326737652
-0.619399453676166,4066.29326737652
-0.608727674367503,4066.30326737652
-0.598856212856715,4066.31326737652
-0.590406709421654,4066.32326737652
-0.583388630515541,4066.33326737652
-0.578125089129571,4066.34326737652
-0.574834804377195,4066.35326737652
-0.573019741245307,4066.36326737652
-0.572533143620074,4066.37326737652
-0.572436845953393,4066.38326737652
-0.571915016709435,4066.39326737652
-0.571162999458625,4066.40326737652
-0.569362148847055,4066.41326737652
-0.567962613190689,4066.42326737652
-0.566671364575466,4066.43326737652
-0.565767580277904,4066.44326737652
-0.564931233306721,4066.45326737652
-0.564061180898148,4066.46326737652
-0.562929395915839,4066.47326737652
-0.561310145359608,4066.48326737652
-0.56065496500822,4066.49326737652
-0.560595621720892,4066.50326737652
-0.561794540048717,4066.51326737652
-0.563488489979197,4066.52326737652
-0.565830764268967,4066.53326737652
-0.567931421425475,4066.54326737652
-0.569128341065428,4066.55326737652
-0.569119955217264,4066.56326737652
-0.568334265632673,4066.57326737652
-0.566517236658032,4066.58326737652
-0.564833832751761,4066.59326737652
-0.563206036998849,4066.60326737652
-0.561293914524725,4066.61326737652
-0.559862429324138,4066.62326737652
-0.558487978409297,4066.63326737652
-0.557419626247786,4066.64326737652
-0.556257636352925,4066.65326737652
-0.555742007295726,4066.66326737652
-0.555687598630772,4066.67326737652
-0.555451960092799,4066.68326737652
-0.555555753735277,4066.69326737652
-0.555852589526055,4066.70326737652
-0.556536518391487,4066.71326737652
-0.557500340698778,4066.72326737652
-0.557986250202818,4066.73326737652
-0.558250871532982,4066.74326737652
-0.558468711412287,4066.75326737652
-0.558659696855312,4066.76326737652
-0.559316089892402,4066.77326737652
-0.560071871548589,4066.78326737652
-0.561408256407862,4066.79326737652
-0.56324546775685,4066.80326737652
-0.565187371089931,4066.81326737652
-0.567384922351615,4066.82326737652
-0.56985574622998,4066.83326737652
-0.572384420590826,4066.84326737652
-0.573961246845797,4066.85326737652
-0.574781833073602,4066.86326737652
-0.574721612091285,4066.87326737652
-0.574655863673858,4066.88326737652
-0.575070240578068,4066.89326737652
-0.575962894978575,4066.90326737652
-0.577668973624865,4066.91326737652
-0.579354870310789,4066.92326737652
-0.581664357282338,4066.93326737652
-0.58431301049783,4066.94326737652
-0.586823782013762,4066.95326737652
-0.588838258916669,4066.96326737652
-0.590232217346985,4066.97326737652
-0.59200858764074,4066.98326737652
-0.593368872477411,4066.99326737652
-0.594440144996136,4067.00326737652
-0.595335882851871,4067.01326737652
-0.596442286312377,4067.02326737652
-0.597699842283931,4067.03326737652
-0.599065007853995,4067.04326737652
-0.599960730743163,4067.05326737652
-0.600777729073945,4067.06326737652
-0.601642206131776,4067.07326737652
-0.601826243078498,4067.08326737652
-0.602457087873178,4067.09326737652
-0.601803872660175,4067.10326737652
-0.599627752120161,4067.11326737652
-0.59606922721239,4067.12326737652
-0.589875118370113,4067.13326737652
-0.581624675183871,4067.14326737652
-0.571312477503494,4067.15326737652
-0.55969598746241,4067.16326737652
-0.547221283651674,4067.17326737652
-0.534678181114474,4067.18326737652
-0.523113097142601,4067.19326737652
-0.512679535766385,4067.20326737652
-0.504048371693668,4067.21326737652
-0.497687295884219,4067.22326737652
-0.493574206169601,4067.23326737652
-0.49064290072536,4067.24326737652
-0.488792453328271,4067.25326737652
-0.486832694432633,4067.26326737652
-0.485625726641843,4067.27326737652
-0.484114161015731,4067.28326737652
-0.483249549359102,4067.29326737652
-0.482281527141861,4067.30326737652
-0.480844914392182,4067.31326737652
-0.478949445902197,4067.32326737652
-0.476685103277876,4067.33326737652
-0.474730365400252,4067.34326737652
-0.472408799060217,4067.35326737652
-0.470344707790679,4067.36326737652
-0.468965678995057,4067.37326737652
-0.468230299957919,4067.38326737652
-0.468286874312206,4067.39326737652
-0.468264433281602,4067.40326737652
-0.469041009437771,4067.41326737652
-0.469524614710747,4067.42326737652
-0.47050617237613,4067.43326737652
-0.4717751521754,4067.44326737652
-0.47253193538011,4067.45326737652
-0.47230392194628,4067.46326737652
-0.470661808512964,4067.47326737652
-0.468324121629846,4067.48326737652
-0.465125710212216,4067.49326737652
-0.462089675852302,4067.50326737652
-0.458647474191281,4067.51326737652
-0.455989767119415,4067.52326737652
-0.453488944459034,4067.53326737652
-0.451350307706065,4067.54326737652
-0.449022130535169,4067.55326737652
-0.447282621385772,4067.56326737652
-0.446063228676119,4067.57326737652
-0.445342149614404,4067.58326737652
-0.445210435271728,4067.59326737652
-0.445536328980444,4067.60326737652
-0.446367336200487,4067.61326737652
-0.447768510707066,4067.62326737652
-0.449175862659993,4067.63326737652
-0.451363472520775,4067.64326737652
-0.453555125040238,4067.65326737652
-0.45538811856836,4067.66326737652
-0.456552469143,4067.67326737652
-0.457727078324792,4067.68326737652
-0.45848279343177,4067.69326737652
-0.459401649828353,4067.70326737652
-0.460939274977877,4067.71326737652
-0.462482694492822,4067.72326737652
-0.464719434432773,4067.73326737652
-0.466936781220413,4067.74326737652
-0.469347259295581,4067.75326737652
-0.471062026300671,4067.76326737652
-0.471947219335163,4067.77326737652
-0.472675956602583,4067.78326737652
-0.473654118015059,4067.79326737652
-0.47447248275908,4067.80326737652
-0.475666078090842,4067.81326737652
-0.47719124819886,4067.82326737652
-0.478218930594312,4067.83326737652
-0.479881476239602,4067.84326737652
-0.481685998753731,4067.85326737652
-0.483977850998464,4067.86326737652
-0.487125228729665,4067.87326737652
-0.490713367571206,4067.88326737652
-0.494749811236412,4067.89326737652
-0.498246400236896,4067.90326737652
-0.501650196859298,4067.91326737652
-0.504783805556933,4067.92326737652
-0.507443032054427,4067.93326737652
-0.509796157689512,4067.94326737652
-0.51143810914324,4067.95326737652
-0.512127104296807,4067.96326737652
-0.512767927525677,4067.97326737652
-0.513506170504505,4067.98326737652
-0.514167545380032,4067.99326737652
-0.515034266348556,4068.00326737652
-0.515212371909644,4068.01326737652
-0.514084558741844,4068.02326737652
-0.511359134076375,4068.03326737652
-0.506175980344873,4068.04326737652
-0.498416156220898,4068.05326737652
-0.488184936373366,4068.06326737652
-0.476267469619969,4068.07326737652
-0.463694168593499,4068.08326737652
-0.450555835201354,4068.09326737652
-0.438202018184854,4068.10326737652
-0.426491727107897,4068.11326737652
-0.416455317436081,4068.12326737652
-0.40802249363549,4068.13326737652
-0.400968151777016,4068.14326737652
-0.39558222680653,4068.15326737652
-0.390487947977396,4068.16326737652
-0.386400211425631,4068.17326737652
-0.383334861468162,4068.18326737652
-0.379852018021188,4068.19326737652
-0.376350571680396,4068.20326737652
-0.372756010051322,4068.21326737652
-0.368448780307921,4068.22326737652
-0.364283467873446,4068.23326737652
-0.359854262373129,4068.24326737652
-0.356393592738108,4068.25326737652
-0.353655552513543,4068.26326737652
-0.351516743055763,4068.27326737652
-0.350506558993344,4068.28326737652
-0.350043408809663,4068.29326737652
-0.350109109658771,4068.30326737652
-0.350486834789698,4068.31326737652
-0.351189808879626,4068.32326737652
-0.351218274487527,4068.33326737652
-0.350964770657029,4068.34326737652
-0.350382012193058,4068.35326737652
-0.348964005788129,4068.36326737652
-0.347661110393253,4068.37326737652
-0.346045592430202,4068.38326737652
-0.344364518227537,4068.39326737652
-0.341889266101573,4068.40326737652
-0.339542060882707,4068.41326737652
-0.33687514367711,4068.42326737652
-0.334214115750552,4068.43326737652
-0.33063462098899,4068.44326737652
-0.327438275073151,4068.45326737652
-0.323824160413053,4068.46326737652
-0.320656297175303,4068.47326737652
-0.317831033890817,4068.48326737652
-0.315727246791145,4068.49326737652
-0.31356811449373,4068.50326737652
-0.311983707412808,4068.51326737652
-0.310237398508819,4068.52326737652
-0.308687525425829,4068.53326737652
-0.307783094723501,4068.54326737652
-0.307248623102271,4068.55326737652
-0.306888722898262,4068.56326737652
-0.306683153138045,4068.57326737652
-0.306621096788701,4068.58326737652
-0.306949633381654,4068.59326737652
-0.307742683146248,4068.60326737652
-0.308483718754895,4068.61326737652
-0.308686625165624,4068.62326737652
-0.308343329600242,4068.63326737652
-0.307841549346186,4068.64326737652
-0.307338350673159,4068.65326737652
-0.30694320451863,4068.66326737652
-0.306739296051318,4068.67326737652
-0.306681156016672,4068.68326737652
-0.306444222169195,4068.69326737652
-0.306000955219078,4068.70326737652
-0.305508474720076,4068.71326737652
-0.305447752354722,4068.72326737652
-0.305694811262921,4068.73326737652
-0.306673116837529,4068.74326737652
-0.307529131050658,4068.75326737652
-0.308231677022246,4068.76326737652
-0.308372371977106,4068.77326737652
-0.308534884868603,4068.78326737652
-0.308374250146672,4068.79326737652
-0.308779393641229,4068.80326737652
-0.309282317703377,4068.81326737652
-0.31025635176509,4068.82326737652
-0.311356563125222,4068.83326737652
-0.311719683085663,4068.84326737652
-0.311665329029374,4068.85326737652
-0.311121461448673,4068.86326737652
-0.310254922455192,4068.87326737652
-0.309505767120937,4068.88326737652
-0.309229465680774,4068.89326737652
-0.30940164129217,4068.90326737652
-0.309894982124758,4068.91326737652
-0.309488189912457,4068.92326737652
-0.307448386244018,4068.93326737652
-0.303322606588485,4068.94326737652
-0.296119216625721,4068.95326737652
-0.285982553849042,4068.96326737652
-0.273339233557272,4068.97326737652
-0.258478634739244,4068.98326737652
-0.242651579362515,4068.99326737652
-0.226337612032992,4069.00326737652
-0.211030268457773,4069.01326737652
-0.197175006034508,4069.02326737652
-0.18485302418445,4069.03326737652
-0.173814733634198,4069.04326737652
-0.16403104977494,4069.05326737652
-0.155555286541256,4069.06326737652
-0.147748616622615,4069.07326737652
-0.140922713230572,4069.08326737652
-0.13412386223537,4069.09326737652
-0.128088868300321,4069.10326737652
-0.1219277494141,4069.11326737652
-0.115214529711069,4069.12326737652
-0.108612361024295,4069.13326737652
-0.101474319375429,4069.14326737652
-0.0941800813221836,4069.15326737652
-0.086685773902468,4069.16326737652
-0.0795372204627637,4069.17326737652
-0.0729862789917734,4069.18326737652
-0.0668938734470608,4069.19326737652
-0.0616052318128517,4069.20326737652
-0.0573801162569446,4069.21326737652
-0.0545167793356525,4069.22326737652
-0.0522830464583024,4069.23326737652
-0.0506093303066911,4069.24326737652
-0.0499778709195232,4069.25326737652
-0.0492822582961936,4069.26326737652
-0.0482578376184178,4069.27326737652
-0.046439343994809,4069.28326737652
-0.0441789737768776,4069.29326737652
-0.0412651784975986,4069.30326737652
-0.0375528250817038,4069.31326737652
-0.0335304157710463,4069.32326737652
-0.0292876981664961,4069.33326737652
-0.0249702656460839,4069.34326737652
-0.0206319597679822,4069.35326737652
-0.0158358406560606,4069.36326737652
-0.0117530046596828,4069.37326737652
-0.00798133238262467,4069.38326737652
-0.00494711042478938,4069.39326737652
-0.00217838042378762,4069.40326737652
-0.000285990237498751,4069.41326737652
0.00188133738465101,4069.42326737652
0.00394496841621659,4069.43326737652
0.00557435107194133,4069.44326737652
0.00666953755460085,4069.45326737652
0.00661100779514909,4069.46326737652
0.00581154694875679,4069.47326737652
0.00484762092176148,4069.48326737652
0.00372396482552269,4069.49326737652
0.00221785363173944,4069.50326737652
0.000963271961583351,4069.51326737652
0.00030056851040822,4069.52326737652
-0.000482642069721167,4069.53326737652
-0.000775759318891905,4069.54326737652
-0.00158225133313414,4069.55326737652
-0.00280983529285721,4069.56326737652
-0.00428462114646016,4069.57326737652
-0.00651068243863198,4069.58326737652
-0.00814646828372439,4069.59326737652
-0.00931975724201755,4069.60326737652
-0.010673114413253,4069.61326737652
-0.0118102132091362,4069.62326737652
-0.0129009851023507,4069.63326737652
-0.0146276446983313,4069.64326737652
-0.0163754919474308,4069.65326737652
-0.0180646965300324,4069.66326737652
-0.0193907895453102,4069.67326737652
-0.0208594829969658,4069.68326737652
-0.0212798809188661,4069.69326737652
-0.0211278817557962,4069.70326737652
-0.0211915806584627,4069.71326737652
-0.0216140703430974,4069.72326737652
-0.0224409221639961,4069.73326737652
-0.0234248255085184,4069.74326737652
-0.0251583478005334,4069.75326737652
-0.0269279344154237,4069.76326737652
-0.0289517917718587,4069.77326737652
-0.0305156474386744,4069.78326737652
-0.0317692303925974,4069.79326737652
-0.0327677216378484,4069.80326737652
-0.033679688242413,4069.81326737652
-0.0343273188741873,4069.82326737652
-0.0351250125355016,4069.83326737652
-0.0362170562939413,4069.84326737652
-0.0377403358884339,4069.85326737652
-0.039151822830425,4069.86326737652
-0.0407258743639682,4069.87326737652
-0.0411778692164272,4069.88326737652
-0.0409982349763263,4069.89326737652
-0.038937676065842,4069.90326737652
-0.0342161427945994,4069.91326737652
-0.0259748188512362,4069.92326737652
-0.0142148249034243,4069.93326737652
0.00138077597627241,4069.94326737652
0.0201141341388418,4069.95326737652
0.041074111259267,4069.96326737652
0.0629535376792581,4069.97326737652
0.0846806849804899,4069.98326737652
0.106074969575448,4069.99326737652
0.125991484595301,4070.00326737652
0.144745446021307,4070.01326737652
0.161802240839436,4070.02326737652
0.17782253800143,4070.03326737652
0.192461270781653,4070.04326737652
0.205809306637319,4070.05326737652
0.21827558932142,4070.06326737652
0.229943939682667,4070.07326737652
0.241298474291301,4070.08326737652
0.251651377808593,4070.09326737652
0.261223104804185,4070.10326737652
0.27013846321806,4070.11326737652
0.279368512157737,4070.12326737652
0.287931597497252,4070.13326737652
0.296768581652426,4070.14326737652
0.304742942607589,4070.15326737652
0.312152723432642,4070.16326737652
0.319095126325992,4070.17326737652
0.324906178778262,4070.18326737652
0.330107417315164,4070.19326737652
0.334402460537834,4070.20326737652
0.337694510078174,4070.21326737652
0.339578206560232,4070.22326737652
0.341266722386779,4070.23326737652
0.342389638498076,4070.24326737652
0.34317753096091,4070.25326737652
0.343484138837434,4070.26326737652
0.344110162353505,4070.27326737652
0.34519763240413,4070.28326737652
0.346939349534133,4070.29326737652
0.3493550483701,4070.30326737652
0.352622013577712,4070.31326737652
0.35639492239092,4070.32326737652
0.361089529245703,4070.33326737652
0.3658619730166,4070.34326737652
0.370816032683841,4070.35326737652
0.375155583612968,4070.36326737652
0.378910352014209,4070.37326737652
0.382552295454501,4070.38326737652
0.38539857187507,4070.39326737652
0.387934233601986,4070.40326737652
0.389348755771473,4070.41326737652
0.390279613200874,4070.42326737652
0.390099268323538,4070.43326737652
0.388926154538445,4070.44326737652
0.387548380616629,4070.45326737652
0.385883651972131,4070.46326737652
0.384436501317048,4070.47326737652
0.383497238124448,4070.48326737652
0.382875678919372,4070.49326737652
0.382842753517927,4070.50326737652
0.382311843236945,4070.51326737652
0.381260193115868,4070.52326737652
0.379588808964974,4070.53326737652
0.376834638349462,4070.54326737652
0.374044818643733,4070.55326737652
0.371591005471942,4070.56326737652
0.369021822704082,4070.57326737652
0.366746954900971,4070.58326737652
0.364469098019271,4070.59326737652
0.362079867756457,4070.60326737652
0.359752196748167,4070.61326737652
0.357422552703414,4070.62326737652
0.354417713227578,4070.63326737652
0.35133976722526,4070.64326737652
0.348000417651961,4070.65326737652
0.34439260613936,4070.66326737652
0.340884731615295,4070.67326737652
0.337049313410072,4070.68326737652
0.332942548236376,4070.69326737652
0.328844609449072,4070.70326737652
0.32451670052468,4070.71326737652
0.320960560720164,4070.72326737652
0.317563913076709,4070.73326737652
0.314572566380858,4070.74326737652
0.311587518684751,4070.75326737652
0.309058185391298,4070.76326737652
0.306611604865945,4070.77326737652
0.304170275921227,4070.78326737652
0.301279927674395,4070.79326737652
0.298158955088992,4070.80326737652
0.29511992574164,4070.81326737652
0.291589160358401,4070.82326737652
0.287809941517286,4070.83326737652
0.283654263875758,4070.84326737652
0.279618619549463,4070.85326737652
0.275115084039651,4070.86326737652
0.270830621570672,4070.87326737652
0.266991047940497,4070.88326737652
0.26424997220798,4070.89326737652
0.263216039903948,4070.90326737652
0.264963233355339,4070.91326737652
0.270676665505385,4070.92326737652
0.280106568795763,4070.93326737652
0.293376697118462,4070.94326737652
0.309912576503605,4070.95326737652
0.328830979808711,4070.96326737652
0.349469967266603,4070.97326737652
0.371073811439171,4070.98326737652
0.392801054378384,4070.99326737652
0.413812858884455,4071.00326737652
0.434364562931827,4071.01326737652
0.453671142199093,4071.02326737652
0.471480981025714,4071.03326737652
0.486818920120876,4071.04326737652
0.499251912884167,4071.05326737652
0.509663569174702,4071.06326737652
0.518318123647855,4071.07326737652
0.526405679926942,4071.08326737652
0.533571103068504,4071.09326737652
0.539700533408513,4071.10326737652
0.544986655546767,4071.11326737652
0.550082631195526,4071.12326737652
0.5545467309301,4071.13326737652
0.558404882531095,4071.14326737652
0.56178698930782,4071.15326737652
0.564915255168026,4071.16326737652
0.567131435692639,4071.17326737652
0.568245786701892,4071.18326737652
0.568701398781077,4071.19326737652
0.568009454608975,4071.20326737652
0.566654594300018,4071.21326737652
0.564103605855198,4071.22326737652
0.56143369240282,4071.23326737652
0.559176053873253,4071.24326737652
0.557265467939419,4071.25326737652
0.555782249865594,4071.26326737652
0.554824128584535,4071.27326737652
0.554605313655183,4071.28326737652
0.554633868115755,4071.29326737652
0.555684864175203,4071.30326737652
0.557106920872409,4071.31326737652
0.559056500187732,4071.32326737652
0.562198547718622,4071.33326737652
0.565501840278292,4071.34326737652
0.569085839148295,4071.35326737652
0.571910683220391,4071.36326737652
0.573522326706264,4071.37326737652
0.574364439177878,4071.38326737652
0.574083889147017,4071.39326737652
0.573190559056139,4071.40326737652
0.571217140656952,4071.41326737652
0.568843495382772,4071.42326737652
0.565739025606214,4071.43326737652
0.561472119646166,4071.44326737652
0.557363422349441,4071.45326737652
0.553405419371381,4071.46326737652
0.549435995985627,4071.47326737652
0.54488767775919,4071.48326737652
0.539765026177913,4071.49326737652
0.53428365004448,4071.50326737652
0.528485691901341,4071.51326737652
0.521650102992726,4071.52326737652
0.514864482943506,4071.53326737652
0.507865647728396,4071.54326737652
0.501178709003429,4071.55326737652
0.495020237529925,4071.56326737652
0.489225669036976,4071.57326737652
0.483644447644049,4071.58326737652
0.478094792105387,4071.59326737652
0.472592475332882,4071.60326737652
0.467816655108678,4071.61326737652
0.462447619207254,4071.62326737652
0.457461758310267,4071.63326737652
0.452664910191658,4071.64326737652
0.448489882439383,4071.65326737652
0.444335197425571,4071.66326737652
0.440237603431845,4071.67326737652
0.435654746975617,4071.68326737652
0.43106481921499,4071.69326737652
0.426402144733486,4071.70326737652
0.421673260817753,4071.71326737652
0.416836532308651,4071.72326737652
0.41163501454431,4071.73326737652
0.40675266144029,4071.74326737652
0.4020583520129,4071.75326737652
0.397240524356515,4071.76326737652
0.392441676843158,4071.77326737652
0.387270440012412,4071.78326737652
0.38265568938843,4071.79326737652
0.378214724910893,4071.80326737652
0.373783746763832,4071.81326737652
0.369412316732336,4071.82326737652
0.365839122516388,4071.83326737652
0.363608311347003,4071.84326737652
0.363961984586898,4071.85326737652
0.367674696150702,4071.86326737652
0.375242876544715,4071.87326737652
0.387069108842335,4071.88326737652
0.402905194379017,4071.89326737652
0.421940322531085,4071.90326737652
0.444711012119416,4071.91326737652
0.469539287573261,4071.92326737652
0.495424852132728,4071.93326737652
0.521567098984774,4071.94326737652
0.546625931455652,4071.95326737652
0.569515466585275,4071.96326737652
0.589480071052689,4071.97326737652
0.606645597797936,4071.98326737652
0.620987955145228,4071.99326737652
0.632414269611973,4072.00326737652
0.642083187062831,4072.01326737652
0.650442677278229,4072.02326737652
0.657094836535464,4072.03326737652
0.663104922109161,4072.04326737652
0.668530029475649,4072.05326737652
0.67300016084118,4072.06326737652
0.676754463187507,4072.07326737652
0.68019925603178,4072.08326737652
0.683077425624261,4072.09326737652
0.68550709330066,4072.10326737652
0.686131724767784,4072.11326737652
0.684685214576385,4072.12326737652
0.681405045295274,4072.13326737652
0.676759372888835,4072.14326737652
0.671136950491682,4072.15326737652
0.664919687178708,4072.16326737652
0.658626568739183,4072.17326737652
0.653018884905582,4072.18326737652
0.647593179739326,4072.19326737652
0.642623555529476,4072.20326737652
0.638928503771652,4072.21326737652
0.636469874030795,4072.22326737652
0.635617720150146,4072.23326737652
0.636484688656802,4072.24326737652
0.638289237090493,4072.25326737652
0.640564825880329,4072.26326737652
0.643151017911506,4072.27326737652
0.644892711452124,4072.28326737652
0.645583234585083,4072.29326737652
0.645728719046526,4072.30326737652
0.64572992274388,4072.31326737652
0.645392509413644,4072.32326737652
0.64467607092362,4072.33326737652
0.642944463355318,4072.34326737652
0.639989402069525,4072.35326737652
0.636423788429146,4072.36326737652
0.632320467545066,4072.37326737652
0.627859325003705,4072.38326737652
0.623169333096305,4072.39326737652
0.617637686435752,4072.40326737652
0.611443257899027,4072.41326737652
0.604669473386803,4072.42326737652
0.598179875775238,4072.43326737652
0.591361176581628,4072.44326737652
0.584158224043921,4072.45326737652
0.577086455062224,4072.46326737652
0.570365186211924,4072.47326737652
0.563236466118344,4072.48326737652
0.556298100870627,4072.49326737652
0.549171237399073,4072.50326737652
0.541555581689468,4072.51326737652
0.534172942726184,4072.52326737652
0.526661518955175,4072.53326737652
0.519335374130663,4072.54326737652
0.512185297214498,4072.55326737652
0.505467881697593,4072.56326737652
0.498830700779952,4072.57326737652
0.492249408259309,4072.58326737652
0.485389230019476,4072.59326737652
0.478053826935723,4072.60326737652
0.470705881835694,4072.61326737652
0.463260444806163,4072.62326737652
0.456333557500845,4072.63326737652
0.449355387331336,4072.64326737652
0.442810949081143,4072.65326737652
0.43629528253226,4072.66326737652
0.429191646909644,4072.67326737652
0.422312805087433,4072.68326737652
0.415321582271872,4072.69326737652
0.408330351341934,4072.70326737652
0.401947928786065,4072.71326737652
0.395365767468418,4072.72326737652
0.38826655243473,4072.73326737652
0.381772107971678,4072.74326737652
0.37464967142075,4072.75326737652
0.36741171326379,4072.76326737652
0.360431094980412,4072.77326737652
0.353417605021582,4072.78326737652
0.346716774240736,4072.79326737652
0.340569439944983,4072.80326737652
0.334536063054968,4072.81326737652
0.329078617597673,4072.82326737652
0.32463428557622,4072.83326737652
0.321661081219216,4072.84326737652
0.321299966328218,4072.85326737652
0.324593133376682,4072.86326737652
0.332004166789656,4072.87326737652
0.34411569124077,4072.88326737652
0.360447455916444,4072.89326737652
0.381827084030516,4072.90326737652
0.407331656993094,4072.91326737652
0.437046798903577,4072.92326737652
0.469438791436621,4072.93326737652
0.503330597886018,4072.94326737652
0.53696610919524,4072.95326737652
0.56819266671474,4072.96326737652
0.597075768436606,4072.97326737652
0.622403534753344,4072.98326737652
0.643703173998673,4072.99326737652
0.661174840012567,4073.00326737652
0.6752851050857,4073.01326737652
0.686499623786654,4073.02326737652
0.694913676442551,4073.03326737652
0.701244900637608,4073.04326737652
0.706297534875314,4073.05326737652
0.709733026439664,4073.06326737652
0.713294560036222,4073.07326737652
0.71648439651494,4073.08326737652
0.72011567645666,4073.09326737652
0.723148578882907,4073.10326737652
0.724764570632957,4073.11326737652
0.725506203798014,4073.12326737652
0.724617241660389,4073.13326737652
0.722227214220813,4073.14326737652
0.717626212204044,4073.15326737652
0.712400189508705,4073.16326737652
0.705932157188865,4073.17326737652
0.699748613853535,4073.18326737652
0.693463217155592,4073.19326737652
0.687396282182397,4073.20326737652
0.681938646662968,4073.21326737652
0.677497892338143,4073.22326737652
0.674148296516445,4073.23326737652
0.671664458343458,4073.24326737652
0.670275782137004,4073.25326737652
0.669984668085945,4073.26326737652
0.670240111889017,4073.27326737652
0.670695491099208,4073.28326737652
0.671427300624163,4073.29326737652
0.672174934410211,4073.30326737652
0.672299889517532,4073.31326737652
0.672160905906163,4073.32326737652
0.671164377712022,4073.33326737652
0.669344254713186,4073.34326737652
0.666630204078258,4073.35326737652
0.663708533294043,4073.36326737652
0.660014104080408,4073.37326737652
0.655596803366468,4073.38326737652
0.650427372154524,4073.39326737652
0.644353161751624,4073.40326737652
0.637397711301675,4073.41326737652
0.630206137133076,4073.42326737652
0.622522950048299,4073.43326737652
0.614359904582738,4073.44326737652
0.606018742470088,4073.45326737652
0.597669542605503,4073.46326737652
0.589170290291534,4073.47326737652
0.580793651174886,4073.48326737652
0.572775712409339,4073.49326737652
0.56477571097314,4073.50326737652
0.557076384096178,4073.51326737652
0.54961917204767,4073.52326737652
0.541701599045535,4073.53326737652
0.533703686663557,4073.54326737652
0.525565893076701,4073.55326737652
0.517353797011405,4073.56326737652
0.509296881103838,4073.57326737652
0.501485095655079,4073.58326737652
0.493746430837962,4073.59326737652
0.486048636726821,4073.60326737652
0.478422913344494,4073.61326737652
0.471017391912398,4073.62326737652
0.463511534557734,4073.63326737652
0.456167311737463,4073.64326737652
0.448570534873776,4073.65326737652
0.441149684057234,4073.66326737652
0.434106388830837,4073.67326737652
0.427171144408653,4073.68326737652
0.420331327929285,4073.69326737652
0.413700346361096,4073.70326737652
0.407180177030191,4073.71326737652
0.400698922400468,4073.72326737652
0.39429546044112,4073.73326737652
0.38786006634497,4073.74326737652
0.381534094605593,4073.75326737652
0.375335688602976,4073.76326737652
0.368841630288173,4073.77326737652
0.362207806509819,4073.78326737652
0.355106431068906,4073.79326737652
0.348565753129092,4073.80326737652
0.342379520600272,4073.81326737652
0.337537710062294,4073.82326737652
0.335085518675982,4073.83326737652
0.334732388776965,4073.84326737652
0.33902726745921,4073.85326737652
0.347813332702192,4073.86326737652
0.362628465162262,4073.87326737652
0.383143865170911,4073.88326737652
0.409430983347082,4073.89326737652
0.441176458910126,4073.90326737652
0.476612923919495,4073.91326737652
0.514649964501482,4073.92326737652
0.552747537367036,4073.93326737652
0.590046000254875,4073.94326737652
0.624406974982717,4073.95326737652
0.65397743486326,4073.96326737652
0.677938964077486,4073.97326737652
0.697305753502313,4073.98326737652
0.711350549099951,4073.99326737652
0.721793965697403,4074.00326737652
0.729521390030832,4074.01326737652
0.734818920386926,4074.02326737652
0.739291184204819,4074.03326737652
0.742726153031076,4074.04326737652
0.746056864831626,4074.05326737652
0.749549218430641,4074.06326737652
0.752811606296241,4074.07326737652
0.755479531520507,4074.08326737652
0.757007296691032,4074.09326737652
0.757447441648558,4074.10326737652
0.756527827779699,4074.11326737652
0.75425010488401,4074.12326737652
0.750001521743321,4074.13326737652
0.744132463069539,4074.14326737652
0.736279786936293,4074.15326737652
0.727648371623361,4074.16326737652
0.71811931910176,4074.17326737652
0.708770682663882,4074.18326737652
0.700519414552312,4074.19326737652
0.693736994080712,4074.20326737652
0.688248416590128,4074.21326737652
0.684193796592635,4074.22326737652
0.68168189446412,4074.23326737652
0.680333637072898,4074.24326737652
0.679598287389731,4074.25326737652
0.679298353143799,4074.26326737652
0.67979064932216,4074.27326737652
0.680418758103921,4074.28326737652
0.681454968562143,4074.29326737652
0.681741327811097,4074.30326737652
0.68143415432572,4074.31326737652
0.679965893808451,4074.32326737652
0.677413047857445,4074.33326737652
0.674242469241223,4074.34326737652
0.66953734694203,4074.35326737652
0.664441520519493,4074.36326737652
0.658883234365752,4074.37326737652
0.652941543804061,4074.38326737652
0.64688693243469,4074.39326737652
0.639938315625073,4074.40326737652
0.632082413677193,4074.41326737652
0.623819843937264,4074.42326737652
0.615147019092301,4074.43326737652
0.606011559207146,4074.44326737652
0.596427480894486,4074.45326737652
0.586217513197686,4074.46326737652
0.576085118031275,4074.47326737652
0.566775541052998,4074.48326737652
0.557624030172688,4074.49326737652
0.549245090442983,4074.50326737652
0.541384414280613,4074.51326737652
0.5338188259965,4074.52326737652
0.526316230017526,4074.53326737652
0.518449607498878,4074.54326737652
0.510785363543696,4074.55326737652
0.503222309185825,4074.56326737652
0.495966477195172,4074.57326737652
0.488452140594812,4074.58326737652
0.480914779567848,4074.59326737652
0.473150847271361,4074.60326737652
0.464918608057612,4074.61326737652
0.456770759120486,4074.62326737652
0.448837532099011,4074.63326737652
0.441337487682584,4074.64326737652
0.434134426424023,4074.65326737652
0.427032850105872,4074.66326737652
0.420115624599103,4074.67326737652
0.413333381906472,4074.68326737652
0.406089891142924,4074.69326737652
0.398797223426739,4074.70326737652
0.39061941211827,4074.71326737652
0.381897006007839,4074.72326737652
0.373196775453744,4074.73326737652
0.364874440888317,4074.74326737652
0.357108563932106,4074.75326737652
0.350182042514317,4074.76326737652
0.343819303584714,4074.77326737652
0.33878388355814,4074.78326737652
0.336288407544356,4074.79326737652
0.336692800358303,4074.80326737652
0.341194095095729,4074.81326737652
0.350943843400513,4074.82326737652
0.366043840707758,4074.83326737652
0.388511479814792,4074.84326737652
0.416958374606457,4074.85326737652
0.451410896569785,4074.86326737652
0.48998064289463,4074.87326737652
0.530929373239511,4074.88326737652
0.571452953263691,4074.89326737652
0.609369125692906,4074.90326737652
0.642926145267236,4074.91326737652
0.67089976091661,4074.92326737652
0.692991860593931,4074.93326737652
0.709732053402317,4074.94326737652
0.721178967971817,4074.95326737652
0.728916378102462,4074.96326737652
0.733352839961286,4074.97326737652
0.735950054885133,4074.98326737652
0.737307631807975,4074.99326737652
0.737533540447812,4075.00326737652
0.736275757626077,4075.01326737652
0.734339855209828,4075.02326737652
0.731873788546405,4075.03326737652
0.728663933160828,4075.04326737652
0.725240517367316,4075.05326737652
0.720436418368092,4075.06326737652
0.71479372287789,4075.07326737652
0.707621230515954,4075.08326737652
0.698725168551371,4075.09326737652
0.688892224267474,4075.10326737652
0.678600972933066,4075.11326737652
0.668873359110119,4075.12326737652
0.660876950977648,4075.13326737652
0.655217756542846,4075.14326737652
0.650860404719205,4075.15326737652
0.648005943183461,4075.16326737652
0.646653818111143,4075.17326737652
0.64610967316303,4075.18326737652
0.646590488315051,4075.19326737652
0.647735397362158,4075.20326737652
0.649853975842077,4075.21326737652
0.651733092303976,4075.22326737652
0.65346672333529,4075.23326737652
0.65468251829528,4075.24326737652
0.655236437179984,4075.25326737652
0.654684068654886,4075.26326737652
0.652962237611974,4075.27326737652
0.64951027935125,4075.28326737652
0.64482772002511,4075.29326737652
0.639538141268806,4075.30326737652
0.633472854877133,4075.31326737652
0.626690204183042,4075.32326737652
0.619944919554021,4075.33326737652
0.612391144895813,4075.34326737652
0.604377956938392,4075.35326737652
0.595773562070362,4075.36326737652
0.586474497127819,4075.37326737652
0.577475547681987,4075.38326737652
0.568113902477799,4075.39326737652
0.558668541803081,4075.40326737652
0.549081236236536,4075.41326737652
0.539896434535843,4075.42326737652
0.530097439258923,4075.43326737652
0.520330109927502,4075.44326737652
0.510058298062147,4075.45326737652
0.49990803694536,4075.46326737652
0.490144895060838,4075.47326737652
0.480388967174778,4075.48326737652
0.471636750104709,4075.49326737652
0.463190836395709,4075.50326737652
0.454783599634119,4075.51326737652
0.445968948353097,4075.52326737652
0.437025945341487,4075.53326737652
0.427818534192577,4075.54326737652
0.417917089991644,4075.55326737652
0.408212612656855,4075.56326737652
0.398908469254378,4075.57326737652
0.389994432070256,4075.58326737652
0.381368211110659,4075.59326737652
0.373138883159682,4075.60326737652
0.365338985754239,4075.61326737652
0.357738528648484,4075.62326737652
0.349908636395566,4075.63326737652
0.342985041157434,4075.64326737652
0.336640172215301,4075.65326737652
0.331296382686782,4075.66326737652
0.326628971204469,4075.67326737652
0.322692322011181,4075.68326737652
0.319959920385473,4075.69326737652
0.319805231906707,4075.70326737652
0.322411303787555,4075.71326737652
0.329475654253801,4075.72326737652
0.342790339126872,4075.73326737652
0.362737776978784,4075.74326737652
0.389530865246447,4075.75326737652
0.423150776159549,4075.76326737652
0.461821359724979,4075.77326737652
0.504565495095324,4075.78326737652
0.548732063453746,4075.79326737652
0.591599666654303,4075.80326737652
0.630726636692815,4075.81326737652
0.664969756081682,4075.82326737652
0.693279308053846,4075.83326737652
0.715479031595227,4075.84326737652
0.731697793929996,4075.85326737652
0.742146428350625,4075.86326737652
0.748792325709376,4075.87326737652
0.751421043479492,4075.88326737652
0.751795317939191,4075.89326737652
0.750680361546841,4075.90326737652
0.749671312017413,4075.91326737652
0.74873806305029,4075.92326737652
0.748357746076932,4075.93326737652
0.748541215335525,4075.94326737652
0.748680378718356,4075.95326737652
0.747970617167974,4075.96326737652
0.746701403443789,4075.97326737652
0.743435595782188,4075.98326737652
0.737945093193903,4075.99326737652
0.730597555912147,4076.00326737652
0.721624269733439,4076.01326737652
0.711548110224092,4076.02326737652
0.700657355429878,4076.03326737652
0.689796495589894,4076.04326737652
0.679278573161927,4076.05326737652
0.670074765302479,4076.06326737652
0.661779746966753,4076.07326737652
0.654674743211858,4076.08326737652
0.64850032785243,4076.09326737652
0.643824395170661,4076.10326737652
0.63990935347071,4076.11326737652
0.637577124809343,4076.12326737652
0.636003594850603,4076.13326737652
0.634442500314184,4076.14326737652
0.633036119986854,4076.15326737652
0.631133885301649,4076.16326737652
0.628434577704672,4076.17326737652
0.625174157345488,4076.18326737652
0.621108575643823,4076.19326737652
0.616575236747444,4076.20326737652
0.611433872349158,4076.21326737652
0.605350355457695,4076.22326737652
0.59799622834107,4076.23326737652
0.590284860221069,4076.24326737652
0.581399450414829,4076.25326737652
0.571845188586649,4076.26326737652
0.562205310018129,4076.27326737652
0.552151339644282,4076.28326737652
0.541781608720359,4076.29326737652
0.531553253560807,4076.30326737652
0.520896594007282,4076.31326737652
0.510615826492586,4076.32326737652
0.499841448683669,4076.33326737652
0.48889228342523,4076.34326737652
0.477860420629034,4076.35326737652
0.466798011793509,4076.36326737652
0.456178131166175,4076.37326737652
0.44595653319804,4076.38326737652
0.435414707150358,4076.39326737652
0.425145630751078,4076.40326737652
0.415164614224746,4076.41326737652
0.40598736910625,4076.42326737652
0.396508041187589,4076.43326737652
0.386736918911187,4076.44326737652
0.376414391454579,4076.45326737652
0.366279174205292,4076.46326737652
0.355487693521362,4076.47326737652
0.345062993242274,4076.48326737652
0.334815220489501,4076.49326737652
0.323605262861195,4076.50326737652
0.312466840258948,4076.51326737652
0.301042940117004,4076.52326737652
0.290081116178094,4076.53326737652
0.279564870221205,4076.54326737652
0.269167136341586,4076.55326737652
0.259048571472629,4076.56326737652
0.24883099799529,4076.57326737652
0.238417195255771,4076.58326737652
0.227554466029563,4076.59326737652
0.217441030464447,4076.60326737652
0.207426574961073,4076.61326737652
0.197966414239162,4076.62326737652
0.190096828898496,4076.63326737652
0.183812982669429,4076.64326737652
0.180405346439716,4076.65326737652
0.180805896631524,4076.66326737652
0.186022184342989,4076.67326737652
0.196648993397645,4076.68326737652
0.213742471522808,4076.69326737652
0.237499562048689,4076.70326737652
0.266950247033294,4076.71326737652
0.300806577250651,4076.72326737652
0.337605905521944,4076.73326737652
0.374737163493527,4076.74326737652
0.410965727366443,4076.75326737652
0.444370754527361,4076.76326737652
0.473440653892792,4076.77326737652
0.497597860831001,4076.78326737652
0.515738325647665,4076.79326737652
0.528479506074969,4076.80326737652
0.536145918772052,4076.81326737652
0.540265979483214,4076.82326737652
0.541951475098389,4076.83326737652
0.542264095952342,4076.84326737652
0.541036439762277,4076.85326737652
0.53976568792636,4076.86326737652
0.538347608463486,4076.87326737652
0.536633216234119,4076.88326737652
0.535106599847725,4076.89326737652
0.533583961444147,4076.90326737652
0.531884262670507,4076.91326737652
0.528642855205524,4076.92326737652
0.524379305620149,4076.93326737652
0.51807059622962,4076.94326737652
0.50938270172224,4076.95326737652
0.499017717730563,4076.96326737652
0.487804522541276,4076.97326737652
0.475757588527871,4076.98326737652
0.463700885568818,4076.99326737652
0.452185531599428,4077.00326737652
0.44116976501701,4077.01326737652
0.431160756436361,4077.02326737652
0.422432133671046,4077.03326737652
0.415876436511796,4077.04326737652
0.410722546472545,4077.05326737652
0.406724859538507,4077.06326737652
0.40346737759679,4077.07326737652
0.400723471282031,4077.08326737652
0.398517521517601,4077.09326737652
0.396812396602432,4077.10326737652
0.395162400753971,4077.11326737652
0.391950267504709,4077.12326737652
0.387331894091438,4077.13326737652
0.381765101361865,4077.14326737652
0.375389347942354,4077.15326737652
0.367915153159947,4077.16326737652
0.359150148882399,4077.17326737652
0.349539317111007,4077.18326737652
0.339433140944637,4077.19326737652
0.329030506009462,4077.20326737652
0.318784305948408,4077.21326737652
0.308321873262423,4077.22326737652
0.298035709619383,4077.23326737652
0.287467035148569,4077.24326737652
0.276673763710663,4077.25326737652
0.265636946616378,4077.26326737652
0.253522116686006,4077.27326737652
0.241476157266478,4077.28326737652
0.228855680818783,4077.29326737652
0.217554564305381,4077.30326737652
0.206615747485026,4077.31326737652
0.196308437952422,4077.32326737652
0.186315253980027,4077.33326737652
0.176514015259842,4077.34326737652
0.166059927719668,4077.35326737652
0.155454937558475,4077.36326737652
0.144532984224228,4077.37326737652
0.133922670659746,4077.38326737652
0.123251521718838,4077.39326737652
0.112326510693544,4077.40326737652
0.101357114297858,4077.41326737652
0.0898342106062253,4077.42326737652
0.0793371217223153,4077.43326737652
0.0690657393977742,4077.44326737652
0.0590289687890007,4077.45326737652
0.0489997636337252,4077.46326737652
0.0388817855639493,4077.47326737652
0.0287441287876369,4077.48326737652
0.018974575791941,4077.49326737652
0.00899620826937964,4077.50326737652
-0.000679941418044519,4077.51326737652
-0.0109064982092684,4077.52326737652
-0.0216932400947628,4077.53326737652
-0.0323487370752906,4077.54326737652
-0.0429455811724506,4077.55326737652
-0.053289917303554,4077.56326737652
-0.0630883531280676,4077.57326737652
-0.0716485730183253,4077.58326737652
-0.0790956993470068,4077.59326737652
-0.0845140063039203,4077.60326737652
-0.0874729799099629,4077.61326737652
-0.0864749306061559,4077.62326737652
-0.0816294331782996,4077.63326737652
-0.0717113585650305,4077.64326737652
-0.0578472258174145,4077.65326737652
-0.0397846957675868,4077.66326737652
-0.0181796094363877,4077.67326737652
0.00592943517672343,4077.68326737652
0.0313034107640086,4077.69326737652
0.0564335225737232,4077.70326737652
0.0795324246986053,4077.71326737652
0.0999200016420119,4077.72326737652
0.116725189296128,4077.73326737652
0.129959464756188,4077.74326737652
0.139780143395525,4077.75326737652
0.14600675321196,4077.76326737652
0.149285170797182,4077.77326737652
0.150366323927747,4077.78326737652
0.14908448929325,4077.79326737652
0.146737183179836,4077.80326737652
0.143962801715785,4077.81326737652
0.14080184134872,4077.82326737652
0.137509121016147,4077.83326737652
0.133835631490424,4077.84326737652
0.129646091178221,4077.85326737652
0.125114616637543,4077.86326737652
0.119429684138489,4077.87326737652
0.112977022079339,4077.88326737652
0.104957621308363,4077.89326737652
0.0957901422004297,4077.90326737652
0.0859761432649712,4077.91326737652
0.075684987620191,4077.92326737652
0.0655303534152419,4077.93326737652
0.0556165172473496,4077.94326737652
0.0464191404926842,4077.95326737652
0.0374698722874657,4077.96326737652
0.0291395086436002,4077.97326737652
0.0211724606205075,4077.98326737652
0.0136667792102285,4077.99326737652
0.00710524029854623,4078.00326737652
0.00162423698818519,4078.01326737652
-0.00239292613397671,4078.02326737652
-0.00545092156666157,4078.03326737652
-0.00810441110840327,4078.04326737652
-0.0108330380581729,4078.05326737652
-0.0140065231763488,4078.06326737652
-0.0172682801066255,4078.07326737652
-0.0212591709786461,4078.08326737652
-0.0254156027886543,4078.09326737652
-0.0306249166617487,4078.10326737652
-0.0366182353680349,4078.11326737652
-0.043415126969796,4078.12326737652
-0.0507222979721352,4078.13326737652
-0.058595933775774,4078.14326737652
-0.0659839124800777,4078.15326737652
-0.0737930036265544,4078.16326737652
-0.0822952092738408,4078.17326737652
-0.0908664226136067,4078.18326737652
-0.0999557851514024,4078.19326737652
-0.109387254962078,4078.20326737652
-0.118676533775421,4078.21326737652
-0.128237721006281,4078.22326737652
-0.137586804615751,4078.23326737652
-0.146081857950849,4078.24326737652
-0.153864852557783,4078.25326737652
-0.161585705542185,4078.26326737652
-0.169002273301846,4078.27326737652
-0.17670290253517,4078.28326737652
-0.184573331645734,4078.29326737652
-0.192725337376796,4078.30326737652
-0.200812325352592,4078.31326737652
-0.208805514460723,4078.32326737652
-0.216269944058593,4078.33326737652
-0.223024440449293,4078.34326737652
-0.230148495688923,4078.35326737652
-0.237173868305305,4078.36326737652
-0.244543049887489,4078.37326737652
-0.252046545677052,4078.38326737652
-0.2595251316493,4078.39326737652
-0.267347143770904,4078.40326737652
-0.275117073686487,4078.41326737652
-0.283341473706082,4078.42326737652
-0.291523771135149,4078.43326737652
-0.299795047012486,4078.44326737652
-0.306913887708631,4078.45326737652
-0.314471537057837,4078.46326737652
-0.321556535785882,4078.47326737652
-0.328680113489926,4078.48326737652
-0.335827892464502,4078.49326737652
-0.342199601925169,4078.50326737652
-0.348282699264764,4078.51326737652
-0.354054142784536,4078.52326737652
-0.359031612962864,4078.53326737652
-0.36267548727985,4078.54326737652
-0.365324527561538,4078.55326737652
-0.365773534877284,4078.56326737652
-0.363350656709409,4078.57326737652
-0.358026781271961,4078.58326737652
-0.348903450739398,4078.59326737652
-0.336374807122689,4078.60326737652
-0.32073053125213,4078.61326737652
-0.30299165072458,4078.62326737652
-0.283294755669715,4078.63326737652
-0.262741107735009,4078.64326737652
-0.242622811924084,4078.65326737652
-0.22370872269173,4078.66326737652
-0.207064802972208,4078.67326737652
-0.192641770421654,4078.68326737652
-0.181778645377999,4078.69326737652
-0.174613736799183,4078.70326737652
-0.169947127621342,4078.71326737652
-0.167763086490998,4078.72326737652
-0.166926955966949,4078.73326737652
-0.167458323228162,4078.74326737652
-0.168204380311385,4078.75326737652
-0.169588413004091,4078.76326737652
-0.170857358974136,4078.77326737652
-0.172505572692509,4078.78326737652
-0.174457717578323,4078.79326737652
-0.176680972524211,4078.80326737652
-0.179302059777814,4078.81326737652
-0.18262302169253,4078.82326737652
-0.186923421913353,4078.83326737652
-0.191627938735224,4078.84326737652
-0.197046604784764,4078.85326737652
-0.20305322649945,4078.86326737652
-0.209089109359976,4078.87326737652
-0.215518124406952,4078.88326737652
-0.222028213163999,4078.89326737652
-0.227505239073289,4078.90326737652
-0.232173501303062,4078.91326737652
-0.23610910891096,4078.92326737652
-0.238977340449074,4078.93326737652
-0.241272945712273,4078.94326737652
-0.24255144783123,4078.95326737652
-0.243428846202886,4078.96326737652
-0.244227563756108,4078.97326737652
-0.244102975815274,4078.98326737652
-0.244304818226595,4078.99326737652
-0.245000806549023,4079.00326737652
-0.24547828145337,4079.01326737652
-0.246459463294667,4079.02326737652
-0.248754112996173,4079.03326737652
-0.251514875108457,4079.04326737652
-0.254773864046199,4079.05326737652
-0.2592439606835,4079.06326737652
-0.263650307726353,4079.07326737652
-0.268936736087339,4079.08326737652
-0.27347808653172,4079.09326737652
-0.278446076312913,4079.10326737652
-0.283250547608037,4079.11326737652
-0.288812204350827,4079.12326737652
-0.294002978690059,4079.13326737652
-0.299540314810137,4079.14326737652
-0.305162564276518,4079.15326737652
-0.310802778961879,4079.16326737652
-0.316734514878825,4079.17326737652
-0.322664611579001,4079.18326737652
-0.328223304684766,4079.19326737652
-0.333549829827342,4079.20326737652
-0.338756921677907,4079.21326737652
-0.343652746867227,4079.22326737652
-0.348055608470874,4079.23326737652
-0.352647161780653,4079.24326737652
-0.35727554123304,4079.25326737652
-0.362103005957097,4079.26326737652
-0.366907567452995,4079.27326737652
-0.371477271802763,4079.28326737652
-0.376243697770357,4079.29326737652
-0.381301653005013,4079.30326737652
-0.386596633337106,4079.31326737652
-0.392540171425476,4079.32326737652
-0.398754249641987,4079.33326737652
-0.404762392750427,4079.34326737652
-0.411042232294974,4079.35326737652
-0.41699778656822,4079.36326737652
-0.422614016883064,4079.37326737652
-0.427643689319688,4079.38326737652
-0.432290723855281,4079.39326737652
-0.436945857268963,4079.40326737652
-0.441666822242336,4079.41326737652
-0.446390013209477,4079.42326737652
-0.45086073617762,4079.43326737652
-0.455089673363674,4079.44326737652
-0.459254548984651,4079.45326737652
-0.46249176523517,4079.46326737652
-0.465039399928295,4079.47326737652
-0.46667621825334,4079.48326737652
-0.466543308285105,4079.49326737652
-0.46352111379546,4079.50326737652
-0.457461672101376,4079.51326737652
-0.447230158334471,4079.52326737652
-0.433981032524281,4079.53326737652
-0.41760806584663,4079.54326737652
-0.398565752623443,4079.55326737652
-0.377706239167498,4079.56326737652
-0.356232635654969,4079.57326737652
-0.335162138664096,4079.58326737652
-0.316076135928596,4079.59326737652
-0.299392962346276,4079.60326737652
-0.284823930094491,4079.61326737652
-0.272930686092125,4079.62326737652
-0.263855980592229,4079.63326737652
-0.256143207172802,4079.64326737652
-0.251073453108812,4079.65326737652
-0.247087949856116,4079.66326737652
-0.244426274003548,4079.67326737652
-0.243390967861102,4079.68326737652
-0.243691678765824,4079.69326737652
-0.243803011112586,4079.70326737652
-0.244508448176238,4079.71326737652
-0.245556151685819,4079.72326737652
-0.246320477695294,4079.73326737652
-0.247316120223465,4079.74326737652
-0.248999999354068,4079.75326737652
-0.25186265340027,4079.76326737652
-0.256266135521173,4079.77326737652
-0.261212607900732,4079.78326737652
-0.267045184991968,4079.79326737652
-0.272856265237245,4079.80326737652
-0.277464605081453,4079.81326737652
-0.28082757437966,4079.82326737652
-0.28288610452923,4079.83326737652
-0.284021016862072,4079.84326737652
-0.284155975746737,4079.85326737652
-0.283093211749742,4079.86326737652
-0.281964153743775,4079.87326737652
-0.28062537044753,4079.88326737652
-0.279187269952932,4079.89326737652
-0.277492631467845,4079.90326737652
-0.276095102041167,4079.91326737652
-0.275422109268834,4079.92326737652
-0.275012141086902,4079.93326737652
-0.275036014137286,4079.94326737652
-0.27476474622948,4079.95326737652
-0.274761750475865,4079.96326737652
-0.275068768066934,4079.97326737652
-0.276137119778392,4079.98326737652
-0.277734709935815,4079.99326737652
-0.280222171082041,4080.00326737652
-0.282936561081856,4080.01326737652
-0.285935832756552,4080.02326737652
-0.289002978218745,4080.03326737652
-0.292667502564593,4080.04326737652
-0.296322580626014,4080.05326737652
-0.300097238854903,4080.06326737652
-0.304058802724148,4080.07326737652
-0.30841634967359,4080.08326737652
-0.312498737678308,4080.09326737652
-0.316667780016621,4080.10326737652
-0.320362050554745,4080.11326737652
-0.32367396247141,4080.12326737652
-0.327085683113072,4080.13326737652
-0.330112242297013,4080.14326737652
-0.332893479232002,4080.15326737652
-0.335859580084355,4080.16326737652
-0.339527934326363,4080.17326737652
-0.34270800571686,4080.18326737652
-0.346572816171032,4080.19326737652
-0.350574378069949,4080.20326737652
-0.354424352000957,4080.21326737652
-0.358622908068402,4080.22326737652
-0.362961171130384,4080.23326737652
-0.367701929467543,4080.24326737652
-0.372462070261409,4080.25326737652
-0.376827970907702,4080.26326737652
-0.381235722871002,4080.27326737652
-0.385292172458153,4080.28326737652
-0.389171533428402,4080.29326737652
-0.393417299550117,4080.30326737652
-0.397370471956255,4080.31326737652
-0.40097649822812,4080.32326737652
-0.404710914753897,4080.33326737652
-0.408274290424722,4080.34326737652
-0.411793451435866,4080.35326737652
-0.41551514142824,4080.36326737652
-0.418333945602728,4080.37326737652
-0.419454973576338,4080.38326737652
-0.418270041254034,4080.39326737652
-0.414041330683724,4080.40326737652
-0.406111645984747,4080.41326737652
-0.394154836590214,4080.42326737652
-0.378485045789492,4080.43326737652
-0.35979047359144,4080.44326737652
-0.337488727115415,4080.45326737652
-0.313360636676124,4080.46326737652
-0.288044480154883,4080.47326737652
-0.262785990042551,4080.48326737652
-0.237937226059326,4080.49326737652
-0.214539248167139,4080.50326737652
-0.193402685684943,4080.51326737652
-0.174516904996636,4080.52326737652
-0.158532200881077,4080.53326737652
-0.145274159033125,4080.54326737652
-0.134014884736794,4080.55326737652
-0.125253407590724,4080.56326737652
-0.118119101249533,4080.57326737652
-0.11211942059719,4080.58326737652
-0.107233397938411,4080.59326737652
-0.102647831658675,4080.60326737652
-0.0986973674175104,4080.61326737652
-0.0946214379113346,4080.62326737652
-0.090155582115424,4080.63326737652
-0.0856295370034578,4080.64326737652
-0.0810376736932538,4080.65326737652
-0.0765516401505978,4080.66326737652
-0.0732547935540789,4080.67326737652
-0.0708751735958357,4080.68326737652
-0.0699922496794865,4080.69326737652
-0.0703135079706837,4080.70326737652
-0.0709768863461831,4080.71326737652
-0.0720137143474033,4080.72326737652
-0.0731823524987539,4080.73326737652
-0.0742519906080688,4080.74326737652
-0.0748666417073516,4080.75326737652
-0.0749802979685984,4080.76326737652
-0.0744302270082821,4080.77326737652
-0.0734351375933729,4080.78326737652
-0.0718032714553065,4080.79326737652
-0.0706145149675677,4080.80326737652
-0.0688516607214729,4080.81326737652
-0.0671980893044364,4080.82326737652
-0.0648423457457902,4080.83326737652
-0.0628434184650403,4080.84326737652
-0.0610975013658681,4080.85326737652
-0.0593607886922169,4080.86326737652
-0.0575990688064035,4080.87326737652
-0.0562763744316227,4080.88326737652
-0.0549388512238054,4080.89326737652
-0.0547169470857004,4080.90326737652
-0.0545215680278564,4080.91326737652
-0.0551407150604274,4080.92326737652
-0.0565985715293495,4080.93326737652
-0.0585537177856753,4080.94326737652
-0.0608640838960717,4080.95326737652
-0.0641151116561966,4080.96326737652
-0.067499736799038,4080.97326737652
-0.0711118438871176,4080.98326737652
-0.0748468204825051,4080.99326737652
-0.0792415201021331,4081.00326737652
-0.0837410240734809,4081.01326737652
-0.088039314594874,4081.02326737652
-0.0921726762374478,4081.03326737652
-0.0962311247807952,4081.04326737652
-0.0999621773587378,4081.05326737652
-0.103299952378098,4081.06326737652
-0.106225303520539,4081.07326737652
-0.108700687913368,4081.08326737652
-0.111825196596198,4081.09326737652
-0.115057207335108,4081.10326737652
-0.118063047640772,4081.11326737652
-0.121018144528802,4081.12326737652
-0.124438771671462,4081.13326737652
-0.128029159708152,4081.14326737652
-0.13196976135755,4081.15326737652
-0.136643576670083,4081.16326737652
-0.141235308160624,4081.17326737652
-0.146077095262153,4081.18326737652
-0.150791180984223,4081.19326737652
-0.155191455727397,4081.20326737652
-0.159663853131708,4081.21326737652
-0.164213035757584,4081.22326737652
-0.169170914381298,4081.23326737652
-0.17424383431418,4081.24326737652
-0.178621418533788,4081.25326737652
-0.181751298207088,4081.26326737652
-0.183949271873911,4081.27326737652
-0.183808488429829,4081.28326737652
-0.181114555569876,4081.29326737652
-0.174876340158903,4081.30326737652
-0.164239988673342,4081.31326737652
-0.148847516783487,4081.32326737652
-0.128619097735456,4081.33326737652
-0.103377653271044,4081.34326737652
-0.0737537198043727,4081.35326737652
-0.040956631569959,4081.36326737652
-0.00662657214356681,4081.37326737652
0.0276330175866361,4081.38326737652
0.0607934090844614,4081.39326737652
0.090753879136612,4081.40326737652
0.117042083592655,4081.41326737652
0.140505545710384,4081.42326737652
0.160912159287799,4081.43326737652
0.178711109582592,4081.44326737652
0.193917812874674,4081.45326737652
0.206855991229501,4081.46326737652
0.217986147796198,4081.47326737652
0.227371802264493,4081.48326737652
0.235701173790789,4081.49326737652
0.243058642316216,4081.50326737652
0.249405778157802,4081.51326737652
0.25451251681686,4081.52326737652
0.259764954057843,4081.53326737652
0.264225609295497,4081.54326737652
0.268411849135774,4081.55326737652
0.271606375049017,4081.56326737652
0.273111475884916,4081.57326737652
0.273010085824501,4081.58326737652
0.271277490373113,4081.59326737652
0.267754616776703,4081.60326737652
0.263572359874195,4081.61326737652
0.258813683725078,4081.62326737652
0.254604973557203,4081.63326737652
0.250775849959738,4081.64326737652
0.247831382523871,4081.65326737652
0.245633838085136,4081.66326737652
0.244615061596709,4081.67326737652
0.243971192430693,4081.68326737652
0.244558750310284,4081.69326737652
0.245697270019199,4081.70326737652
0.247429681957693,4081.71326737652
0.24876374598935,4081.72326737652
0.250184172895339,4081.73326737652
0.250843868951673,4081.74326737652
0.251212482320985,4081.75326737652
0.250954340966037,4081.76326737652
0.250301832562516,4081.77326737652
0.248205249496758,4081.78326737652
0.245914608656109,4081.79326737652
0.242836069072017,4081.80326737652
0.239225917340543,4081.81326737652
0.235159628684479,4081.82326737652
0.230518980579083,4081.83326737652
0.224936493925842,4081.84326737652
0.219172028800002,4081.85326737652
0.212409695040987,4081.86326737652
0.206009889168846,4081.87326737652
0.199102088081075,4081.88326737652
0.191842996638792,4081.89326737652
0.184790476557557,4081.90326737652
0.1775547165927,4081.91326737652
0.170026312948011,4081.92326737652
0.162675540800366,4081.93326737652
0.155333664756707,4081.94326737652
0.147974342324746,4081.95326737652
0.140650562353216,4081.96326737652
0.133571035185053,4081.97326737652
0.126625300664673,4081.98326737652
0.119809484841626,4081.99326737652
0.112798434763359,4082.00326737652
0.105861463192505,4082.01326737652
0.0983300327479476,4082.02326737652
0.0908893060347419,4082.03326737652
0.0834651751286557,4082.04326737652
0.0761035771398117,4082.05326737652
0.0687315849307043,4082.06326737652
0.0616042029035208,4082.07326737652
0.0545309130774293,4082.08326737652
0.0469864408407432,4082.09326737652
0.0394841302174474,4082.10326737652
0.0322363622276204,4082.11326737652
0.0256613594052079,4082.12326737652
0.0198678180453628,4082.13326737652
0.013978682230854,4082.14326737652
0.00808363711039238,4082.15326737652
0.00213615793381888,4082.16326737652
-0.00366923755875144,4082.17326737652
-0.00694668731559996,4082.18326737652
-0.0074913719616152,4082.19326737652
-0.00450064983233823,4082.20326737652
0.00358616862509685,4082.21326737652
0.0168018782446645,4082.22326737652
0.035842000903803,4082.23326737652
0.0602360016143753,4082.24326737652
0.088359554891482,4082.25326737652
0.118788038930223,4082.26326737652
0.150547173311702,4082.27326737652
0.18129439660746,4082.28326737652
0.209944997868888,4082.29326737652
0.23554587420634,4082.30326737652
0.25717365224712,4082.31326737652
0.274880820544279,4082.32326737652
0.288490974430772,4082.33326737652
0.298291444192242,4082.34326737652
0.304768926627627,4082.35326737652
0.309301810900507,4082.36326737652
0.31237455058226,4082.37326737652
0.313764533820221,4082.38326737652
0.31427959812349,4082.39326737652
0.314457363560103,4082.40326737652
0.314327146016181,4082.41326737652
0.313699401088133,4082.42326737652
0.311957602576362,4082.43326737652
0.309581819361867,4082.44326737652
0.306303339995652,4082.45326737652
0.300961601577391,4082.46326737652
0.294243420218141,4082.47326737652
0.286556564968602,4082.48326737652
0.278027712742829,4082.49326737652
0.269219335823053,4082.50326737652
0.260797187029856,4082.51326737652
0.252755025878202,4082.52326737652
0.245438424597917,4082.53326737652
0.238793656317624,4082.54326737652
0.233496956898006,4082.55326737652
0.228941725698574,4082.56326737652
0.225915762675889,4082.57326737652
0.224060498687833,4082.58326737652
0.222827912002886,4082.59326737652
0.222340980560061,4082.60326737652
0.222168422935077,4082.61326737652
0.222102008788346,4082.62326737652
0.222020027069514,4082.63326737652
0.221636278346884,4082.64326737652
0.220783807848698,4082.65326737652
0.219177101859498,4082.66326737652
0.216599317457539,4082.67326737652
0.213307212374292,4082.68326737652
0.208766579956027,4082.69326737652
0.203780724456524,4082.70326737652
0.197742903576231,4082.71326737652
0.191336898996072,4082.72326737652
0.185116054381717,4082.73326737652
0.178545549097497,4082.74326737652
0.171951086069316,4082.75326737652
0.165162752988431,4082.76326737652
0.158230126486138,4082.77326737652
0.150726643166979,4082.78326737652
0.142738060143838,4082.79326737652
0.134333796519286,4082.80326737652
0.126172592016439,4082.81326737652
0.118719256666008,4082.82326737652
0.111746273068081,4082.83326737652
0.10503681797186,4082.84326737652
0.0977767090644939,4082.85326737652
0.0906564441672743,4082.86326737652
0.0836914425366593,4082.87326737652
0.0765637687867853,4082.88326737652
0.0693498982543848,4082.89326737652
0.0620656257830257,4082.90326737652
0.0551086303295705,4082.91326737652
0.0487658722637463,4082.92326737652
0.0422001778279788,4082.93326737652
0.0357344664429256,4082.94326737652
0.0289418967457002,4082.95326737652
0.0226578461055003,4082.96326737652
0.0160439118349267,4082.97326737652
0.00972244975659378,4082.98326737652
0.00301612548081716,4082.99326737652
-0.00320928386859153,4083.00326737652
-0.010115533109151,4083.01326737652
-0.016967189346715,4083.02326737652
-0.0239751308299718,4083.03326737652
-0.0304493917758345,4083.04326737652
-0.0360341532078006,4083.05326737652
-0.0403459130839825,4083.06326737652
-0.0429683098555569,4083.07326737652
-0.0426386239691254,4083.08326737652
-0.0388207679300841,4083.09326737652
-0.0305137168470724,4083.10326737652
-0.0164582242646776,4083.11326737652
0.00257932283011487,4083.12326737652
0.0265918950024661,4083.13326737652
0.0544363559536092,4083.14326737652
0.0844935975901668,4083.15326737652
0.115460781873732,4083.16326737652
0.145442313502015,4083.17326737652
0.173143198010171,4083.18326737652
0.196761396530635,4083.19326737652
0.215927272052989,4083.20326737652
0.231083913709579,4083.21326737652
0.242121957783063,4083.22326737652
0.249896536659645,4083.23326737652
0.254592890830175,4083.24326737652
0.256641588612394,4083.25326737652
0.257122715144173,4083.26326737652
0.256916050318026,4083.27326737652
0.255885925973824,4083.28326737652
0.254716021369866,4083.29326737652
0.253044833310479,4083.30326737652
0.251394989612563,4083.31326737652
0.248544438888945,4083.32326737652
0.245307345887044,4083.33326737652
0.241193519752308,4083.34326737652
0.235751966303636,4083.35326737652
0.229206201004368,4083.36326737652
0.221532770978125,4083.37326737652
0.213009284582459,4083.38326737652
0.204392401490601,4083.39326737652
0.196233848983777,4083.40326737652
0.188614956898723,4083.41326737652
0.181642794447837,4083.42326737652
0.175571890567464,4083.43326737652
0.170657467712689,4083.44326737652
0.167080029053432,4083.45326737652
0.164268417453716,4083.46326737652
0.161744038736964,4083.47326737652
0.159339102639202,4083.48326737652
0.157716140334167,4083.49326737652
0.155600742896798,4083.50326737652
0.153789159813934,4083.51326737652
0.152188642386094,4083.52326737652
0.149731587999243,4083.53326737652
0.146389661322845,4083.54326737652
0.142584472797261,4083.55326737652
0.138369485696118,4083.56326737652
0.133640481806101,4083.57326737652
0.128346927498682,4083.58326737652
0.122735389468287,4083.59326737652
0.116459526545586,4083.60326737652
0.110352935614573,4083.61326737652
0.104209276112568,4083.62326737652
0.0974564324200518,4083.63326737652
0.0907646436250252,4083.64326737652
0.0839521241352979,4083.65326737652
0.0771593221414766,4083.66326737652
0.070216662013984,4083.67326737652
0.0632074952342343,4083.68326737652
0.0558416174617185,4083.69326737652
0.0480391010768805,4083.70326737652
0.0408040206290312,4083.71326737652
0.033645639973729,4083.72326737652
0.0263439356341765,4083.73326737652
0.0189844311048366,4083.74326737652
0.0118516708952462,4083.75326737652
0.00473018275069069,4083.76326737652
-0.00237072968519354,4083.77326737652
-0.00891749121922029,4083.78326737652
-0.0154945965729784,4083.79326737652
-0.0220424762526848,4083.80326737652
-0.0288041600812258,4083.81326737652
-0.0356723466643199,4083.82326737652
-0.0424750529526874,4083.83326737652
-0.0495698740239812,4083.84326737652
-0.0566773208406088,4083.85326737652
-0.0639575752690972,4083.86326737652
-0.0711064955219606,4083.87326737652
-0.0781038574473272,4083.88326737652
-0.0841590631701839,4083.89326737652
-0.0897355860699658,4083.90326737652
-0.0951351216077668,4083.91326737652
-0.101195063067104,4083.92326737652
-0.10702249770142,4083.93326737652
-0.112496519643324,4083.94326737652
-0.117963907347783,4083.95326737652
-0.123889561383557,4083.96326737652
-0.130559790693413,4083.97326737652
-0.13664704272146,4083.98326737652
-0.142156816095769,4083.99326737652
-0.144812987884751,4084.00326737652
-0.144007751487837,4084.01326737652
-0.138761278357543,4084.02326737652
-0.129476298045742,4084.03326737652
-0.115672998411868,4084.04326737652
-0.0974203470822278,4084.05326737652
-0.0746991950321686,4084.06326737652
-0.0484591038590142,4084.07326737652
-0.0200720092903537,4084.08326737652
0.00855015419056844,4084.09326737652
0.0364976514655248,4084.10326737652
0.0618310260006227,4084.11326737652
0.0842744675081805,4084.12326737652
0.103228154510487,4084.13326737652
0.118429670886143,4084.14326737652
0.13081297775174,4084.15326737652
0.140490855824393,4084.16326737652
0.146999356846649,4084.17326737652
0.151739191843087,4084.18326737652
0.154503083304963,4084.19326737652
0.155912249374255,4084.20326737652
0.156674803501474,4084.21326737652
0.156843059769328,4084.22326737652
0.156762130428406,4084.23326737652
0.155576053298978,4084.24326737652
0.153621816475709,4084.25326737652
0.151066735194917,4084.26326737652
0.14748685257711,4084.27326737652
0.14343140793075,4084.28326737652
0.138763214884081,4084.29326737652
0.133632776488366,4084.30326737652
0.127256582858706,4084.31326737652
0.119718544160694,4084.32326737652
0.111496699778868,4084.33326737652
0.103182635664301,4084.34326737652
0.0961099696355229,4084.35326737652
0.0905424243158978,4084.36326737652
0.0866263375778037,4084.37326737652
0.0834679809086705,4084.38326737652
0.080414234392983,4084.39326737652
0.0773548288594712,4084.40326737652
0.074874770266192,4084.41326737652
0.0733132991927915,4084.42326737652
0.0727185400197598,4084.43326737652
0.073437873995962,4084.44326737652
0.073734274455713,4084.45326737652
0.0737969473969788,4084.46326737652
0.072478452990241,4084.47326737652
0.0701644257725096,4084.48326737652
0.0669891611953481,4084.49326737652
0.0634444554508272,4084.50326737652
0.0601694159152662,4084.51326737652
0.0567976904800272,4084.52326737652
0.0526774867851014,4084.53326737652
0.0476833331664583,4084.54326737652
0.042360625113577,4084.55326737652
0.0364786212776131,4084.56326737652
0.0308891321861043,4084.57326737652
0.0252501264347311,4084.58326737652
0.0192953936717348,4084.59326737652
0.0131555462873066,4084.60326737652
0.00647665571677371,4084.61326737652
-0.000372030162450987,4084.62326737652
-0.00776707805624486,4084.63326737652
-0.0150775930328222,4084.64326737652
-0.0216851633883068,4084.65326737652
-0.0288259881541439,4084.66326737652
-0.0360615057906305,4084.67326737652
-0.0432839617442469,4084.68326737652
-0.0509381853868965,4084.69326737652
-0.0580676182412206,4084.70326737652
-0.064328171880516,4084.71326737652
-0.0703767253659107,4084.72326737652
-0.0761297728801456,4084.73326737652
-0.0822357023251708,4084.74326737652
-0.0879706591924868,4084.75326737652
-0.0943646597006466,4084.76326737652
-0.0999373856196709,4084.77326737652
-0.105601097771367,4084.78326737652
-0.111080205577926,4084.79326737652
-0.116340776366625,4084.80326737652
-0.121833927822606,4084.81326737652
-0.12677229121287,4084.82326737652
-0.131709273808574,4084.83326737652
-0.136654965783899,4084.84326737652
-0.141225954533142,4084.85326737652
-0.145761643560471,4084.86326737652
-0.150606177730919,4084.87326737652
-0.156544508607073,4084.88326737652
-0.163188576876569,4084.89326737652
-0.169464199402953,4084.90326737652
-0.175805856653237,4084.91326737652
-0.181452318604141,4084.92326737652
-0.186059075986542,4084.93326737652
-0.190535404310206,4084.94326737652
-0.195148193948177,4084.95326737652
-0.199978236449791,4084.96326737652
-0.203733908734392,4084.97326737652
-0.205853751776283,4084.98326737652
-0.20611493188323,4084.99326737652
-0.203712863484092,4085.00326737652
-0.198051840515422,4085.01326737652
-0.18879714529694,4085.02326737652
-0.175736933655634,4085.03326737652
-0.158666183164907,4085.04326737652
