PPG,time
0.308647454666613,2691.93065249563
0.603832775088057,2691.94065249563
0.521201375121464,2691.95065249563
0.55039685690841,2691.96065249563
0.514177957568226,2691.97065249563
0.517663028506698,2691.98065249563
0.495176543017937,2691.99065249562
0.488970342454201,2692.00065249563
0.474001881278164,2692.01065249562
0.46438915292997,2692.02065249563
0.451972656271603,2692.03065249562
0.440344335444511,2692.04065249563
0.429571478331273,2692.05065249562
0.419026872334474,2692.06065249563
0.408552785728666,2692.07065249562
0.398218149479174,2692.08065249563
0.387578292837435,2692.09065249562
0.376491965193594,2692.10065249563
0.365179069174451,2692.11065249562
0.353777871064158,2692.12065249563
0.342613409947103,2692.13065249562
0.331245348554758,2692.14065249563
0.319906955386266,2692.15065249562
0.308409214913593,2692.16065249563
0.296534340281422,2692.17065249562
0.28496514750493,2692.18065249563
0.27290353421824,2692.19065249563
0.260581573562243,2692.20065249563
0.248147112534125,2692.21065249563
0.235372338950504,2692.22065249563
0.222475138442638,2692.23065249563
0.210269529084963,2692.24065249562
0.198593198689571,2692.25065249563
0.188168573889658,2692.26065249562
0.177069285307956,2692.27065249563
0.166483619991264,2692.28065249562
0.155527386630302,2692.29065249563
0.144892413000496,2692.30065249562
0.134266036014341,2692.31065249563
0.124467615000531,2692.32065249562
0.115216822430711,2692.33065249563
0.106440488657932,2692.34065249562
0.0979775709947125,2692.35065249563
0.0896359767278097,2692.36065249562
0.0812225669719202,2692.37065249563
0.0727534818940288,2692.38065249562
0.0643144701948584,2692.39065249563
0.055347970482361,2692.40065249562
0.0463064613906094,2692.41065249563
0.0367723026547767,2692.42065249562
0.0275852358191835,2692.43065249563
0.0194695317452375,2692.44065249563
0.0146524047439843,2692.45065249563
0.0151417213738481,2692.46065249563
0.0251307277836064,2692.47065249563
0.0482328635746397,2692.48065249563
0.0867540863584011,2692.49065249562
0.142556790717938,2692.50065249563
0.215612330858641,2692.51065249562
0.30307629176941,2692.52065249563
0.401685178692054,2692.53065249562
0.506855754206214,2692.54065249563
0.613001884599312,2692.55065249562
0.715237299603309,2692.56065249563
0.809388716752162,2692.57065249562
0.891483262130588,2692.58065249563
0.958834414200153,2692.59065249562
1.01029311237248,2692.60065249563
1.04660023605198,2692.61065249562
1.06969367458011,2692.62065249563
1.08224171462917,2692.63065249562
1.08752374197072,2692.64065249563
1.08823030342821,2692.65065249562
1.08596954723196,2692.66065249563
1.08255733748876,2692.67065249562
1.07912135632117,2692.68065249563
1.07630234423669,2692.69065249563
1.07508908871376,2692.70065249563
1.07503370888469,2692.71065249563
1.07564654098698,2692.72065249563
1.07642028188093,2692.73065249563
1.0753616222048,2692.74065249562
1.07109914683134,2692.75065249563
1.06268557098503,2692.76065249562
1.04973822479152,2692.77065249563
1.03249306090509,2692.78065249562
1.0126229623291,2692.79065249563
0.990744898737509,2692.80065249562
0.967117561317822,2692.81065249563
0.942881544955708,2692.82065249562
0.918652437355908,2692.83065249563
0.895652676018732,2692.84065249562
0.875636207669786,2692.85065249563
0.858799973968932,2692.86065249562
0.845241907703551,2692.87065249563
0.835144359236438,2692.88065249562
0.827932988382075,2692.89065249563
0.823139911852586,2692.90065249562
0.820422820933819,2692.91065249563
0.818432521603456,2692.92065249562
0.816997459423244,2692.93065249563
0.815194318651525,2692.94065249563
0.811883629378231,2692.95065249563
0.806948421473032,2692.96065249563
0.800324929620766,2692.97065249563
0.791614744358922,2692.98065249563
0.781695433579779,2692.99065249562
0.770630185328944,2693.00065249563
0.75871872821234,2693.01065249562
0.746444196019761,2693.02065249563
0.733418477135573,2693.03065249562
0.719879587171861,2693.04065249563
0.706328158064941,2693.05065249562
0.692371883430661,2693.06065249563
0.677860794176892,2693.07065249562
0.663260899324859,2693.08065249563
0.648607463234074,2693.09065249562
0.633569977449174,2693.10065249563
0.61839514660991,2693.11065249562
0.602865875777096,2693.12065249563
0.587138914945453,2693.13065249562
0.571183606834471,2693.14065249563
0.55490019861452,2693.15065249562
0.53900092383823,2693.16065249563
0.522896429454931,2693.17065249562
0.506863515121566,2693.18065249563
0.491035915605657,2693.19065249563
0.475422288958906,2693.20065249563
0.459774461204086,2693.21065249563
0.444214414315053,2693.22065249563
0.428157748934587,2693.23065249563
0.411825297319693,2693.24065249562
0.395434196725785,2693.25065249563
0.378881748898265,2693.26065249562
0.363079326074352,2693.27065249563
0.347360004003429,2693.28065249562
0.332359175260207,2693.29065249563
0.317700608689052,2693.30065249562
0.303294831829704,2693.31065249563
0.289100520617191,2693.32065249562
0.275629294335328,2693.33065249563
0.261833256025693,2693.34065249562
0.247541012751531,2693.35065249563
0.233215428635016,2693.36065249562
0.219188199271746,2693.37065249563
0.205521889612148,2693.38065249562
0.192274824838553,2693.39065249563
0.179681391058167,2693.40065249562
0.167946520487331,2693.41065249563
0.156462619422564,2693.42065249562
0.145289672688763,2693.43065249563
0.133772274109746,2693.44065249563
0.121180345701209,2693.45065249563
0.108445160551818,2693.46065249563
0.0957770595854717,2693.47065249563
0.0845452507812909,2693.48065249563
0.0757597507677926,2693.49065249562
0.0721322218994569,2693.50065249563
0.0765756757081078,2693.51065249562
0.0916079785415194,2693.52065249563
0.121213517900542,2693.53065249562
0.167113686323064,2693.54065249563
0.230414942570206,2693.55065249562
0.309096969752106,2693.56065249563
0.400455383100142,2693.57065249562
0.499197172609012,2693.58065249563
0.60087147062337,2693.59065249562
0.69967301381385,2693.60065249563
0.790679901136715,2693.61065249562
0.869966122996307,2693.62065249563
0.934408198062053,2693.63065249562
0.983435418898895,2693.64065249563
1.01708773439375,2693.65065249562
1.03798172327732,2693.66065249563
1.0484979513979,2693.67065249562
1.05116413154477,2693.68065249563
1.04845444582272,2693.69065249563
1.04317985635953,2693.70065249563
1.03642350643865,2693.71065249563
1.02927082415567,2693.72065249563
1.02285212495421,2693.73065249563
1.01793100974704,2693.74065249562
1.01382245353,2693.75065249563
1.01104751995053,2693.76065249562
1.00748653436971,2693.77065249563
1.00265365741217,2693.78065249562
0.994509437859412,2693.79065249563
0.982005546843194,2693.80065249562
0.965440287556458,2693.81065249563
0.945176017285104,2693.82065249562
0.921987972662596,2693.83065249563
0.896622448237152,2693.84065249562
0.869957600737368,2693.85065249563
0.843360260109044,2693.86065249562
0.818077865373839,2693.87065249563
0.794907680036682,2693.88065249562
0.775227781360227,2693.89065249563
0.759264040803282,2693.90065249562
0.746458736831658,2693.91065249563
0.736734132322157,2693.92065249562
0.729192668650228,2693.93065249563
0.723639678714997,2693.94065249563
0.719226625634652,2693.95065249563
0.715618047182453,2693.96065249563
0.711896005838947,2693.97065249563
0.707601322178332,2693.98065249563
0.702540418668203,2693.99065249562
0.695547662882876,2694.00065249563
0.687049208875339,2694.01065249562
0.67665926517135,2694.02065249563
0.664811208448429,2694.03065249562
0.651583009802228,2694.04065249563
0.637757812364104,2694.05065249562
0.623972373699616,2694.06065249563
0.610080302184002,2694.07065249562
0.595831595797903,2694.08065249563
0.580968886825208,2694.09065249562
0.565501299497691,2694.10065249563
0.548716877930827,2694.11065249562
0.531468937813594,2694.12065249563
0.513817094468537,2694.13065249562
0.496448271966266,2694.14065249563
0.479666304026144,2694.15065249562
0.463728290347888,2694.16065249563
0.448100857056965,2694.17065249562
0.432221541150333,2694.18065249563
0.415996702194521,2694.19065249563
0.399115949197947,2694.20065249563
0.381911019582022,2694.21065249563
0.364858295243637,2694.22065249563
0.347960640942581,2694.23065249563
0.331319289149086,2694.24065249562
0.315028592399509,2694.25065249563
0.298548388208615,2694.26065249562
0.281802660169598,2694.27065249563
0.264890464494815,2694.28065249562
0.247941620458727,2694.29065249563
0.231311009523818,2694.30065249562
0.215796801513838,2694.31065249563
0.200542446134877,2694.32065249562
0.186544763874437,2694.33065249563
0.172377000053092,2694.34065249562
0.158663901654697,2694.35065249563
0.14532448074861,2694.36065249562
0.132523101548574,2694.37065249563
0.120005472450195,2694.38065249562
0.107479226440926,2694.39065249563
0.0948583977871614,2694.40065249562
0.0823868282121854,2694.41065249563
0.0703146250387436,2694.42065249562
0.058787318599961,2694.43065249563
0.0479255508987629,2694.44065249563
0.0374244294141561,2694.45065249563
0.0267984856423143,2694.46065249563
0.0162668098677603,2694.47065249563
0.00491924341265444,2694.48065249563
-0.00694253170107106,2694.49065249562
-0.0195058204556186,2694.50065249563
-0.0311650915788273,2694.51065249562
-0.0409224058400792,2694.52065249563
-0.0461909281766106,2694.53065249562
-0.0436759728924594,2694.54065249563
-0.030010373868879,2694.55065249562
-0.00236743792469901,2694.56065249563
0.0410132562478667,2694.57065249562
0.101131016122783,2694.58065249563
0.175658268369969,2694.59065249562
0.262513919660397,2694.60065249563
0.35612014581568,2694.61065249562
0.451031821917103,2694.62065249563
0.541970940354937,2694.63065249562
0.624167529027842,2694.64065249563
0.694426793554392,2694.65065249562
0.750534731556776,2694.66065249563
0.792088709761694,2694.67065249562
0.819339958875259,2694.68065249563
0.834074242403652,2694.69065249563
0.839469114895495,2694.70065249563
0.838329031456046,2694.71065249563
0.833141110085213,2694.72065249563
0.825804785060136,2694.73065249563
0.817708565933823,2694.74065249562
0.809955440392299,2694.75065249563
0.803779989396323,2694.76065249562
0.799546857908074,2694.77065249563
0.796398144237392,2694.78065249562
0.793497309787115,2694.79065249563
0.788876204852648,2694.80065249562
0.781679089636632,2694.81065249563
0.770645336304502,2694.82065249562
0.755743806799198,2694.83065249563
0.736844136491713,2694.84065249562
0.71521040751153,2694.85065249563
0.691479464509959,2694.86065249562
0.666181988759296,2694.87065249563
0.641243079243312,2694.88065249562
0.617700271878702,2694.89065249563
0.596134106341052,2694.90065249562
0.577126073141281,2694.91065249563
0.561162527455827,2694.92065249562
0.548034140475185,2694.93065249563
0.537624726138281,2694.94065249563
0.530493263177492,2694.95065249563
0.52536205584464,2694.96065249563
0.521538355267658,2694.97065249563
0.518680060656911,2694.98065249563
0.515949529318992,2694.99065249562
0.512400585044217,2695.00065249563
0.507102858011502,2695.01065249562
0.499956052754171,2695.02065249563
0.490919343152944,2695.03065249562
0.480393387680917,2695.04065249563
0.468057956047549,2695.05065249562
0.454588811297893,2695.06065249563
0.440618101665502,2695.07065249562
0.425800495446424,2695.08065249563
0.411153757739681,2695.09065249562
0.395971966941987,2695.10065249563
0.380727585947906,2695.11065249562
0.364774307772704,2695.12065249563
0.348924711563354,2695.13065249562
0.333202249550616,2695.14065249563
0.318136321954476,2695.15065249562
0.303178601800209,2695.16065249563
0.287383737404905,2695.17065249562
0.271828626898801,2695.18065249563
0.25636234046913,2695.19065249563
0.240530773713305,2695.20065249563
0.224254057909951,2695.21065249563
0.207721903391439,2695.22065249563
0.19097224760522,2695.23065249563
0.17396012793943,2695.24065249562
0.157529173995593,2695.25065249563
0.14172806624602,2695.26065249562
0.12663983629923,2695.27065249563
0.111615722482033,2695.28065249562
0.0967984873122173,2695.29065249563
0.0821399135283894,2695.30065249562
0.0672764104302449,2695.31065249563
0.0523480169781277,2695.32065249562
0.037112427959204,2695.33065249563
0.0222323259940151,2695.34065249562
0.00710549642865026,2695.35065249563
-0.00735331575824792,2695.36065249562
-0.0210756992636762,2695.37065249563
-0.0347639772958308,2695.38065249562
-0.0477152367751029,2695.39065249563
-0.0611631282870996,2695.40065249562
-0.0738533835079425,2695.41065249563
-0.0873034367967627,2695.42065249562
-0.0996369086096843,2695.43065249563
-0.111719886878563,2695.44065249563
-0.123124457506905,2695.45065249563
-0.134260919533478,2695.46065249563
-0.144790075277026,2695.47065249563
-0.155082949184615,2695.48065249563
-0.165352705942505,2695.49065249562
-0.175265871144284,2695.50065249563
-0.185500620659568,2695.51065249562
-0.195137280545265,2695.52065249563
-0.205263100167748,2695.53065249562
-0.215629597347401,2695.54065249563
-0.225777864893561,2695.55065249562
-0.236390805657678,2695.56065249563
-0.245884593232296,2695.57065249562
-0.252470373942202,2695.58065249563
-0.255226774196872,2695.59065249562
-0.250978934124458,2695.60065249563
-0.236609012420795,2695.61065249562
-0.210164474648945,2695.62065249563
-0.170221864619606,2695.63065249562
-0.11694671616107,2695.64065249563
-0.0514242728712773,2695.65065249562
0.0224285307951058,2695.66065249563
0.10009946030646,2695.67065249562
0.177822577690994,2695.68065249563
0.251232364814262,2695.69065249563
0.31649438295256,2695.70065249563
0.372096382058588,2695.71065249563
0.416118589896413,2695.72065249563
0.448712476148538,2695.73065249563
0.471018632029469,2695.74065249562
0.484446701486368,2695.75065249563
0.490825866204615,2695.76065249562
0.492591787983438,2695.77065249563
0.491953886724523,2695.78065249562
0.490488347813173,2695.79065249563
0.489309591433599,2695.80065249562
0.488493623475684,2695.81065249563
0.489050422850359,2695.82065249562
0.489522821139357,2695.83065249563
0.490548292199716,2695.84065249562
0.49098115579259,2695.85065249563
0.490338501094118,2695.86065249562
0.486700670326584,2695.87065249563
0.479466912363561,2695.88065249562
0.46745734680186,2695.89065249563
0.451616562653189,2695.90065249562
0.431983907171916,2695.91065249563
0.409790939759168,2695.92065249562
0.385674578164685,2695.93065249563
0.360393586669405,2695.94065249563
0.336175134252796,2695.95065249563
0.31349355973536,2695.96065249563
0.293262497632353,2695.97065249563
0.27591334494744,2695.98065249563
0.262041335052523,2695.99065249562
0.250698770466552,2696.00065249563
0.241623325999231,2696.01065249562
0.23464600438049,2696.02065249563
0.228442510886012,2696.03065249562
0.223255741763924,2696.04065249563
0.218327705797686,2696.05065249562
0.213344193143388,2696.06065249563
0.208185256771028,2696.07065249562
0.201558465670585,2696.08065249563
0.19371540812176,2696.09065249562
0.184678672929192,2696.10065249563
0.174547939569168,2696.11065249562
0.163518341571775,2696.12065249563
0.15127086959521,2696.13065249562
0.138918851050395,2696.14065249563
0.126144505269533,2696.15065249562
0.113078172580546,2696.16065249563
0.0993132944569115,2696.17065249562
0.0850189425686866,2696.18065249563
0.0694679459619738,2696.19065249563
0.0534548467593314,2696.20065249563
0.0370299907594294,2696.21065249563
0.0207480823428503,2696.22065249563
0.00574938729130028,2696.23065249563
-0.00913886485063101,2696.24065249562
-0.0240064684417329,2696.25065249563
-0.0397255030179903,2696.26065249562
-0.0551839159763754,2696.27065249563
-0.070918642948677,2696.28065249562
-0.0867200412574839,2696.29065249563
-0.102810963750222,2696.30065249562
-0.118668370012598,2696.31065249563
-0.134241977782083,2696.32065249562
-0.149729626489388,2696.33065249563
-0.164348832467992,2696.34065249562
-0.178745703839682,2696.35065249563
-0.192743104062569,2696.36065249562
-0.206559637308047,2696.37065249563
-0.2204416556075,2696.38065249562
-0.234699586128105,2696.39065249563
-0.249053985225943,2696.40065249562
-0.263667396362425,2696.41065249563
-0.277827905431938,2696.42065249562
-0.2912282357839,2696.43065249563
-0.304056063410338,2696.44065249563
-0.316416621125526,2696.45065249563
-0.328528684328043,2696.46065249563
-0.340635414678627,2696.47065249563
-0.352990708802281,2696.48065249563
-0.365298952459332,2696.49065249562
-0.37806497395828,2696.50065249563
-0.390528994869784,2696.51065249562
-0.402599444528352,2696.52065249563
-0.41393956464555,2696.53065249562
-0.424754498593175,2696.54065249563
-0.435232490980908,2696.55065249562
-0.444598117162112,2696.56065249563
-0.453825925112882,2696.57065249562
-0.462954753894437,2696.58065249563
-0.472218788271213,2696.59065249562
-0.481609344653017,2696.60065249563
-0.491947727720316,2696.61065249562
-0.502020677692485,2696.62065249563
-0.511983062242787,2696.63065249562
-0.522346739477508,2696.64065249563
-0.53126719530497,2696.65065249562
-0.537944584871015,2696.66065249563
-0.541134380697238,2696.67065249562
-0.539008118423027,2696.68065249563
-0.52893689743897,2696.69065249563
-0.509865726850883,2696.70065249563
-0.480624030251552,2696.71065249563
-0.440793256871624,2696.72065249563
-0.391401482048918,2696.73065249563
-0.334319627262011,2696.74065249562
-0.272565418150634,2696.75065249563
-0.209657499835229,2696.76065249562
-0.14889355118779,2696.77065249563
-0.0942654736444808,2696.78065249562
-0.0473026717754259,2696.79065249563
-0.00961747286992204,2696.80065249562
0.0190438322531653,2696.81065249563
0.0396891307006631,2696.82065249562
0.0532631872157352,2696.83065249563
0.061368100471721,2696.84065249562
0.0653676735541481,2696.85065249563
0.0662733124247274,2696.86065249562
0.0647173915380774,2696.87065249563
0.0626274662473006,2696.88065249562
0.0601391563838041,2696.89065249563
0.0584174598392991,2696.90065249562
0.0568227165700591,2696.91065249563
0.0563326785137015,2696.92065249562
0.0563441537037116,2696.93065249563
0.0548640143857628,2696.94065249563
0.0516232046487806,2696.95065249563
0.0451506598939751,2696.96065249563
0.0352467943309553,2696.97065249563
0.0219283577458052,2696.98065249563
0.00640761023657186,2696.99065249562
-0.0109213303927436,2697.00065249563
-0.0291164771592721,2697.01065249562
-0.0465526471238829,2697.02065249563
-0.0627768657759889,2697.03065249562
-0.0775658785689779,2697.04065249563
-0.0904619166025154,2697.05065249562
-0.101333717841403,2697.06065249563
-0.110242218156746,2697.07065249562
-0.1164927761899,2697.08065249563
-0.120830905469627,2697.09065249562
-0.123746616619445,2697.10065249563
-0.124939260351607,2697.11065249562
-0.125569739701736,2697.12065249563
-0.126076194355772,2697.13065249562
-0.127851602228177,2697.14065249563
-0.130363434421537,2697.15065249562
-0.134981756161045,2697.16065249563
-0.140659969670107,2697.17065249562
-0.1465943529791,2697.18065249563
-0.153766586677788,2697.19065249563
-0.161446580059718,2697.20065249563
-0.170512696403495,2697.21065249563
-0.180460543586581,2697.22065249563
-0.191286271344809,2697.23065249563
-0.201731837216964,2697.24065249562
-0.212538394231503,2697.25065249563
-0.222852425967007,2697.26065249562
-0.233920651071811,2697.27065249563
-0.24536385500062,2697.28065249562
-0.256553710860889,2697.29065249563
-0.267938896905556,2697.30065249562
-0.279750309562232,2697.31065249563
-0.292197337569062,2697.32065249562
-0.304790323956204,2697.33065249563
-0.317615107037507,2697.34065249562
-0.330187697001706,2697.35065249563
-0.342228944394346,2697.36065249562
-0.353854588192168,2697.37065249563
-0.364591124528547,2697.38065249562
-0.374222459599419,2697.39065249563
-0.384044452187571,2697.40065249562
-0.39365064433316,2697.41065249563
-0.403375647771336,2697.42065249562
-0.412968208163467,2697.43065249563
-0.422760986678425,2697.44065249563
-0.432003338302912,2697.45065249563
-0.440909551921194,2697.46065249563
-0.450058737918066,2697.47065249563
-0.459120030943817,2697.48065249563
-0.468123161068493,2697.49065249562
-0.477263525531778,2697.50065249563
-0.486440194932162,2697.51065249562
-0.495244567712769,2697.52065249563
-0.503881015548598,2697.53065249562
-0.512727656182311,2697.54065249563
-0.521203139835307,2697.55065249562
-0.530059122901897,2697.56065249563
-0.538863002701188,2697.57065249562
-0.54730417765202,2697.58065249563
-0.555667586217596,2697.59065249562
-0.563152443428212,2697.60065249563
-0.570046778259779,2697.61065249562
-0.576801005115392,2697.62065249563
-0.582788436304039,2697.63065249562
-0.5891646721827,2697.64065249563
-0.595748479761185,2697.65065249562
-0.602645140708671,2697.66065249563
-0.610310943187422,2697.67065249562
-0.617999016907947,2697.68065249563
-0.62673665977173,2697.69065249563
-0.635202682022415,2697.70065249563
-0.642969055669195,2697.71065249563
-0.6501049123492,2697.72065249563
-0.655420225316459,2697.73065249563
-0.65811124209317,2697.74065249562
-0.655989117153996,2697.75065249563
-0.647121065317926,2697.76065249562
-0.630286797250596,2697.77065249563
-0.604171004370919,2697.78065249562
-0.568606501784327,2697.79065249563
-0.524787492498064,2697.80065249562
-0.474073244643947,2697.81065249563
-0.419482798975623,2697.82065249562
-0.363536556422788,2697.83065249563
-0.309900813443883,2697.84065249562
-0.260673098912248,2697.85065249563
-0.217522689744048,2697.86065249562
-0.181713337347353,2697.87065249563
-0.153531424917153,2697.88065249562
-0.132633583515417,2697.89065249563
-0.117913292816679,2697.90065249562
-0.109133225212508,2697.91065249563
-0.104555362562678,2697.92065249562
-0.103269158743577,2697.93065249563
-0.102701865324499,2697.94065249563
-0.102881364648755,2697.95065249563
-0.102685138780592,2697.96065249563
-0.101910186619089,2697.97065249563
-0.100432220395714,2697.98065249563
-0.0984954333287884,2697.99065249562
-0.0970775775515542,2698.00065249563
-0.0969066276601626,2698.01065249562
-0.0986197851382511,2698.02065249563
-0.10353334641118,2698.03065249562
-0.11144184369649,2698.04065249563
-0.122194224775655,2698.05065249562
-0.134906997544877,2698.06065249563
-0.148306493400175,2698.07065249562
-0.161465364606432,2698.08065249563
-0.174150094365097,2698.09065249562
-0.186160920925932,2698.10065249563
-0.197229281025483,2698.11065249562
-0.207056844986259,2698.12065249563
-0.214845127028775,2698.13065249562
-0.220583584898914,2698.14065249563
-0.224182264407768,2698.15065249562
-0.225927336986496,2698.16065249563
-0.226778607321408,2698.17065249562
-0.22713301429934,2698.18065249563
-0.227409089559505,2698.19065249563
-0.228584580966695,2698.20065249563
-0.230787547398824,2698.21065249563
-0.233862164952176,2698.22065249563
-0.237584498489391,2698.23065249563
-0.241982040844131,2698.24065249562
-0.246995315276674,2698.25065249563
-0.253093982344425,2698.26065249562
-0.259974350555118,2698.27065249563
-0.267631566624109,2698.28065249562
-0.275968316171977,2698.29065249563
-0.284438891568756,2698.30065249562
-0.293124728849421,2698.31065249563
-0.30176365105809,2698.32065249562
-0.310654442042301,2698.33065249563
-0.319788976914907,2698.34065249562
-0.329007922972641,2698.35065249563
-0.338211263329247,2698.36065249562
-0.347186377141344,2698.37065249563
-0.355746678404656,2698.38065249562
-0.364280506122056,2698.39065249563
-0.373032029893372,2698.40065249562
-0.381649527592846,2698.41065249563
-0.390557250141248,2698.42065249562
-0.399883871406938,2698.43065249563
-0.409546680019468,2698.44065249563
-0.41980372911511,2698.45065249563
-0.430723791061181,2698.46065249563
-0.441296061707087,2698.47065249563
-0.451126704153094,2698.48065249563
-0.460330215593861,2698.49065249562
-0.469332183664869,2698.50065249563
-0.478009739136017,2698.51065249562
-0.487067338309852,2698.52065249563
-0.496046781625622,2698.53065249562
-0.505272201818895,2698.54065249563
-0.514739580132259,2698.55065249562
-0.523424962521903,2698.56065249563
-0.531857976474569,2698.57065249562
-0.539618202479809,2698.58065249563
-0.547848179401568,2698.59065249562
-0.555958984602771,2698.60065249563
-0.564258542748259,2698.61065249562
-0.573327981609161,2698.62065249563
-0.581720228735995,2698.63065249562
-0.589499883372166,2698.64065249563
-0.597018039477607,2698.65065249562
-0.603955581556968,2698.66065249563
-0.611703149377316,2698.67065249562
-0.619480794145536,2698.68065249563
-0.626969687462527,2698.69065249563
-0.634023543507627,2698.70065249563
-0.640756901415051,2698.71065249563
-0.647271158824138,2698.72065249563
-0.653422940212647,2698.73065249563
-0.659576582301473,2698.74065249562
-0.665111376725529,2698.75065249563
-0.671010359461467,2698.76065249562
-0.676885648534772,2698.77065249563
-0.682581484260221,2698.78065249562
-0.688548746082675,2698.79065249563
-0.694533033771157,2698.80065249562
-0.70072416901103,2698.81065249563
-0.706811434999226,2698.82065249562
-0.712520888882062,2698.83065249563
-0.71860838719019,2698.84065249562
-0.723530909644948,2698.85065249563
-0.72606163378125,2698.86065249562
-0.724717923365056,2698.87065249563
-0.717875913808194,2698.88065249562
-0.703696654848546,2698.89065249563
-0.681950153465433,2698.90065249562
-0.652887495598057,2698.91065249563
-0.617467139681915,2698.92065249562
-0.57681982432772,2698.93065249563
-0.533099811593284,2698.94065249563
-0.48827205457623,2698.95065249563
-0.444814370128555,2698.96065249563
-0.405010205208463,2698.97065249563
-0.370787634307078,2698.98065249563
-0.342575893906236,2698.99065249562
-0.321343106599203,2699.00065249563
-0.306006566928035,2699.01065249562
-0.295831959317581,2699.02065249563
-0.289193899122035,2699.03065249562
-0.284387833013162,2699.04065249563
-0.281330342690574,2699.05065249562
-0.278328799299218,2699.06065249563
-0.275237886244964,2699.07065249562
-0.271940455582949,2699.08065249563
-0.267906728944744,2699.09065249562
-0.263947511335066,2699.10065249563
-0.260538648874524,2699.11065249562
-0.257957910932478,2699.12065249563
-0.256017883755823,2699.13065249562
-0.255880425498492,2699.14065249563
-0.257569886935668,2699.15065249562
-0.26072942834821,2699.16065249563
-0.266046882073169,2699.17065249562
-0.272899715802415,2699.18065249563
-0.281141039736931,2699.19065249563
-0.290786576982373,2699.20065249563
-0.300331734439162,2699.21065249563
-0.310025340144503,2699.22065249563
-0.319318957525943,2699.23065249563
-0.327492867880323,2699.24065249562
-0.334867879366192,2699.25065249563
-0.341245863608703,2699.26065249562
-0.345937781890156,2699.27065249563
-0.349343885625619,2699.28065249562
-0.351682303867458,2699.29065249563
-0.352975329502522,2699.30065249562
-0.353998855254079,2699.31065249563
-0.354739771676485,2699.32065249562
-0.355590982818719,2699.33065249563
-0.357524611139242,2699.34065249562
-0.359572714646316,2699.35065249563
-0.362264617685288,2699.36065249562
-0.365834077371762,2699.37065249563
-0.369380304473267,2699.38065249562
-0.374178605432005,2699.39065249563
-0.379193460273601,2699.40065249562
-0.384804482992857,2699.41065249563
-0.39068136428912,2699.42065249562
-0.397263080986041,2699.43065249563
-0.403919944673735,2699.44065249563
-0.410767151841759,2699.45065249563
-0.417946452194496,2699.46065249563
-0.425521242514228,2699.47065249563
-0.433135487236811,2699.48065249563
-0.440935591640693,2699.49065249562
-0.448765771408199,2699.50065249563
-0.457068048864548,2699.51065249562
-0.465486585851892,2699.52065249563
-0.473899911896655,2699.53065249562
-0.482640427503901,2699.54065249563
-0.490825966115524,2699.55065249562
-0.499477161349457,2699.56065249563
-0.507290990088509,2699.57065249562
-0.515027028574191,2699.58065249563
-0.522584281120147,2699.59065249562
-0.530282909100711,2699.60065249563
-0.538011914984,2699.61065249562
-0.54552242933788,2699.62065249563
-0.553278421855778,2699.63065249562
-0.560931078511275,2699.64065249563
-0.568611009271561,2699.65065249562
-0.575849749414941,2699.66065249563
-0.583231173983045,2699.67065249562
-0.59078829955208,2699.68065249563
-0.598147489814039,2699.69065249563
-0.605298233424477,2699.70065249563
-0.612026787244347,2699.71065249563
-0.61857761824656,2699.72065249563
-0.625019465397433,2699.73065249563
-0.631647959148731,2699.74065249562
-0.638581733116821,2699.75065249563
-0.64463653386563,2699.76065249562
-0.650113102952944,2699.77065249563
-0.655288828954665,2699.78065249562
-0.660435286872145,2699.79065249563
-0.665606789793274,2699.80065249562
-0.671725405600046,2699.81065249563
-0.677616054045162,2699.82065249562
-0.683406711767318,2699.83065249563
-0.68882928600057,2699.84065249562
-0.693288155013269,2699.85065249563
-0.697803998272135,2699.86065249562
-0.70265664413805,2699.87065249563
-0.707488437942693,2699.88065249562
-0.712414519053968,2699.89065249563
-0.716835915896348,2699.90065249562
-0.721477613226444,2699.91065249563
-0.725808969122403,2699.92065249562
-0.72992072147657,2699.93065249563
-0.734126939317687,2699.94065249563
-0.738363402991639,2699.95065249563
-0.742961252058995,2699.96065249563
-0.747567154100805,2699.97065249563
-0.751750122124439,2699.98065249563
-0.754650308711106,2699.99065249562
-0.755661458233521,2700.00065249563
-0.75234013480873,2700.01065249562
-0.743404164745313,2700.02065249563
-0.727732526064112,2700.03065249562
-0.705119653868919,2700.04065249563
-0.677319024478621,2700.05065249562
-0.644842426745459,2700.06065249563
-0.609077080954066,2700.07065249562
-0.572026826206799,2700.08065249563
-0.535272231770853,2700.09065249562
-0.50142273284258,2700.10065249563
-0.471846037510576,2700.11065249562
-0.446954512780538,2700.12065249563
-0.426933387976834,2700.13065249562
-0.412232119688176,2700.14065249563
-0.401521787821456,2700.15065249562
-0.394674648295377,2700.16065249563
-0.390463499761031,2700.17065249562
-0.387532194560635,2700.18065249563
-0.385910255306041,2700.19065249563
-0.384774051414757,2700.20065249563
-0.383703352075789,2700.21065249563
-0.382364710165467,2700.22065249563
-0.380490702956928,2700.23065249563
-0.377761081142639,2700.24065249562
-0.374727014442276,2700.25065249563
-0.372610532546602,2700.26065249562
-0.370979646691481,2700.27065249563
-0.371375686021735,2700.28065249562
-0.373302694239245,2700.29065249563
-0.376190062382961,2700.30065249562
-0.381084483038057,2700.31065249563
-0.386436851090694,2700.32065249562
-0.393344755808331,2700.33065249563
-0.400370519517143,2700.34065249562
-0.406858196788129,2700.35065249563
-0.412495724467878,2700.36065249562
-0.416638262405087,2700.37065249563
-0.419845489957306,2700.38065249562
-0.421962016316623,2700.39065249563
-0.422674372527539,2700.40065249562
-0.423396264709293,2700.41065249563
-0.422992919835366,2700.42065249562
-0.42242095786536,2700.43065249563
-0.421186294518035,2700.44065249563
-0.41987185653984,2700.45065249563
-0.41900367083015,2700.46065249563
-0.419259422639263,2700.47065249563
-0.420702453999125,2700.48065249563
-0.422401506996532,2700.49065249562
-0.4251584603276,2700.50065249563
-0.427761819486689,2700.51065249562
-0.430758499788592,2700.52065249563
-0.433825600417023,2700.53065249562
-0.437673172462803,2700.54065249563
-0.442503208632563,2700.55065249562
-0.447203908334122,2700.56065249563
-0.452400513550689,2700.57065249562
-0.457576574170395,2700.58065249563
-0.463198984774665,2700.59065249562
-0.469067547360383,2700.60065249563
-0.475556781819594,2700.61065249562
-0.48319972719046,2700.62065249563
-0.491335100846635,2700.63065249562
-0.499584938664532,2700.64065249563
-0.507565231540151,2700.65065249562
-0.515304368676066,2700.66065249563
-0.522142643156899,2700.67065249562
-0.528650201733931,2700.68065249563
-0.535391402424068,2700.69065249563
-0.541954119342075,2700.70065249563
-0.548820826492171,2700.71065249563
-0.555331619278732,2700.72065249563
-0.56223881760451,2700.73065249563
-0.569543695329044,2700.74065249562
-0.576844866217363,2700.75065249563
-0.584281182603198,2700.76065249562
-0.591566722462121,2700.77065249563
-0.599359720431242,2700.78065249562
-0.607621288283023,2700.79065249563
-0.616521546103922,2700.80065249562
-0.626188125482901,2700.81065249563
-0.635671532490251,2700.82065249562
-0.645195687332437,2700.83065249563
-0.654453183734357,2700.84065249562
-0.662891740669436,2700.85065249563
-0.67063787852811,2700.86065249562
-0.67816178814747,2700.87065249563
-0.68603938465931,2700.88065249562
-0.693813075491531,2700.89065249563
-0.701700786640893,2700.90065249562
-0.709611517667425,2700.91065249563
-0.717591939407932,2700.92065249562
-0.726055476930528,2700.93065249563
-0.734532701928562,2700.94065249563
-0.743341422427672,2700.95065249563
-0.752470188255539,2700.96065249563
-0.761722985054095,2700.97065249563
-0.771736067909895,2700.98065249563
-0.781997798310638,2700.99065249562
-0.792103318346013,2701.00065249563
-0.802412819014585,2701.01065249562
-0.812368002969325,2701.02065249563
-0.822276557500704,2701.03065249562
-0.831615324377698,2701.04065249563
-0.84015850145271,2701.05065249562
-0.847025715344616,2701.06065249563
-0.850127962800029,2701.07065249562
-0.847875434798304,2701.08065249563
-0.839562822970429,2701.09065249562
-0.824655588765656,2701.10065249563
-0.804078489162578,2701.11065249562
-0.77851307212455,2701.12065249563
-0.749665705838629,2701.13065249562
-0.720006304143352,2701.14065249563
-0.690319417224355,2701.15065249562
-0.662887099714312,2701.16065249563
-0.638968457906623,2701.17065249562
-0.619298143488691,2701.18065249563
-0.604278820574277,2701.19065249563
-0.593941219032244,2701.20065249563
-0.588602575788539,2701.21065249563
-0.586848583352417,2701.22065249563
-0.588096857248604,2701.23065249563
-0.591061701383209,2701.24065249562
-0.595805857481717,2701.25065249563
-0.601570451197212,2701.26065249562
-0.607667815999929,2701.27065249563
-0.613053115926955,2701.28065249562
-0.617411269588841,2701.29065249563
-0.621307244271274,2701.30065249562
-0.624995642596546,2701.31065249563
-0.629020434913201,2701.32065249562
-0.633970174336129,2701.33065249563
-0.64062959859318,2701.34065249562
-0.64860026247302,2701.35065249563
-0.658050412211105,2701.36065249562
-0.669213359221954,2701.37065249563
-0.681178131300304,2701.38065249562
-0.692693852918507,2701.39065249563
-0.7039738627041,2701.40065249562
-0.714109018164617,2701.41065249563
-0.722931626256193,2701.42065249562
-0.729587252395845,2701.43065249563
-0.735061072736221,2701.44065249563
-0.739005372988507,2701.45065249563
-0.741832594567972,2701.46065249563
-0.743837807712234,2701.47065249563
-0.744480217574387,2701.48065249563
-0.744271672328345,2701.49065249562
-0.743369002003164,2701.50065249563
-0.741711350623253,2701.51065249562
-0.739972181820611,2701.52065249563
-0.738405505043656,2701.53065249562
-0.738179226337688,2701.54065249563
-0.738782121167871,2701.55065249562
-0.740592802633291,2701.56065249563
-0.74361045088236,2701.57065249562
-0.746901934147343,2701.58065249563
-0.750732474655446,2701.59065249562
-0.755187822183087,2701.60065249563
-0.760505784412185,2701.61065249562
-0.766053402518077,2701.62065249563
-0.771944010042612,2701.63065249562
-0.777939584383011,2701.64065249563
-0.783838713719934,2701.65065249562
-0.789469888342581,2701.66065249563
-0.794930774147163,2701.67065249562
-0.800522900909463,2701.68065249563
-0.806538067532341,2701.69065249563
-0.813312881814867,2701.70065249563
-0.820603035371723,2701.71065249563
-0.827360941194012,2701.72065249563
-0.834394594080902,2701.73065249563
-0.840623103560178,2701.74065249562
-0.846329741890452,2701.75065249563
-0.851558522143614,2701.76065249562
-0.856146422779464,2701.77065249563
-0.861279402896396,2701.78065249562
-0.866579057214529,2701.79065249563
-0.872293791820819,2701.80065249562
-0.879035621159621,2701.81065249563
-0.885695578351894,2701.82065249562
-0.892167174881586,2701.83065249563
-0.898489206092741,2701.84065249562
-0.904632318917398,2701.85065249563
-0.909914738389033,2701.86065249562
-0.914815685692431,2701.87065249563
-0.919338000015004,2701.88065249562
-0.923547973626035,2701.89065249563
-0.927438373485146,2701.90065249562
-0.931994028987158,2701.91065249563
-0.937080630233946,2701.92065249562
-0.94267116264539,2701.93065249563
-0.949074734604253,2701.94065249563
-0.95563796660687,2701.95065249563
-0.961838305127559,2701.96065249563
-0.967451858375001,2701.97065249563
-0.971861778720285,2701.98065249563
-0.973531146106669,2701.99065249562
-0.972259421347273,2702.00065249563
-0.966681790198352,2702.01065249562
-0.955862452696056,2702.02065249563
-0.939658652826933,2702.03065249562
-0.918083598361514,2702.04065249563
-0.892148713010559,2702.05065249562
-0.862903046938078,2702.06065249563
-0.831906658312212,2702.07065249562
-0.800761400671402,2702.08065249563
-0.77154933551018,2702.09065249562
-0.745053478964518,2702.10065249563
-0.722400770457394,2702.11065249562
-0.703830839452743,2702.12065249563
-0.689743301958397,2702.13065249562
-0.67926184730087,2702.14065249563
-0.672159544122337,2702.15065249562
-0.667962455569728,2702.16065249563
-0.665556444844259,2702.17065249562
-0.663479904334819,2702.18065249563
-0.66158796453064,2702.19065249563
-0.659046897340235,2702.20065249563
-0.655788302054051,2702.21065249563
-0.652085273527543,2702.22065249563
-0.648330801676384,2702.23065249563
-0.645254255105221,2702.24065249562
-0.642906419804058,2702.25065249563
-0.642365405002698,2702.26065249562
-0.643256491254587,2702.27065249563
-0.645073879793552,2702.28065249562
-0.647300253315851,2702.29065249563
-0.65056775535879,2702.30065249562
-0.65435474340051,2702.31065249563
-0.6592569554876,2702.32065249562
-0.664052765009457,2702.33065249563
-0.668877026080191,2702.34065249562
-0.6731849884236,2702.35065249563
-0.67613872395063,2702.36065249562
-0.67805070990841,2702.37065249563
-0.6784911575226,2702.38065249562
-0.678304674059464,2702.39065249563
-0.676747796914462,2702.40065249562
-0.674243914187736,2702.41065249563
-0.671016032697608,2702.42065249562
-0.667641785447813,2702.43065249563
-0.664721063585424,2702.44065249563
-0.662450093724528,2702.45065249563
-0.661485720572955,2702.46065249563
-0.662022932650518,2702.47065249563
-0.66275413223768,2702.48065249563
-0.664228795276473,2702.49065249562
-0.665736424728311,2702.50065249563
-0.666934761211617,2702.51065249562
-0.667619021574517,2702.52065249563
-0.668150560678421,2702.53065249562
-0.668653014072361,2702.54065249563
-0.669261533088558,2702.55065249562
-0.670366407597994,2702.56065249563
-0.671941325060668,2702.57065249562
-0.6744681593805,2702.58065249563
-0.677356316117337,2702.59065249562
-0.680572374025626,2702.60065249563
-0.684140048550917,2702.61065249562
-0.687528979248189,2702.62065249563
-0.690783807218672,2702.63065249562
-0.693883653511406,2702.64065249563
-0.697261709225678,2702.65065249562
-0.701587528446771,2702.66065249563
-0.706612585398893,2702.67065249562
-0.711651607212124,2702.68065249563
-0.716730066054795,2702.69065249563
-0.722111250297954,2702.70065249563
-0.727099396389284,2702.71065249563
-0.731794139563606,2702.72065249563
-0.736412559602336,2702.73065249563
-0.741304253067602,2702.74065249562
-0.746256248977651,2702.75065249563
-0.751163056158532,2702.76065249562
-0.756970173466513,2702.77065249563
-0.763384377877016,2702.78065249562
-0.770270964116084,2702.79065249563
-0.777503904331926,2702.80065249562
-0.784711870106963,2702.81065249563
-0.792377797675292,2702.82065249562
-0.79976448861262,2702.83065249563
-0.806897371228596,2702.84065249562
-0.813313811315695,2702.85065249563
-0.817636040824468,2702.86065249562
-0.818961330907325,2702.87065249563
-0.816224426637962,2702.88065249562
-0.808442054483207,2702.89065249563
-0.794780681130568,2702.90065249562
-0.775003964870322,2702.91065249563
-0.750510178064701,2702.92065249562
-0.722580960763307,2702.93065249563
-0.69335390872779,2702.94065249563
-0.664969947114807,2702.95065249563
-0.638261283225956,2702.96065249563
-0.614275467565881,2702.97065249563
-0.592998749424342,2702.98065249563
-0.575469422102145,2702.99065249562
-0.561486261456927,2703.00065249563
-0.55025115051676,2703.01065249562
-0.542252574145503,2703.02065249563
-0.536460576366052,2703.03065249562
-0.531946342600544,2703.04065249563
-0.5286874385478,2703.05065249562
-0.525564078037795,2703.06065249563
-0.521911781688856,2703.07065249562
-0.517480178087444,2703.08065249563
-0.51193046304268,2703.09065249562
-0.50507325780391,2703.10065249563
-0.498394118862039,2703.11065249562
-0.491566806119994,2703.12065249563
-0.485554731555004,2703.13065249562
-0.481169813053014,2703.14065249563
-0.478329622630902,2703.15065249562
-0.477475558320485,2703.16065249563
-0.478088012596063,2703.17065249562
-0.479629124304529,2703.18065249563
-0.482007432627634,2703.19065249563
-0.484725224626901,2703.20065249563
-0.487241634867951,2703.21065249563
-0.489406303458157,2703.22065249563
-0.490410971429662,2703.23065249563
-0.48962991921346,2703.24065249562
-0.487494570115701,2703.25065249563
-0.483734034059144,2703.26065249562
-0.47872359193758,2703.27065249563
-0.472606900635918,2703.28065249562
-0.466067790016389,2703.29065249563
-0.459429103194296,2703.30065249562
-0.453451050000456,2703.31065249563
-0.447571616811536,2703.32065249562
-0.442148402780727,2703.33065249563
-0.436623845453204,2703.34065249562
-0.432355060329577,2703.35065249563
-0.429346513919569,2703.36065249562
-0.428378669294472,2703.37065249563
-0.429111437448748,2703.38065249562
-0.431481064956079,2703.39065249563
-0.434944740091794,2703.40065249562
-0.43962882828671,2703.41065249563
-0.445059233856765,2703.42065249562
-0.451314580885921,2703.43065249563
-0.458618161397253,2703.44065249563
-0.465752576491821,2703.45065249563
-0.472884363101376,2703.46065249563
-0.479852357580098,2703.47065249563
-0.485840784353523,2703.48065249563
-0.491846393055533,2703.49065249562
-0.49717857302506,2703.50065249563
-0.502478632780035,2703.51065249562
-0.508124386208552,2703.52065249563
-0.513888343130477,2703.53065249562
-0.520394876123469,2703.54065249563
-0.526887956385244,2703.55065249562
-0.533381337826245,2703.56065249563
-0.538996055146055,2703.57065249562
-0.544460788559012,2703.58065249563
-0.55036090293894,2703.59065249562
-0.55585244439838,2703.60065249563
-0.561289734914966,2703.61065249562
-0.567354568045577,2703.62065249563
-0.573658561425621,2703.63065249562
-0.580039835622507,2703.64065249563
-0.585930837419358,2703.65065249562
-0.590172342357335,2703.66065249563
-0.592015201827247,2703.67065249562
-0.590202569743327,2703.68065249563
-0.583937470741741,2703.69065249563
-0.572103909439734,2703.70065249563
-0.555068086433038,2703.71065249563
-0.533995322866032,2703.72065249563
-0.510437969432687,2703.73065249563
-0.486381194969324,2703.74065249562
-0.463192508717638,2703.75065249563
-0.442700196721848,2703.76065249562
-0.425266235508924,2703.77065249563
-0.411473161361429,2703.78065249562
-0.400872533984764,2703.79065249563
-0.393066523618732,2703.80065249562
-0.387336905625757,2703.81065249563
-0.383561829435311,2703.82065249562
-0.382016724214693,2703.83065249563
-0.380917276997564,2703.84065249562
-0.379993263700094,2703.85065249563
-0.378422114089936,2703.86065249562
-0.375802577888931,2703.87065249563
-0.372292606249723,2703.88065249562
-0.369004628529712,2703.89065249563
-0.365652508669569,2703.90065249562
-0.363010383597156,2703.91065249563
-0.361320096906833,2703.92065249562
-0.360760270850262,2703.93065249563
-0.361221670959692,2703.94065249563
-0.363641809942813,2703.95065249563
-0.367672699423826,2703.96065249563
-0.373803471091252,2703.97065249563
-0.381539750991535,2703.98065249563
-0.39007339544914,2703.99065249562
-0.399205631877166,2704.00065249563
-0.407284310476198,2704.01065249562
-0.415223186372772,2704.02065249563
-0.421864882522531,2704.03065249562
-0.427480859625897,2704.04065249563
-0.431739693204219,2704.05065249562
-0.434608678417305,2704.06065249563
-0.437325650570165,2704.07065249562
-0.439537399321937,2704.08065249563
-0.441994296083637,2704.09065249562
-0.443973258248448,2704.10065249563
-0.446697954826167,2704.11065249562
-0.449437809808018,2704.12065249563
-0.452874268188901,2704.13065249562
-0.456764571803329,2704.14065249563
-0.461375999712454,2704.15065249562
-0.466075111074049,2704.16065249563
-0.471171978716534,2704.17065249562
-0.476722763206787,2704.18065249563
-0.48236994818975,2704.19065249563
-0.488370464038515,2704.20065249563
-0.494529623951388,2704.21065249563
-0.501517403358212,2704.22065249563
-0.508163869515838,2704.23065249563
-0.514999614489045,2704.24065249562
-0.521534902549835,2704.25065249563
-0.527716493658555,2704.26065249562
-0.533483893051412,2704.27065249563
-0.539221328486543,2704.28065249562
-0.544823447895393,2704.29065249563
-0.55050979829744,2704.30065249562
-0.556301728283454,2704.31065249563
-0.561796520934658,2704.32065249562
-0.567511991085963,2704.33065249563
-0.572827591499266,2704.34065249562
-0.578037461458533,2704.35065249563
-0.583238056639578,2704.36065249562
-0.588345188988828,2704.37065249563
-0.59297980449175,2704.38065249562
-0.597989705535047,2704.39065249563
-0.602540706160694,2704.40065249562
-0.607295173286397,2704.41065249563
-0.61215155813787,2704.42065249562
-0.61743379291962,2704.43065249563
-0.622813158701475,2704.44065249563
-0.628277392361995,2704.45065249563
-0.633633446266129,2704.46065249563
-0.638784218929625,2704.47065249563
-0.643356169652349,2704.48065249563
-0.646154521678109,2704.49065249562
-0.646811602794938,2704.50065249563
-0.644087677949889,2704.51065249562
-0.637893690865188,2704.52065249563
-0.626890909483617,2704.53065249562
-0.611580800107639,2704.54065249563
-0.592601631390247,2704.55065249562
-0.57116928276166,2704.56065249563
-0.549767461252937,2704.57065249562
-0.529043676887815,2704.58065249563
-0.510863475587781,2704.59065249562
-0.49487808091666,2704.60065249563
-0.481763893076657,2704.61065249562
-0.471066830029892,2704.62065249563
-0.463064446671968,2704.63065249562
-0.457095137211171,2704.64065249563
-0.452157780495751,2704.65065249562
-0.44800897372813,2704.66065249563
-0.444327393469851,2704.67065249562
-0.440548457582749,2704.68065249563
-0.436573692775095,2704.69065249563
-0.432198627162513,2704.70065249563
-0.427096969080588,2704.71065249563
-0.421663087091202,2704.72065249563
-0.416058932563499,2704.73065249563
-0.409886216077207,2704.74065249562
-0.403786293541297,2704.75065249563
-0.398293239020067,2704.76065249562
-0.393894246237263,2704.77065249563
-0.391991939759396,2704.78065249562
-0.391706596475804,2704.79065249563
-0.393443726386271,2704.80065249562
-0.396795734869263,2704.81065249563
-0.400486566826481,2704.82065249562
-0.405138231595052,2704.83065249563
-0.408337604096894,2704.84065249562
-0.41072857477382,2704.85065249563
-0.411962688273427,2704.86065249562
-0.411880393161107,2704.87065249563
-0.411498580686543,2704.88065249562
-0.410577222018539,2704.89065249563
-0.409408888190797,2704.90065249562
-0.408598823527036,2704.91065249563
-0.407704087494167,2704.92065249562
-0.406822382595799,2704.93065249563
-0.40585385853314,2704.94065249563
-0.404466612657642,2704.95065249563
-0.40325783451045,2704.96065249563
-0.402263099710452,2704.97065249563
-0.401762132973465,2704.98065249563
-0.40231712121503,2704.99065249562
-0.403360645716945,2705.00065249563
-0.40466217499049,2705.01065249562
-0.40696193878887,2705.02065249563
-0.409434997908123,2705.03065249562
-0.412490140212458,2705.04065249563
-0.415420581970858,2705.05065249562
-0.418146260692395,2705.06065249563
-0.420492742670239,2705.07065249562
-0.422753397553662,2705.08065249563
-0.425441728656038,2705.09065249562
-0.428634801878684,2705.10065249563
-0.432381483662754,2705.11065249562
-0.436165185325358,2705.12065249563
-0.439496151777361,2705.13065249562
-0.443059982622707,2705.14065249563
-0.44613572361634,2705.15065249562
-0.448777785717906,2705.16065249563
-0.451202826310628,2705.17065249562
-0.453819992097381,2705.18065249563
-0.456271019289126,2705.19065249563
-0.4587096840822,2705.20065249563
-0.462198339510151,2705.21065249563
-0.466000005501285,2705.22065249563
-0.470209023679559,2705.23065249563
-0.474960697281659,2705.24065249562
-0.479321057758717,2705.25065249563
-0.483330329295913,2705.26065249562
-0.48696342225462,2705.27065249563
-0.489782710663982,2705.28065249562
-0.492509518789047,2705.29065249563
-0.495173700438514,2705.30065249562
-0.497917232018381,2705.31065249563
-0.50103795736488,2705.32065249562
-0.504807497637626,2705.33065249563
-0.508261915261052,2705.34065249562
-0.511629157571131,2705.35065249563
-0.514942136837279,2705.36065249562
-0.51786981281985,2705.37065249563
-0.521039023386565,2705.38065249562
-0.523890427352664,2705.39065249563
-0.527620132448612,2705.40065249562
-0.532175872432673,2705.41065249563
-0.537007338916414,2705.42065249562
-0.541709285808626,2705.43065249563
-0.54577267390204,2705.44065249563
-0.549513636013453,2705.45065249563
-0.552837082579572,2705.46065249563
-0.555949660862839,2705.47065249563
-0.559111135337292,2705.48065249563
-0.561100898958261,2705.49065249562
-0.559990432033874,2705.50065249563
-0.55537619069052,2705.51065249562
-0.545689673187737,2705.52065249563
-0.530875323008571,2705.53065249562
-0.511976916004479,2705.54065249563
-0.490343039900104,2705.55065249562
-0.467586772575749,2705.56065249563
-0.445572656762971,2705.57065249562
-0.424968118757398,2705.58065249563
-0.406850078206653,2705.59065249562
-0.390841385747494,2705.60065249563
-0.376859951390526,2705.61065249562
-0.366302833066561,2705.62065249563
-0.357953653000343,2705.63065249562
-0.351810724120982,2705.64065249563
-0.347308189775539,2705.65065249562
-0.343951975074285,2705.66065249563
-0.340705998523427,2705.67065249562
-0.336438059872453,2705.68065249563
-0.331180199307406,2705.69065249563
-0.325089274419025,2705.70065249563
-0.318032949096067,2705.71065249563
-0.310531834034853,2705.72065249563
-0.30280446367131,2705.73065249563
-0.294679904943389,2705.74065249562
-0.286753311848527,2705.75065249563
-0.279671275975223,2705.76065249562
-0.274647794594353,2705.77065249563
-0.271571357519707,2705.78065249562
-0.271003635276751,2705.79065249563
-0.27218191924738,2705.80065249562
-0.274794578638441,2705.81065249563
-0.278062173589478,2705.82065249562
-0.281226729476202,2705.83065249563
-0.283901096230015,2705.84065249562
-0.285396434913857,2705.85065249563
-0.286145473914576,2705.86065249562
-0.286853772111179,2705.87065249563
-0.286469170742918,2705.88065249562
-0.286365865810646,2705.89065249563
-0.285836483926717,2705.90065249562
-0.284425790842213,2705.91065249563
-0.282697002420829,2705.92065249562
-0.280884981546148,2705.93065249563
-0.278628570240559,2705.94065249563
-0.276626971027671,2705.95065249563
-0.275605079098534,2705.96065249563
-0.274843505014553,2705.97065249563
-0.274942280552007,2705.98065249563
-0.275432543359278,2705.99065249562
-0.275987038077311,2706.00065249563
-0.277230612258464,2706.01065249562
-0.278502174145034,2706.02065249563
-0.280320706956403,2706.03065249562
-0.282710985149928,2706.04065249563
-0.285193402451157,2706.05065249562
-0.288313775904161,2706.06065249563
-0.291663309208091,2706.07065249562
-0.295534348396123,2706.08065249563
-0.298798208384414,2706.09065249562
-0.302942781023617,2706.10065249563
-0.307119668578677,2706.11065249562
-0.311348896787734,2706.12065249563
-0.316106265060412,2706.13065249562
-0.320419205409805,2706.14065249563
-0.324367258427756,2706.15065249562
-0.328203587460332,2706.16065249563
-0.331759573032424,2706.17065249562
-0.335190411676612,2706.18065249563
-0.338932825153652,2706.19065249563
-0.342691329436801,2706.20065249563
-0.345985394752292,2706.21065249563
-0.34963172349412,2706.22065249563
-0.353336496237196,2706.23065249563
-0.356969534044938,2706.24065249562
-0.359883509641775,2706.25065249563
-0.362905736748088,2706.26065249562
-0.365911657023639,2706.27065249563
-0.369567480773693,2706.28065249562
-0.37389056828583,2706.29065249563
-0.378946476552209,2706.30065249562
-0.384170976226561,2706.31065249563
-0.38878151812511,2706.32065249562
-0.392841835118922,2706.33065249563
-0.396565287671817,2706.34065249562
-0.400714197279049,2706.35065249563
-0.404530443638987,2706.36065249562
-0.408673928374832,2706.37065249563
-0.412754785052996,2706.38065249562
-0.416608064731848,2706.39065249563
-0.420669001558829,2706.40065249562
-0.424271867099828,2706.41065249563
-0.428312401769491,2706.42065249562
-0.432512420232822,2706.43065249563
-0.437083537928113,2706.44065249563
-0.441292209711035,2706.45065249563
-0.444913704015587,2706.46065249563
-0.448744756739101,2706.47065249563
-0.452779121877157,2706.48065249563
-0.456237722160844,2706.49065249562
-0.460108228759812,2706.50065249563
-0.462581569674608,2706.51065249562
-0.463195692707536,2706.52065249563
-0.460573662648835,2706.53065249562
-0.453937071845752,2706.54065249563
-0.442748692442095,2706.55065249562
-0.426734806171434,2706.56065249563
-0.407141570360226,2706.57065249562
-0.385127981424916,2706.58065249563
-0.362183363392397,2706.59065249562
-0.339133630471829,2706.60065249563
-0.317766732014066,2706.61065249562
-0.298863236307026,2706.62065249563
-0.282433428170042,2706.63065249562
-0.269541001677302,2706.64065249563
-0.259330192627462,2706.65065249562
-0.250957262975335,2706.66065249563
-0.243602479919323,2706.67065249562
-0.237253840166882,2706.68065249563
-0.23139084007964,2706.69065249563
-0.225864761649952,2706.70065249563
-0.219901657074648,2706.71065249563
-0.213251048836956,2706.72065249563
-0.206347435308238,2706.73065249563
-0.199185971069573,2706.74065249562
-0.191520557563073,2706.75065249563
-0.18394746571638,2706.76065249562
-0.176512975163813,2706.77065249563
-0.170259430345389,2706.78065249562
-0.165309954692038,2706.79065249563
-0.162488965522412,2706.80065249562
-0.161613125923795,2706.81065249563
-0.163212999223306,2706.82065249562
-0.165396352394802,2706.83065249563
-0.168102016119712,2706.84065249562
-0.170513714041885,2706.85065249563
-0.171758248384119,2706.86065249562
-0.172531618599711,2706.87065249563
-0.172340282664825,2706.88065249562
-0.171390485942135,2706.89065249563
-0.169460426133573,2706.90065249562
-0.167013157870744,2706.91065249563
-0.163639152078918,2706.92065249562
-0.159250829037799,2706.93065249563
-0.154812645447399,2706.94065249563
-0.149728044932685,2706.95065249563
-0.14547964033018,2706.96065249563
-0.142199528893506,2706.97065249563
-0.140111784171387,2706.98065249563
-0.13898724120647,2706.99065249562
-0.139034424033498,2707.00065249563
-0.139782397063203,2707.01065249562
-0.140678828020131,2707.02065249563
-0.141605172389634,2707.03065249562
-0.143269808487501,2707.04065249563
-0.145396455543177,2707.05065249562
-0.14790014216156,2707.06065249563
-0.150553537052901,2707.07065249562
-0.152750596850203,2707.08065249563
-0.154935280585883,2707.09065249562
-0.157417706438374,2707.10065249563
-0.160644805844454,2707.11065249562
-0.164087830461455,2707.12065249563
-0.167672711886323,2707.13065249562
-0.170632752526963,2707.14065249563
-0.173287309371401,2707.15065249562
-0.175943292664696,2707.16065249563
-0.178861492530225,2707.17065249562
-0.181787716389378,2707.18065249563
-0.184922964647511,2707.19065249563
-0.188195608798198,2707.20065249563
-0.191231392977854,2707.21065249563
-0.194702312447226,2707.22065249563
-0.197637916425609,2707.23065249563
-0.200463616909677,2707.24065249562
-0.203567393590291,2707.25065249563
-0.206454147880679,2707.26065249562
-0.209449179467132,2707.27065249563
-0.212343911898454,2707.28065249562
-0.215394322518939,2707.29065249563
-0.21882235686219,2707.30065249562
-0.222485986450481,2707.31065249563
-0.226646375316791,2707.32065249562
-0.23060827640596,2707.33065249563
-0.234915514955288,2707.34065249562
-0.239263791124633,2707.35065249563
-0.243096715870074,2707.36065249562
-0.246943159338015,2707.37065249563
-0.250300545874409,2707.38065249562
-0.253622065707023,2707.39065249563
-0.256138239385146,2707.40065249562
-0.258999584921289,2707.41065249563
-0.261793597059459,2707.42065249562
-0.265431982121692,2707.43065249563
-0.269239449715091,2707.44065249563
-0.273958017346962,2707.45065249563
-0.277754536591374,2707.46065249563
-0.281400612396396,2707.47065249563
-0.28499426435704,2707.48065249563
-0.287789509230941,2707.49065249562
-0.289033764565749,2707.50065249563
-0.287686045218921,2707.51065249562
-0.283650979644696,2707.52065249563
-0.275138351226125,2707.53065249562
-0.262845394537987,2707.54065249563
-0.245493601943116,2707.55065249562
-0.224283333262232,2707.56065249563
-0.200404455081761,2707.57065249562
-0.175072435739366,2707.58065249563
-0.149746875642374,2707.59065249562
-0.125375953504257,2707.60065249563
-0.102996453393958,2707.61065249562
-0.0828123712842392,2707.62065249563
-0.0656104488016073,2707.63065249562
-0.0512247490406552,2707.64065249563
-0.0390453789751684,2707.65065249562
-0.0295199783072729,2707.66065249563
-0.0214678898530818,2707.67065249562
-0.0144535091533342,2707.68065249563
-0.00805579834115211,2707.69065249563
-0.00194364278704574,2707.70065249563
0.00381206193545121,2707.71065249563
0.00986277858018848,2707.72065249563
0.016900283891359,2707.73065249563
0.0245663030688164,2707.74065249562
0.0320364889066719,2707.75065249563
0.0395174156265294,2707.76065249562
0.045517960231522,2707.77065249563
0.0498817053529058,2707.78065249562
0.0520685423371772,2707.79065249563
0.0526714297102513,2707.80065249562
0.051949288332583,2707.81065249563
0.0499674343410369,2707.82065249562
0.0470847693245314,2707.83065249563
0.04458567790159,2707.84065249562
0.0422400214300345,2707.85065249563
0.0412954539598084,2707.86065249562
0.0412864832269007,2707.87065249563
0.0432065463133167,2707.88065249562
0.0460404388043966,2707.89065249563
0.0499518453691367,2707.90065249562
0.0539628266330231,2707.91065249563
0.0583022533505643,2707.92065249562
0.062834337319828,2707.93065249563
0.0671415100434442,2707.94065249563
0.0710871291874998,2707.95065249563
0.0741636871859348,2707.96065249563
0.0760778654596051,2707.97065249563
0.0770196710895227,2707.98065249563
0.0767027708607105,2707.99065249562
0.076093389745564,2708.00065249563
0.0744899261065987,2708.01065249562
0.0721728461755945,2708.02065249563
0.0698049042496028,2708.03065249562
0.0670506123916663,2708.04065249563
0.0644560791540874,2708.05065249562
0.061357400721851,2708.06065249563
0.0577746465169167,2708.07065249562
0.0539758343686517,2708.08065249563
0.0506006297231135,2708.09065249562
0.04742362718562,2708.10065249563
0.0447639493170751,2708.11065249562
0.0422884205288826,2708.12065249563
0.0395716121713307,2708.13065249562
0.0372580023432583,2708.14065249563
0.034439227643372,2708.15065249562
0.0313611574838226,2708.16065249563
0.0278895258931405,2708.17065249562
0.0244548665590905,2708.18065249563
0.0211378663064116,2708.19065249563
0.0178540171613236,2708.20065249563
0.0150824693467207,2708.21065249563
0.0124709356384974,2708.22065249563
0.00946467983782483,2708.23065249563
0.00579889976183043,2708.24065249562
0.00217235396827467,2708.25065249563
-0.00213472416174454,2708.26065249562
-0.0065279060994511,2708.27065249563
-0.0118889570141305,2708.28065249562
-0.0170739944672374,2708.29065249563
-0.022511927904803,2708.30065249562
-0.0272424682890537,2708.31065249563
-0.0313401102694965,2708.32065249562
-0.0352119277119094,2708.33065249563
-0.038551816821162,2708.34065249562
-0.041747526296308,2708.35065249563
-0.0451564891511406,2708.36065249562
-0.0483059485238658,2708.37065249563
-0.0522883904892632,2708.38065249562
-0.0568353424290387,2708.39065249563
-0.0616099775002671,2708.40065249562
-0.0667506953529954,2708.41065249563
-0.0717052304234676,2708.42065249562
-0.0764194806802228,2708.43065249563
-0.0810592273881047,2708.44065249563
-0.0861840699990083,2708.45065249563
-0.0909912916159524,2708.46065249563
-0.0956703087318643,2708.47065249563
-0.100379639298599,2708.48065249563
-0.103579617389049,2708.49065249562
-0.104547943870617,2708.50065249563
-0.101821574214474,2708.51065249562
-0.0946104596632725,2708.52065249563
-0.0828595779807049,2708.53065249562
-0.065662418662175,2708.54065249563
-0.0433509558155818,2708.55065249562
-0.0170336746993609,2708.56065249563
0.0120392273562798,2708.57065249562
0.04163137353342,2708.58065249563
0.0708100762223829,2708.59065249562
0.0973534998851547,2708.60065249563
0.120945660513888,2708.61065249562
0.140558046095945,2708.62065249563
0.15679886933948,2708.63065249562
0.169252319985168,2708.64065249563
0.178664970263765,2708.65065249562
0.186170690714648,2708.66065249563
0.192508751368163,2708.67065249562
0.198014400743528,2708.68065249563
0.203085934272474,2708.69065249563
0.20924500166385,2708.70065249563
0.216506774049281,2708.71065249563
0.224876468620964,2708.72065249563
0.234463583744601,2708.73065249563
0.244808339762687,2708.74065249562
0.254727352746089,2708.75065249563
0.263302109907189,2708.76065249562
0.270849501757547,2708.77065249563
0.276018489971447,2708.78065249562
0.278736375129068,2708.79065249563
0.279766049470539,2708.80065249562
0.27802954190337,2708.81065249563
0.274908024879187,2708.82065249562
0.270531594829778,2708.83065249563
0.26605061265337,2708.84065249562
0.262062689003934,2708.85065249563
0.258493665958714,2708.86065249562
0.256554127437684,2708.87065249563
0.255538378563768,2708.88065249562
0.255739019396548,2708.89065249563
0.25650679979789,2708.90065249562
0.257938781340376,2708.91065249563
0.259934587775036,2708.92065249562
0.262315263158821,2708.93065249563
0.265149568906905,2708.94065249563
0.267643263454114,2708.95065249563
0.269701202097798,2708.96065249563
0.271407473407823,2708.97065249563
0.272171566583483,2708.98065249563
0.271887000167029,2708.99065249562
0.270613226294737,2709.00065249563
0.268339561934226,2709.01065249562
0.265985599149877,2709.02065249563
0.263147710841189,2709.03065249562
0.259915711112971,2709.04065249563
0.256077834113519,2709.05065249562
0.25212625058,2709.06065249563
0.248569035143124,2709.07065249562
0.244776612105901,2709.08065249563
0.240267739967751,2709.09065249562
0.235356522595324,2709.10065249563
0.229901513991118,2709.11065249562
0.223654099580829,2709.12065249563
0.217579396073442,2709.13065249562
0.211143992149353,2709.14065249563
0.204953847956746,2709.15065249562
0.199465235361857,2709.16065249563
0.194054097190071,2709.17065249562
0.188842752664205,2709.18065249563
0.183295043564235,2709.19065249563
0.177689850712261,2709.20065249563
0.172230229551648,2709.21065249563
0.166792183734408,2709.22065249563
0.160193594470066,2709.23065249563
0.153389552833016,2709.24065249562
0.146331371992913,2709.25065249563
0.138858796009253,2709.26065249562
0.131638476115879,2709.27065249563
0.124994241832938,2709.28065249562
0.118796461656481,2709.29065249563
0.113011803416731,2709.30065249562
0.107231921398527,2709.31065249563
0.101639102140427,2709.32065249562
0.095977027089083,2709.33065249563
0.0903405085881207,2709.34065249562
0.0844958889712573,2709.35065249563
0.0788260882904527,2709.36065249562
0.0728417225823225,2709.37065249563
0.0667129909999955,2709.38065249562
0.0608483145618817,2709.39065249563
0.0542201271381266,2709.40065249562
0.047601665518205,2709.41065249563
0.0404509675246911,2709.42065249562
0.0330438894185993,2709.43065249563
0.025136398560059,2709.44065249563
0.0179539793461122,2709.45065249563
0.0110348363991388,2709.46065249563
0.00422836843790404,2709.47065249563
-0.00189578649559296,2709.48065249563
-0.00842928030728542,2709.49065249562
-0.0148619443781238,2709.50065249563
-0.0214995677348685,2709.51065249562
-0.0283685849018369,2709.52065249563
-0.0348806406196074,2709.53065249562
-0.0409973912402406,2709.54065249563
-0.046988753753243,2709.55065249562
-0.0527441834442345,2709.56065249563
-0.0582659233730441,2709.57065249562
-0.0648548999655249,2709.58065249563
-0.0713501008505562,2709.59065249562
-0.078521246663016,2709.60065249563
-0.0862581450780271,2709.61065249562
-0.0928881322162512,2709.62065249563
-0.0978194179686894,2709.63065249562
-0.099391836537453,2709.64065249563
-0.096756034627316,2709.65065249562
-0.0883592365085354,2709.66065249563
-0.0741204157877273,2709.67065249562
-0.0545570747998875,2709.68065249563
-0.0308044932605176,2709.69065249563
-0.00345091497480121,2709.70065249563
0.0252258143981961,2709.71065249563
0.0537319355903291,2709.72065249563
0.0802960453453774,2709.73065249563
0.104097565203453,2709.74065249562
0.124090952451072,2709.75065249563
0.140890947458549,2709.76065249562
0.154089507899441,2709.77065249563
0.164150632721766,2709.78065249562
0.171660719713192,2709.79065249563
0.177587978281116,2709.80065249562
0.182454392147085,2709.81065249563
0.186463242564278,2709.82065249562
0.190960009710356,2709.83065249563
0.195632705554849,2709.84065249562
0.201024669875504,2709.85065249563
0.207168621429514,2709.86065249562
0.213949154130862,2709.87065249563
0.221242533934805,2709.88065249562
0.227655683398912,2709.89065249563
0.233254780060266,2709.90065249562
0.237064126607118,2709.91065249563
0.239045410569447,2709.92065249562
0.238700426583477,2709.93065249563
0.23666972212768,2709.94065249563
0.233106333870864,2709.95065249563
0.228258521013709,2709.96065249563
0.222984537552136,2709.97065249563
0.217523226629988,2709.98065249563
0.212354589352964,2709.99065249562
0.207664630615671,2710.00065249563
0.204231110984111,2710.01065249562
0.201592319385943,2710.02065249563
0.200242088284476,2710.03065249562
0.199499210101049,2710.04065249563
0.199635466512799,2710.05065249562
0.200698368087144,2710.06065249563
0.202283443219443,2710.07065249562
0.203855634328252,2710.08065249563
0.205474500594154,2710.09065249562
0.206228913942282,2710.10065249563
0.205848380275021,2710.11065249562
0.204900766539537,2710.12065249563
0.203246020678934,2710.13065249562
0.201343752221603,2710.14065249563
0.198492078278493,2710.15065249562
0.195435528618484,2710.16065249563
0.191860880512306,2710.17065249562
0.188733994949013,2710.18065249563
0.185094244270409,2710.19065249563
0.18084587318588,2710.20065249563
0.1762610964426,2710.21065249563
0.170933664148838,2710.22065249563
0.165269546386856,2710.23065249563
0.159287110631889,2710.24065249562
0.152727802000254,2710.25065249563
0.146848182387633,2710.26065249562
0.141008568591318,2710.27065249563
0.135076852658955,2710.28065249562
0.129166150061684,2710.29065249563
0.123089576395739,2710.30065249562
0.117438899388618,2710.31065249563
0.112014589287926,2710.32065249562
0.107218872453287,2710.33065249563
0.102303978187516,2710.34065249562
0.0974726837499645,2710.35065249563
0.0925353603537137,2710.36065249562
0.0879412907460768,2710.37065249563
0.082856683922945,2710.38065249562
0.0777412874260978,2710.39065249563
0.0724352539070524,2710.40065249562
0.06735396445362,2710.41065249563
0.062375469541017,2710.42065249562
0.0576717748536036,2710.43065249563
0.0533237760578946,2710.44065249563
0.0492385548722423,2710.45065249563
0.0447571880792727,2710.46065249563
0.0406533429319623,2710.47065249563
0.0363712458622776,2710.48065249563
0.0322161903655973,2710.49065249562
0.0279351148764146,2710.50065249563
0.0239776222522051,2710.51065249562
0.019767619930472,2710.52065249563
0.0151939075793423,2710.53065249562
0.0110629464740796,2710.54065249563
0.00690948770551711,2710.55065249562
0.00288548166727268,2710.56065249563
-0.000637945103033632,2710.57065249562
-0.00453405030972876,2710.58065249563
-0.00840597380586194,2710.59065249562
-0.0122383195441895,2710.60065249563
-0.016988385059203,2710.61065249562
-0.022012211280921,2710.62065249563
-0.0270827254923246,2710.63065249562
-0.0318667306638926,2710.64065249563
-0.0360375596327959,2710.65065249562
-0.0376064796382142,2710.66065249563
-0.0357198274333073,2710.67065249562
-0.0296478832599397,2710.68065249563
-0.0182371534592806,2710.69065249563
-0.00135885649301121,2710.70065249563
0.0208211162653976,2710.71065249563
0.0472232470024264,2710.72065249563
0.0772394265605107,2710.73065249563
0.108722459518223,2710.74065249562
0.139985707097293,2710.75065249563
0.169806658681753,2710.76065249562
0.196779361847392,2710.77065249563
0.219659926758673,2710.78065249562
0.238000980816425,2710.79065249563
0.252430820965119,2710.80065249562
0.263399641159547,2710.81065249563
0.272091035242491,2710.82065249562
0.27856031622293,2710.83065249563
0.283995068167479,2710.84065249562
0.288230065365003,2710.85065249563
0.292075925861515,2710.86065249562
0.2961379413657,2710.87065249563
0.30115681871241,2710.88065249562
0.307028330608322,2710.89065249563
0.313810939386143,2710.90065249562
0.319996641168582,2710.91065249563
0.32574240132624,2710.92065249562
0.32970726921357,2710.93065249563
0.332046847679668,2710.94065249563
0.333208745918483,2710.95065249563
0.331790181536914,2710.96065249563
0.328747315642702,2710.97065249563
0.324703606964562,2710.98065249563
0.319353808552968,2710.99065249562
0.313595511910597,2711.00065249563
0.308020718331172,2711.01065249562
0.303073237668021,2711.02065249563
0.299307462781127,2711.03065249562
0.296705357506943,2711.04065249563
0.295182827910379,2711.05065249562
0.294916389513492,2711.06065249563
0.295164082392675,2711.07065249562
0.295987651575457,2711.08065249563
0.297261403546611,2711.09065249562
0.299408045326485,2711.10065249563
0.301658761986438,2711.11065249562
0.303413092954615,2711.12065249563
0.303863685767527,2711.13065249562
0.303156842675232,2711.14065249563
0.301191413558079,2711.15065249562
0.29782627798859,2711.16065249563
0.293239724630397,2711.17065249562
0.288221209780425,2711.18065249563
0.282319740269826,2711.19065249563
0.276360940025446,2711.20065249563
0.269595192657127,2711.21065249563
0.263131205172084,2711.22065249563
0.25682241333546,2711.23065249563
0.249736301759012,2711.24065249562
0.242577420809937,2711.25065249563
0.235945211341229,2711.26065249562
0.229881405334627,2711.27065249563
0.22395456518262,2711.28065249562
0.217918185531782,2711.29065249563
0.211954954309606,2711.30065249562
0.205962200869241,2711.31065249563
0.199773422633447,2711.32065249562
0.193588433864631,2711.33065249563
0.186827953644494,2711.34065249562
0.179372039843522,2711.35065249563
0.171944766618361,2711.36065249562
0.16474665204046,2711.37065249563
0.156733769140455,2711.38065249562
0.148981131371369,2711.39065249563
0.141085940229156,2711.40065249562
0.133214036351133,2711.41065249563
0.12591565176487,2711.42065249562
0.118121827002493,2711.43065249563
0.109779911275913,2711.44065249563
0.100850481923677,2711.45065249563
0.0909748917098643,2711.46065249563
0.080934201616703,2711.47065249563
0.0707677257182914,2711.48065249563
0.0603057933582826,2711.49065249562
0.0503572649965189,2711.50065249563
0.0406110362791771,2711.51065249562
0.0315696604788576,2711.52065249563
0.0231490800112249,2711.53065249562
0.0151920952471921,2711.54065249563
0.00822405668324724,2711.55065249562
0.00188800083361287,2711.56065249563
-0.00429850937510866,2711.57065249562
-0.00995936884430267,2711.58065249563
-0.0152901639285092,2711.59065249562
-0.0198868285057735,2711.60065249563
-0.0242004803718942,2711.61065249562
-0.0276950752621157,2711.62065249563
-0.0319858487143045,2711.63065249562
-0.0369184393763928,2711.64065249563
-0.0430456598812965,2711.65065249562
-0.0497556778915855,2711.66065249563
-0.0569393608835544,2711.67065249562
-0.0648736294944791,2711.68065249563
-0.0732304505464925,2711.69065249563
-0.0819293582814302,2711.70065249563
-0.0901363425257968,2711.71065249563
-0.0960706711468865,2711.72065249563
-0.0993592898930104,2711.73065249563
-0.0976746026229175,2711.74065249562
-0.09075840204673,2711.75065249563
-0.0775619789298121,2711.76065249562
-0.0582133353555876,2711.77065249563
-0.0329747323486247,2711.78065249562
-0.00299942882715967,2711.79065249563
0.0299285682864587,2711.80065249562
0.0642737150085055,2711.81065249563
0.0979011546728547,2711.82065249562
0.129019267621606,2711.83065249563
0.156229906035833,2711.84065249562
0.179562174784968,2711.85065249563
0.197308860367885,2711.86065249562
0.211008707187442,2711.87065249563
0.220615327136361,2711.88065249562
0.22745856360277,2711.89065249563
0.232547069491418,2711.90065249562
0.237232896126279,2711.91065249563
0.24161972578889,2711.92065249562
0.246373811063304,2711.93065249563
0.251446889514735,2711.94065249563
0.257466088595764,2711.95065249563
0.264139939534324,2711.96065249563
0.271061221357851,2711.97065249563
0.278745534263585,2711.98065249563
0.285866840455263,2711.99065249562
0.292813561463488,2712.00065249563
0.29736391177524,2712.01065249562
0.300139230531133,2712.02065249563
0.299356231883053,2712.03065249562
0.295827410466821,2712.04065249563
0.290430002911632,2712.05065249562
0.282799178658518,2712.06065249563
0.274544819045253,2712.07065249562
0.266016870807415,2712.08065249563
0.258209864288957,2712.09065249562
0.251532333792935,2712.10065249563
0.246032318694534,2712.11065249562
0.241715066792913,2712.12065249563
0.238343020473106,2712.13065249562
0.23581825278961,2712.14065249563
0.233752604299351,2712.15065249562
0.232049188757686,2712.16065249563
0.230408865039958,2712.17065249562
0.228662383217996,2712.18065249563
0.22705578657096,2712.19065249563
0.22605026669908,2712.20065249563
0.2247178121664,2712.21065249563
0.222968429893954,2712.22065249563
0.22052830606202,2712.23065249563
0.217441305874848,2712.24065249562
0.214271942992364,2712.25065249563
0.210898264123014,2712.26065249562
0.207209114047287,2712.27065249563
0.203102502307242,2712.28065249562
0.198685053604033,2712.29065249563
0.193419662759757,2712.30065249562
0.188441797725175,2712.31065249563
0.183518065409187,2712.32065249562
0.178060281284571,2712.33065249563
0.172811465404678,2712.34065249562
0.167177970545885,2712.35065249563
0.161738341581965,2712.36065249562
0.156583045577068,2712.37065249563
0.150983437432772,2712.38065249562
0.145426489174223,2712.39065249563
0.139605211396293,2712.40065249562
0.133642316733655,2712.41065249563
0.128016527833985,2712.42065249562
0.122313625375993,2712.43065249563
0.11626656268835,2712.44065249563
0.110513583643544,2712.45065249563
0.104670614282812,2712.46065249563
0.0984279978878324,2712.47065249563
0.0917448238067,2712.48065249563
0.0848512501314442,2712.49065249562
0.0781023973099381,2712.50065249563
0.0717580904449734,2712.51065249562
0.0660817751565058,2712.52065249563
0.0610636286241416,2712.53065249562
0.056864838115976,2712.54065249563
0.0532039973830156,2712.55065249562
0.0500758945105226,2712.56065249563
0.0465776465971609,2712.57065249562
0.0428640385318468,2712.58065249563
0.0393882818637289,2712.59065249562
0.0361402707542572,2712.60065249563
0.033638811073087,2712.61065249562
0.0305495747204772,2712.62065249563
0.0271525209032287,2712.63065249562
0.0234354177600086,2712.64065249563
0.0187342454003246,2712.65065249562
0.0140616757006476,2712.66065249563
0.0086498932561286,2712.67065249562
0.00290429672862491,2712.68065249563
-0.00202410807743429,2712.69065249563
-0.00743801753855668,2712.70065249563
-0.0131588410475681,2712.71065249563
-0.0190660464470684,2712.72065249563
-0.0250279402650921,2712.73065249563
-0.0311331613889262,2712.74065249562
-0.0375334502155268,2712.75065249563
-0.0440297930777413,2712.76065249562
-0.0504744506069384,2712.77065249563
-0.0561391810937373,2712.78065249562
-0.0605712221335924,2712.79065249563
-0.0624484368737596,2712.80065249562
-0.0609336454410054,2712.81065249563
-0.0543790639394466,2712.82065249562
-0.0420590887845351,2712.83065249563
-0.0233011463806334,2712.84065249562
0.00143326044756512,2712.85065249563
0.0321488279048666,2712.86065249562
0.0671736840908777,2712.87065249563
0.104258851416038,2712.88065249562
0.141838947783751,2712.89065249563
0.178061466179255,2712.90065249562
0.212013543579679,2712.91065249563
0.242052325684341,2712.92065249562
0.267646385526971,2712.93065249563
0.288637133250606,2712.94065249563
0.304988578716773,2712.95065249563
0.316643639955452,2712.96065249563
0.32473988379735,2712.97065249563
0.330157843328088,2712.98065249563
0.334881732842214,2712.99065249562
0.339009055693558,2713.00065249563
0.343732211652025,2713.01065249562
0.349334169421292,2713.02065249563
0.35609151242733,2713.03065249562
0.363103337403713,2713.04065249563
0.370936710941317,2713.05065249562
0.378776518840609,2713.06065249563
0.386635011078773,2713.07065249562
0.393478017525693,2713.08065249563
0.397938665780574,2713.09065249562
0.398719395017364,2713.10065249563
0.396318069759421,2713.11065249562
0.391111830671169,2713.12065249563
0.383459863558152,2713.13065249562
0.374901587743842,2713.14065249563
0.365133469285783,2713.15065249562
0.354647868855411,2713.16065249563
0.343880822375034,2713.17065249562
0.33349919625895,2713.18065249563
0.323877861612794,2713.19065249563
0.314654514128464,2713.20065249563
0.306454677919128,2713.21065249563
0.300022267619851,2713.22065249563
0.294429295211994,2713.23065249563
0.289226572895832,2713.24065249562
0.285077604507112,2713.25065249563
0.280822298760631,2713.26065249562
0.276227771831601,2713.27065249563
0.272236573745607,2713.28065249562
0.268099931726171,2713.29065249563
0.264508245024011,2713.30065249562
0.260572448776835,2713.31065249563
0.25616455928054,2713.32065249562
0.250762073698454,2713.33065249563
0.244523866211043,2713.34065249562
0.237667226618193,2713.35065249563
0.230301078010845,2713.36065249562
0.223766887804724,2713.37065249563
0.216871771421186,2713.38065249562
0.209973009158351,2713.39065249563
0.202954237668451,2713.40065249562
0.195447004295914,2713.41065249563
0.188042997706271,2713.42065249562
0.180776855126999,2713.43065249563
0.173152002188922,2713.44065249563
0.165629774721143,2713.45065249563
0.157673102511722,2713.46065249563
0.149518730870477,2713.47065249563
0.141677046988931,2713.48065249563
0.133218188603221,2713.49065249562
0.124922225391723,2713.50065249563
0.116317644079733,2713.51065249562
0.107439786625161,2713.52065249563
0.099150551958828,2713.53065249562
0.0910200937814614,2713.54065249563
0.0838316315957029,2713.55065249562
0.0774230774281059,2713.56065249563
0.0710254111940598,2713.57065249562
0.0653386508265941,2713.58065249563
0.0589967219245375,2713.59065249562
0.0524583929036742,2713.60065249563
0.0455117671960555,2713.61065249562
0.0379759445421403,2713.62065249563
0.0308109505822408,2713.63065249562
0.0239117327207468,2713.64065249563
0.0169675138438175,2713.65065249562
0.0104880309661474,2713.66065249563
0.00390590533026728,2713.67065249562
-0.002507840562501,2713.68065249563
-0.00845152597826512,2713.69065249563
-0.0145773816540559,2713.70065249563
-0.0202915183352638,2713.71065249563
-0.0263138898469097,2713.72065249563
-0.0318554466672147,2713.73065249563
-0.037704582295457,2713.74065249562
-0.0433644280968477,2713.75065249563
-0.0482151272243529,2713.76065249562
-0.0529602861436065,2713.77065249563
-0.0574265323023602,2713.78065249562
-0.0620088588232917,2713.79065249563
-0.0666590454658388,2713.80065249562
-0.0711622565032673,2713.81065249563
-0.0761954509132839,2713.82065249562
-0.0817952163229928,2713.83065249563
-0.0876198596562835,2713.84065249562
-0.0926518234546345,2713.85065249563
-0.0960098707524849,2713.86065249562
-0.0959853639348741,2713.87065249563
-0.0908116520207146,2713.88065249562
-0.0784656373197228,2713.89065249563
-0.0585913967485568,2713.90065249562
-0.0320258679003377,2713.91065249563
0.00133281445077808,2713.92065249562
0.0399041605672955,2713.93065249563
0.0807440855308613,2713.94065249563
0.122733836853615,2713.95065249563
0.163575134631466,2713.96065249563
0.200980003989967,2713.97065249563
0.232984693495703,2713.98065249563
0.25904288259228,2713.99065249562
0.278499484400951,2714.00065249563
0.291855149007114,2714.01065249562
0.300505144275775,2714.02065249563
0.304971136693036,2714.03065249562
0.307567569939905,2714.04065249563
0.309288982996289,2714.05065249562
0.311221754972285,2714.06065249563
0.313802185583395,2714.07065249562
0.317468114941779,2714.08065249563
0.321390682611165,2714.09065249562
0.324879214789149,2714.10065249563
0.328463647672255,2714.11065249562
0.330638333432365,2714.12065249563
0.331731152482888,2714.13065249562
0.331451437327625,2714.14065249563
0.328723386243171,2714.15065249562
0.32398212026778,2714.16065249563
0.317126541292468,2714.17065249562
0.3093040899188,2714.18065249563
0.301561963633668,2714.19065249563
0.294160332717453,2714.20065249563
0.287133607999683,2714.21065249563
0.281067948876524,2714.22065249563
0.276161505967708,2714.23065249563
0.272175758238075,2714.24065249562
0.269586951642935,2714.25065249563
0.267917082844681,2714.26065249562
0.267595538469976,2714.27065249563
0.267458550056765,2714.28065249562
0.267292658386268,2714.29065249563
0.267105178824755,2714.30065249562
0.266315207323252,2714.31065249563
0.26583539074189,2714.32065249562
0.265066443041029,2714.33065249563
0.264303965097716,2714.34065249562
0.262608069690527,2714.35065249563
0.259985292430027,2714.36065249562
0.256430915001531,2714.37065249563
0.252573990336829,2714.38065249562
0.248588911958925,2714.39065249563
0.244881851703677,2714.40065249562
0.241622743339439,2714.41065249563
0.238729437860684,2714.42065249562
0.235570847860827,2714.43065249563
0.232384549427875,2714.44065249563
0.229258728184762,2714.45065249563
0.225933835109798,2714.46065249563
0.222681411875341,2714.47065249563
0.21907001597603,2714.48065249563
0.214377037008286,2714.49065249562
0.209476381246992,2714.50065249563
0.204299049801268,2714.51065249562
0.199132120839676,2714.52065249563
0.193401598848335,2714.53065249562
0.188055717075106,2714.54065249563
0.182510496027816,2714.55065249562
0.176992079204458,2714.56065249563
0.171822986900721,2714.57065249562
0.167189324331396,2714.58065249563
0.161852153549191,2714.59065249562
0.156356725527281,2714.60065249563
0.151179276306516,2714.61065249562
0.146280700416851,2714.62065249563
0.141346840354317,2714.63065249562
0.136318468134052,2714.64065249563
0.131078156401661,2714.65065249562
0.125659034968115,2714.66065249563
0.120888634161025,2714.67065249562
0.116115198541041,2714.68065249563
0.111522097689293,2714.69065249563
0.107335313293186,2714.70065249563
0.103165529913392,2714.71065249563
0.0991184448573238,2714.72065249563
0.0952320641078912,2714.73065249563
0.0909933570966337,2714.74065249562
0.0862261358361501,2714.75065249563
0.0812756782145896,2714.76065249562
0.0764344319301705,2714.77065249563
0.0708349881207887,2714.78065249562
0.0653462621093752,2714.79065249563
0.0591839280077811,2714.80065249562
0.0528160459389228,2714.81065249563
0.0482863728623409,2714.82065249562
0.0470883447381846,2714.83065249563
0.0500014510395239,2714.84065249562
0.0602655608165362,2714.85065249563
0.0780269221750932,2714.86065249562
0.103551289222332,2714.87065249563
0.136712721326414,2714.88065249562
0.17556090731741,2714.89065249563
0.218794286146608,2714.90065249562
0.263576700900047,2714.91065249563
0.308158387320472,2714.92065249562
0.350437895594311,2714.93065249563
0.387545602719996,2714.94065249563
0.418717860865573,2714.95065249563
0.443271346246702,2714.96065249563
0.461774601572439,2714.97065249563
0.474770766253749,2714.98065249563
0.483026149896096,2714.99065249562
0.48860205844893,2715.00065249563
0.492212636679152,2715.01065249562
0.49467466230069,2715.02065249563
0.497194317036184,2715.03065249562
0.500266233267897,2715.04065249563
0.505012298740588,2715.05065249562
0.51075200907736,2715.06065249563
0.517236596954963,2715.07065249562
0.523956875311349,2715.08065249563
0.529656000039238,2715.09065249562
0.533373325623707,2715.10065249563
0.534996296396661,2715.11065249562
0.534283470209194,2715.12065249563
0.530905074052044,2715.13065249562
0.525026709511829,2715.14065249563
0.517941156842738,2715.15065249562
0.510413570677001,2715.16065249563
0.502442659946919,2715.17065249562
0.494204880633963,2715.18065249563
0.486320775602371,2715.19065249563
0.479154306281256,2715.20065249563
0.471791868755979,2715.21065249563
0.465483727588213,2715.22065249563
0.460340715279851,2715.23065249563
0.456467973761241,2715.24065249562
0.453789449611676,2715.25065249563
0.452085038096649,2715.26065249562
0.451446149566062,2715.27065249563
0.451214819156759,2715.28065249562
0.451229382653569,2715.29065249563
0.450551319568543,2715.30065249562
0.449002145320147,2715.31065249563
0.446469106379286,2715.32065249562
0.442356013072823,2715.33065249563
0.437168797841375,2715.34065249562
0.430661481268933,2715.35065249563
0.423932684277669,2715.36065249562
0.417381909357429,2715.37065249563
0.41059660754988,2715.38065249562
0.403397091911104,2715.39065249563
0.396371587087761,2715.40065249562
0.388440558687983,2715.41065249563
0.38072805032285,2715.42065249562
0.372619369839169,2715.43065249563
0.364477337945321,2715.44065249563
0.355917480853724,2715.45065249563
0.347612968500357,2715.46065249563
0.339259450912583,2715.47065249563
0.331298092903937,2715.48065249563
0.323497553939798,2715.49065249562
0.315345021445631,2715.50065249563
0.307268502310216,2715.51065249562
0.299032297115848,2715.52065249563
0.291181923785013,2715.53065249562
0.283605383692382,2715.54065249563
0.275532588689341,2715.55065249562
0.267455748984262,2715.56065249563
0.259413860179097,2715.57065249562
0.250964126855096,2715.58065249563
0.242382434026796,2715.59065249562
0.233713240522954,2715.60065249563
0.224859707875913,2715.61065249562
0.216789732429313,2715.62065249563
0.208872417483645,2715.63065249562
0.200996009704574,2715.64065249563
0.193008055055333,2715.65065249562
0.184407582353801,2715.66065249563
0.176170170681802,2715.67065249562
0.167554379174853,2715.68065249563
0.158816524212912,2715.69065249563
0.150094565905658,2715.70065249563
0.141671865970442,2715.71065249563
0.133531531414513,2715.72065249563
0.125701852106429,2715.73065249563
0.118863313404244,2715.74065249562
0.112453617180952,2715.75065249563
0.105860923616423,2715.76065249562
0.0993995560425906,2715.77065249563
0.0925932564729787,2715.78065249562
0.0863681047070424,2715.79065249563
0.0796816807007188,2715.80065249562
0.0726360012074948,2715.81065249563
0.0649821729744017,2715.82065249562
0.0570480169509305,2715.83065249563
0.0496184175874241,2715.84065249562
0.0429744508580116,2715.85065249563
0.037120288374709,2715.86065249562
0.0329314171766121,2715.87065249563
0.0325438444132149,2715.88065249562
0.0374922849784759,2715.89065249563
0.0498299717727224,2715.90065249562
0.0699008011788571,2715.91065249563
0.0988967085862343,2715.92065249562
0.135360638760614,2715.93065249563
0.177564254435829,2715.94065249563
0.223690372416266,2715.95065249563
0.271384950152369,2715.96065249563
0.317421856280937,2715.97065249563
0.359916372157243,2715.98065249563
0.396660498078738,2715.99065249562
0.426504459525449,2716.00065249563
0.449258905646285,2716.01065249562
0.465665117701594,2716.02065249563
0.476991217834837,2716.03065249562
0.484807831764175,2716.04065249563
0.490091422908996,2716.05065249562
0.493586369093113,2716.06065249563
0.496210424072683,2716.07065249562
0.498786201152424,2716.08065249563
0.501711574292116,2716.09065249562
0.505433829137851,2716.10065249563
0.510562014925776,2716.11065249562
0.516752707992518,2716.12065249563
0.523184215752444,2716.13065249562
0.529498229457212,2716.14065249563
0.53446678844177,2716.15065249562
0.537621567566165,2716.16065249563
0.537605014222317,2716.17065249562
0.534559503490447,2716.18065249563
0.528757271684501,2716.19065249563
0.520340340406978,2716.20065249563
0.510395343161195,2716.21065249563
0.498796170967636,2716.22065249563
0.486941459530351,2716.23065249563
0.474874645045682,2716.24065249562
0.462676438882322,2716.25065249563
0.451697332998171,2716.26065249562
0.442799022417718,2716.27065249563
0.436193709935371,2716.28065249562
0.431276173996538,2716.29065249563
0.427788356772485,2716.30065249562
0.425494483724436,2716.31065249563
0.424075054242298,2716.32065249562
0.423107775605244,2716.33065249563
0.422560225105782,2716.34065249562
0.421753130212718,2716.35065249563
0.420368037524893,2716.36065249562
0.417814749676105,2716.37065249563
0.414014913718542,2716.38065249562
0.408622125104568,2716.39065249563
0.402819814839402,2716.40065249562
0.39582179426988,2716.41065249563
0.387875846017479,2716.42065249562
0.379510208241654,2716.43065249563
0.370944324373186,2716.44065249563
0.362502237431783,2716.45065249563
0.354024420370025,2716.46065249563
0.345803854893326,2716.47065249563
0.337508982349027,2716.48065249563
0.328896693406907,2716.49065249562
0.319784547249159,2716.50065249563
0.309851890654548,2716.51065249562
0.299679934385993,2716.52065249563
0.289682434866688,2716.53065249562
0.278958637693123,2716.54065249563
0.268274092432962,2716.55065249562
0.257238830127064,2716.56065249563
0.246359285558011,2716.57065249562
0.23602378344269,2716.58065249563
0.226196924238421,2716.59065249562
0.217408609292112,2716.60065249563
0.2088650353073,2716.61065249562
0.200136674194215,2716.62065249563
0.1908709562876,2716.63065249562
0.18137816721803,2716.64065249563
0.170650123543841,2716.65065249562
0.160150430057918,2716.66065249563
0.149301306038211,2716.67065249562
0.139170890371127,2716.68065249563
0.129587442047668,2716.69065249563
0.120617805015854,2716.70065249563
0.112541446046936,2716.71065249563
0.104732191277677,2716.72065249563
0.0970199853278085,2716.73065249563
0.0890531999624744,2716.74065249562
0.0809225124454945,2716.75065249563
0.0724095971144589,2716.76065249562
0.0630155722014908,2716.77065249563
0.0534328472018988,2716.78065249562
0.0440511339478353,2716.79065249563
0.0353045704206657,2716.80065249562
0.027975770997332,2716.81065249563
0.0208033507176527,2716.82065249562
0.0134177395460351,2716.83065249563
0.00582335410700781,2716.84065249562
-0.00201798541942685,2716.85065249563
-0.0101220787619954,2716.86065249562
-0.0185748952996762,2716.87065249563
-0.0275214561729082,2716.88065249562
-0.0366086404559289,2716.89065249563
-0.0460937805551552,2716.90065249562
-0.0553676167088619,2716.91065249563
-0.0642818845226272,2716.92065249562
-0.0723311607298552,2716.93065249563
-0.0792907460907538,2716.94065249563
-0.0840367862887315,2716.95065249563
-0.0849576253375738,2716.96065249563
-0.0808157703223972,2716.97065249563
-0.069487405465868,2716.98065249563
-0.0500916674098888,2716.99065249562
-0.0225139550901585,2717.00065249563
0.0125690581003082,2717.01065249562
0.0537916450236283,2717.02065249563
0.0978506415997696,2717.03065249562
0.142924352821715,2717.04065249563
0.185434244956515,2717.05065249562
0.224068758591376,2717.06065249563
0.257024165054718,2717.07065249562
0.283187158345079,2717.08065249563
0.302463925992949,2717.09065249562
0.315431485141618,2717.10065249563
0.322967274551601,2717.11065249562
0.326373041376297,2717.12065249563
0.326539639568599,2717.13065249562
0.325101191495554,2717.14065249563
0.323078946237813,2717.15065249562
0.321225856647046,2717.16065249563
0.320095579901125,2717.17065249562
0.320024845873701,2717.18065249563
0.320399446518344,2717.19065249563
0.32146706576786,2717.20065249563
0.323215972022257,2717.21065249563
0.324562045487008,2717.22065249563
0.325099478084035,2717.23065249563
0.324292760642019,2717.24065249562
0.320768541707093,2717.25065249563
0.314670808310927,2717.26065249562
0.306941633704606,2717.27065249563
0.298461677060366,2717.28065249562
0.289594747930074,2717.29065249563
0.280436727173998,2717.30065249562
0.271964797279143,2717.31065249563
0.264381423766419,2717.32065249562
0.258941583896132,2717.33065249563
0.254505443708878,2717.34065249562
0.251719715156461,2717.35065249563
0.250492487081497,2717.36065249562
0.249937483219294,2717.37065249563
0.249835243895879,2717.38065249562
0.250023791779533,2717.39065249563
0.249907530684933,2717.40065249562
0.248953268850507,2717.41065249563
0.247661783068755,2717.42065249562
0.244537456030825,2717.43065249563
0.241257090512938,2717.44065249563
0.236860898323117,2717.45065249563
0.23181052173135,2717.46065249563
0.226760984503131,2717.47065249563
0.221253260461008,2717.48065249563
0.215836200459726,2717.49065249562
0.209917139877576,2717.50065249563
0.204213083669744,2717.51065249562
0.198446871409436,2717.52065249563
0.192796721115161,2717.53065249562
0.187148540887336,2717.54065249563
0.181276536701505,2717.55065249562
0.175145516170501,2717.56065249563
0.168019448746976,2717.57065249562
0.161427225156324,2717.58065249563
0.154801922340741,2717.59065249562
0.148557943491023,2717.60065249563
0.142208437127697,2717.61065249562
0.135381863193989,2717.62065249563
0.127582836934181,2717.63065249562
0.119013192326345,2717.64065249563
0.110164399798239,2717.65065249562
0.101852343602843,2717.66065249563
0.0935207793926757,2717.67065249562
0.0861559212950571,2717.68065249563
0.0787942163636691,2717.69065249563
0.0717857984724409,2717.70065249563
0.0648503657165608,2717.71065249563
0.058390859866268,2717.72065249563
0.0520052333960523,2717.73065249563
0.0455988910567262,2717.74065249562
0.0387599494697245,2717.75065249563
0.0321244738361386,2717.76065249562
0.0251512464516046,2717.77065249563
0.0174203946655703,2717.78065249562
0.0100218186709479,2717.79065249563
0.0023673666870785,2717.80065249562
-0.00493007781835691,2717.81065249563
-0.0120412592235694,2717.82065249562
-0.0192123038079942,2717.83065249563
-0.0263158381318252,2717.84065249562
-0.0337173466961158,2717.85065249563
-0.0412665868957955,2717.86065249562
-0.0486577366390701,2717.87065249563
-0.0558416330341089,2717.88065249562
-0.0626296213633096,2717.89065249563
-0.0687634528292916,2717.90065249562
-0.0752314091871092,2717.91065249563
-0.0810245571141567,2717.92065249562
-0.0865129913328246,2717.93065249563
-0.0916484227843823,2717.94065249563
-0.095525424701784,2717.95065249563
-0.0956567489146487,2717.96065249563
-0.0911770552604495,2717.97065249563
-0.08035504717399,2717.98065249563
-0.0621969048429705,2717.99065249562
-0.0362878335722475,2718.00065249563
-0.00267827794881731,2718.01065249562
0.0375541967771681,2718.02065249563
0.0821173150212732,2718.03065249562
0.12914488609873,2718.04065249563
0.176247610211878,2718.05065249562
0.22114620355571,2718.06065249563
0.261493650720551,2718.07065249562
0.295957797465677,2718.08065249563
0.324149539004449,2718.09065249562
0.345414728960045,2718.10065249563
0.360438543369991,2718.11065249562
0.37020184363594,2718.12065249563
0.375414950154357,2718.13065249562
0.37810443626841,2718.14065249563
0.379379470187504,2718.15065249562
0.379790005143164,2718.16065249563
0.380954542707088,2718.17065249562
0.382707955291834,2718.18065249563
0.385263184459027,2718.19065249563
0.388931282580147,2718.20065249563
0.393770549542887,2718.21065249563
0.397767124216728,2718.22065249563
0.401967365684809,2718.23065249563
0.404793207076463,2718.24065249562
0.405428561448761,2718.25065249563
0.403481619896811,2718.26065249562
0.398515551089666,2718.27065249563
0.390523876711348,2718.28065249562
0.380981839233087,2718.29065249563
0.370510355144576,2718.30065249562
0.360315139471337,2718.31065249563
0.35119275808946,2718.32065249562
0.343611730865901,2718.33065249563
0.337560374167267,2718.34065249562
0.333215437152506,2718.35065249563
0.33039291152597,2718.36065249562
0.328852756655306,2718.37065249563
0.328288772117925,2718.38065249562
0.327881149520042,2718.39065249563
0.327740978101581,2718.40065249562
0.327426042487168,2718.41065249563
0.326949987764585,2718.42065249562
0.326329831107773,2718.43065249563
0.325082790578547,2718.44065249563
0.323511583496303,2718.45065249563
0.320580863566403,2718.46065249563
0.316414185160778,2718.47065249563
0.310875254386164,2718.48065249563
0.304040645905896,2718.49065249562
0.296617823230926,2718.50065249563
0.288737893971215,2718.51065249562
0.280857611432409,2718.52065249563
0.273329234933455,2718.53065249562
0.266406458371139,2718.54065249563
0.259179504018554,2718.55065249562
0.252213122355282,2718.56065249563
0.24482595194005,2718.57065249562
0.237511900863449,2718.58065249563
0.229973550934091,2718.59065249562
0.222663919848512,2718.60065249563
0.215269935560893,2718.61065249562
0.20754758636587,2718.62065249563
0.199694601244634,2718.63065249562
0.190883753363049,2718.64065249563
0.181703539983586,2718.65065249562
0.172697575157814,2718.66065249563
0.162753489333267,2718.67065249562
0.152670577396675,2718.68065249563
0.142730425617409,2718.69065249563
0.133091066348396,2718.70065249563
0.124524546751561,2718.71065249563
0.116918631062373,2718.72065249563
0.109934225857045,2718.73065249563
0.10328948731073,2718.74065249562
0.0966083228515281,2718.75065249563
0.0893881469907813,2718.76065249562
0.0820088974258897,2718.77065249563
0.0745526052131072,2718.78065249562
0.0666377372687602,2718.79065249563
0.0581943265148691,2718.80065249562
0.0494322282486916,2718.81065249563
0.0407147668220477,2718.82065249562
0.0324885728487594,2718.83065249563
0.0244820967067466,2718.84065249562
0.0173509570634626,2718.85065249563
0.0103805094977133,2718.86065249562
0.00346569902971069,2718.87065249563
-0.0032991308603449,2718.88065249562
-0.01060243608193,2718.89065249563
-0.0178187727005671,2718.90065249562
-0.0246081825361966,2718.91065249563
-0.0313323586535522,2718.92065249562
-0.037912759819642,2718.93065249563
-0.0445027376287963,2718.94065249563
-0.05118630429824,2718.95065249563
-0.058489691450526,2718.96065249563
-0.0658837309158579,2718.97065249563
-0.0738140795381919,2718.98065249563
-0.0821591380381379,2718.99065249562
-0.0901896874008912,2719.00065249563
-0.0975245595443576,2719.01065249562
-0.102719633821901,2719.02065249563
-0.104035611300678,2719.03065249562
-0.0998891899477769,2719.04065249563
-0.0883136390278585,2719.05065249562
-0.0681732550316094,2719.06065249563
-0.039622903760756,2719.07065249562
-0.0021889249395136,2719.08065249563
0.0420591757724498,2719.09065249562
0.0915497242513013,2719.10065249563
0.144336217963534,2719.11065249562
0.197966202206005,2719.12065249563
0.248669884630757,2719.13065249562
0.294802942821593,2719.14065249563
0.333695111599301,2719.15065249562
0.365371349252802,2719.16065249563
0.389059285834583,2719.17065249562
0.405331609786729,2719.18065249563
0.415343925783713,2719.19065249563
0.420617808711801,2719.20065249563
0.422931556308173,2719.21065249563
0.423300524668571,2719.22065249563
0.423465768194517,2719.23065249563
0.424254723290859,2719.24065249562
0.426712440569228,2719.25065249563
0.429509919014879,2719.26065249562
0.433701245205022,2719.27065249563
0.437959955735528,2719.28065249562
0.442485775501643,2719.29065249563
0.445894711244819,2719.30065249562
0.446923426335915,2719.31065249563
0.4450849969077,2719.32065249562
0.440352400814015,2719.33065249563
0.432532038178961,2719.34065249562
0.421979670204999,2719.35065249563
0.409665500365785,2719.36065249562
0.396483965253894,2719.37065249563
0.383255994687271,2719.38065249562
0.370201824776039,2719.39065249563
0.35745686900251,2719.40065249562
0.345312626751973,2719.41065249563
0.33459957059262,2719.42065249562
0.325547004417811,2719.43065249563
0.318384671843468,2719.44065249563
0.312820086447738,2719.45065249563
0.308425813045602,2719.46065249563
0.305217269349327,2719.47065249563
0.302306531973511,2719.48065249563
0.300216256322216,2719.49065249562
0.297140986212992,2719.50065249563
0.294124662156058,2719.51065249562
0.290464845097891,2719.52065249563
0.285575359730881,2719.53065249562
0.279991377211982,2719.54065249563
0.273651365108327,2719.55065249562
0.266676503859615,2719.56065249563
0.259658423666512,2719.57065249562
0.25219503128684,2719.58065249563
0.24461278994073,2719.59065249562
0.236660104939671,2719.60065249563
0.228246798538235,2719.61065249562
0.219682715747332,2719.62065249563
0.209996918334075,2719.63065249562
0.199735563768099,2719.64065249563
0.189163184999434,2719.65065249562
0.177938818595142,2719.66065249563
0.167621189735625,2719.67065249562
0.157458284265104,2719.68065249563
0.147437332497173,2719.69065249563
0.137680717382841,2719.70065249563
0.128146304862559,2719.71065249563
0.118796892080966,2719.72065249563
0.109678309430794,2719.73065249563
0.100525317168972,2719.74065249562
0.0912513872219342,2719.75065249563
0.0816536035341364,2719.76065249562
0.0716636476614119,2719.77065249563
0.0611185422341529,2719.78065249562
0.0512152439208137,2719.79065249563
0.0411039027988496,2719.80065249562
0.0314514128174629,2719.81065249563
0.0220725747282874,2719.82065249562
0.0133287645949326,2719.83065249563
0.00437807712935704,2719.84065249562
-0.00448124372549853,2719.85065249563
-0.0136544379994113,2719.86065249562
-0.022611719886787,2719.87065249563
-0.0314928168966591,2719.88065249562
-0.0401105758933819,2719.89065249563
-0.0487699694513403,2719.90065249562
-0.0577397554110726,2719.91065249563
-0.0667307256252388,2719.92065249562
-0.0752842106495609,2719.93065249563
-0.0831916692573391,2719.94065249563
-0.0913394905938333,2719.95065249563
-0.0999119866156745,2719.96065249563
-0.108767704989184,2719.97065249563
-0.117464669056865,2719.98065249563
-0.126140636070387,2719.99065249562
-0.134351374584585,2720.00065249563
-0.142227584923605,2720.01065249562
-0.149730555883867,2720.02065249563
-0.156453488769345,2720.03065249562
-0.16301589175147,2720.04065249563
-0.169661159126243,2720.05065249562
-0.177001165677527,2720.06065249563
-0.185173764699592,2720.07065249562
-0.193296254683212,2720.08065249563
-0.201274453886824,2720.09065249562
-0.206804412373285,2720.10065249563
-0.208571853765061,2720.11065249562
-0.205091155120434,2720.12065249563
-0.194070415237311,2720.13065249562
-0.174363437477345,2720.14065249563
-0.145011234110143,2720.15065249562
-0.105877086760388,2720.16065249563
-0.0584323906329037,2720.17065249562
-0.00466310966785611,2720.18065249563
0.0529773571355117,2720.19065249563
0.110841342684683,2720.20065249563
0.166780772303019,2720.21065249563
0.218350810753807,2720.22065249563
0.262556779105388,2720.23065249563
0.298593770538437,2720.24065249562
0.325977084944507,2720.25065249563
0.345058175462396,2720.26065249562
0.356880316337658,2720.27065249563
0.363203403472937,2720.28065249562
0.365748643881749,2720.29065249563
0.366269109798455,2720.30065249562
0.365804768420256,2720.31065249563
0.364943511310472,2720.32065249562
0.365310556233642,2720.33065249563
0.366093003765207,2720.34065249562
0.367141245936925,2720.35065249563
0.368186218184539,2720.36065249562
0.368645827277083,2720.37065249563
0.367462915008521,2720.38065249562
0.364669623865781,2720.39065249563
0.35949937259055,2720.40065249562
0.352154432085528,2720.41065249563
0.343322993691662,2720.42065249562
0.333870944241053,2720.43065249563
0.324052313223283,2720.44065249563
0.314887024571001,2720.45065249563
0.3068466352821,2720.46065249563
0.299948056083002,2720.47065249563
0.293851576776495,2720.48065249563
0.288978837767043,2720.49065249562
0.285572863144475,2720.50065249563
0.283834347974592,2720.51065249562
0.283392357149928,2720.52065249563
0.284105144808719,2720.53065249562
0.285109181121237,2720.54065249563
0.28666107708608,2720.55065249562
0.287716340373776,2720.56065249563
0.287929923803129,2720.57065249562
0.286811159032696,2720.58065249563
0.284021770174931,2720.59065249562
0.280484412747679,2720.60065249563
0.275401312180182,2720.61065249562
0.269906645563637,2720.62065249563
0.26447034954414,2720.63065249562
0.258647509799422,2720.64065249563
0.252475810967512,2720.65065249562
0.246395211223922,2720.66065249563
0.23994105286081,2720.67065249562
0.233824339292827,2720.68065249563
0.227247557811154,2720.69065249563
0.221388093248477,2720.70065249563
0.215346895893297,2720.71065249563
0.209096833477234,2720.72065249563
0.203208242197282,2720.73065249563
0.196953234124141,2720.74065249562
0.190436967779122,2720.75065249563
0.18357860563747,2720.76065249562
0.176457139489604,2720.77065249563
0.169138522111188,2720.78065249562
0.161796931832024,2720.79065249563
0.154512058687618,2720.80065249562
0.147434137299143,2720.81065249563
0.139377262719735,2720.82065249562
0.130836729368582,2720.83065249563
0.121571860696475,2720.84065249562
0.112515731608304,2720.85065249563
0.103161631196008,2720.86065249562
0.0937653706018429,2720.87065249563
0.0848218262221679,2720.88065249562
0.07601645358216,2720.89065249563
0.0669009753130756,2720.90065249562
0.0572657390023919,2720.91065249563
0.0476321808795345,2720.92065249562
0.0375398981128651,2720.93065249563
0.0273809361557817,2720.94065249563
0.0173748241759308,2720.95065249563
0.00801067110229994,2720.96065249563
-0.000923574511264829,2720.97065249563
-0.00974743362466825,2720.98065249563
-0.0180754267654593,2720.99065249562
-0.0269031364787271,2721.00065249563
-0.0356126346218802,2721.01065249562
-0.0445232531334928,2721.02065249563
-0.053196973577998,2721.03065249562
-0.0619646552640979,2721.04065249563
-0.0707354143841171,2721.05065249562
-0.0793771603510391,2721.06065249563
-0.0881661355289331,2721.07065249562
-0.0963117508065447,2721.08065249563
-0.104768323901748,2721.09065249562
-0.113086753858428,2721.10065249563
-0.120876229046216,2721.11065249562
-0.128367521265164,2721.12065249563
-0.134395197606614,2721.13065249562
-0.137761179724943,2721.14065249563
-0.135232046086933,2721.15065249562
-0.124325668351888,2721.16065249563
-0.10276712260079,2721.17065249562
-0.0694584548384704,2721.18065249563
-0.0242129262786297,2721.19065249563
0.0313894186820212,2721.20065249563
0.094939561107211,2721.21065249563
0.163069285580282,2721.22065249563
0.232558092029177,2721.23065249563
0.299247524903083,2721.24065249562
0.360571438708903,2721.25065249563
0.414160487994225,2721.26065249562
0.458722663022284,2721.27065249563
0.494186519595874,2721.28065249562
0.520777584672129,2721.29065249563
0.539230292387732,2721.30065249562
0.551720247386613,2721.31065249563
0.559462769468615,2721.32065249562
0.564793282968392,2721.33065249563
0.568949558965171,2721.34065249562
0.572987814212116,2721.35065249563
0.57730734195085,2721.36065249562
0.582733980773309,2721.37065249563
0.588948712463489,2721.38065249562
0.595636268548664,2721.39065249563
0.602826010318903,2721.40065249562
0.610004590426945,2721.41065249563
0.616066347976313,2721.42065249562
0.620395532490699,2721.43065249563
0.622409439227833,2721.44065249563
0.620831861766967,2721.45065249563
0.615662573423994,2721.46065249563
0.607431817765583,2721.47065249563
0.597020657763749,2721.48065249563
0.584989322250076,2721.49065249562
0.572239089518352,2721.50065249563
0.559818194740082,2721.51065249562
0.5481620682667,2721.52065249563
0.537077587546866,2721.53065249562
0.528704481783881,2721.54065249563
0.521566407992389,2721.55065249562
0.516236555363925,2721.56065249563
0.512386671277327,2721.57065249562
0.509653956938567,2721.58065249563
0.507977322727222,2721.59065249562
0.506949804498746,2721.60065249563
0.506424343742827,2721.61065249562
0.505741928541831,2721.62065249563
0.504567184109754,2721.63065249562
0.502172545668081,2721.64065249563
0.498524531479794,2721.65065249562
0.492979096896411,2721.66065249563
0.485412598351809,2721.67065249562
0.476947224910319,2721.68065249563
0.467798856958417,2721.69065249563
0.457967393316243,2721.70065249563
0.448558129209299,2721.71065249563
0.438809578980893,2721.72065249563
0.428922705622663,2721.73065249563
0.41868270007456,2721.74065249562
0.408261649229013,2721.75065249563
0.397658069767453,2721.76065249562
0.386635837907181,2721.77065249563
0.37616084190676,2721.78065249562
0.365041994950936,2721.79065249563
0.353649707994243,2721.80065249562
0.342486064238856,2721.81065249563
0.331436909238042,2721.82065249562
0.319845730001911,2721.83065249563
0.308169679252122,2721.84065249562
0.296379783467224,2721.85065249563
0.284249464609084,2721.86065249562
0.272417017261207,2721.87065249563
0.260720777147409,2721.88065249562
0.248886975585725,2721.89065249563
0.237081797423097,2721.90065249562
0.225062687883984,2721.91065249563
0.213040396284554,2721.92065249562
0.200659913935328,2721.93065249563
0.188734556437243,2721.94065249563
0.176938526993682,2721.95065249563
0.165238088653132,2721.96065249563
0.153123742005345,2721.97065249563
0.140293266525334,2721.98065249563
0.126055726686855,2721.99065249562
0.109427268445963,2722.00065249563
0.0919231591923222,2722.01065249562
0.0742114651637005,2722.02065249563
0.056868429888655,2722.03065249562
0.0405796829823914,2722.04065249563
0.0248568736682439,2722.05065249562
0.0107945357784386,2722.06065249563
-0.00177649520440603,2722.07065249562
-0.0134439993913371,2722.08065249563
-0.0247094701303514,2722.09065249562
-0.0364175562922694,2722.10065249563
-0.0481357406041079,2722.11065249562
-0.0598094632002786,2722.12065249563
-0.0710944997855449,2722.13065249562
-0.081995668407822,2722.14065249563
-0.0932014173466096,2722.15065249562
-0.103258653323317,2722.16065249563
-0.113062158603473,2722.17065249562
-0.122497082567285,2722.18065249563
-0.130882985472656,2722.19065249563
-0.137213099484612,2722.20065249563
-0.13985646636617,2722.21065249563
-0.13638874830142,2722.22065249563
-0.123797299418247,2722.23065249563
-0.0991454129724612,2722.24065249562
-0.0614811839193811,2722.25065249563
-0.0110434755640488,2722.26065249562
0.0505529329856569,2722.27065249563
0.120621443482508,2722.28065249562
0.19624824373836,2722.29065249563
0.272981377676375,2722.30065249562
0.347049861507266,2722.31065249563
0.414669252655832,2722.32065249562
0.472972284954994,2722.33065249563
0.520227461956211,2722.34065249562
0.555982114216465,2722.35065249563
0.581644625452798,2722.36065249562
0.598511972757478,2722.37065249563
0.608454928918038,2722.38065249562
0.613400980927339,2722.39065249563
0.615343254005626,2722.40065249562
0.616233688283319,2722.41065249563
0.616882807648665,2722.42065249562
0.618465595749891,2722.43065249563
0.621012705730191,2722.44065249563
0.625315916128913,2722.45065249563
0.63093669353908,2722.46065249563
0.63701684452781,2722.47065249563
0.642817571970066,2722.48065249563
0.64751891193647,2722.49065249562
0.649324442284225,2722.50065249563
0.647267300264771,2722.51065249562
0.641731708957049,2722.52065249563
0.632690288515002,2722.53065249562
0.621481841386555,2722.54065249563
0.608688839388162,2722.55065249562
0.594682836269061,2722.56065249563
0.580716571264524,2722.57065249562
0.566311161637614,2722.58065249563
0.553629868336963,2722.59065249562
0.542484385420762,2722.60065249563
0.53338574753579,2722.61065249562
0.526774277505786,2722.62065249563
0.521840680898355,2722.63065249562
0.518718330685613,2722.64065249563
0.516429324288631,2722.65065249562
0.515476293586442,2722.66065249563
0.514851998224355,2722.67065249562
0.514173222198827,2722.68065249563
0.511900124787677,2722.69065249563
0.508447939257712,2722.70065249563
0.503849132646078,2722.71065249563
0.497944395741773,2722.72065249563
0.490887740472404,2722.73065249563
0.482635349372175,2722.74065249562
0.473717735862181,2722.75065249563
0.464169981019084,2722.76065249562
0.454120067310272,2722.77065249563
0.443219491910819,2722.78065249562
0.431383940225744,2722.79065249563
0.419507620446864,2722.80065249562
0.407656312814578,2722.81065249563
0.396073649726478,2722.82065249562
0.384255050505152,2722.83065249563
0.372137783335928,2722.84065249562
0.359925666073086,2722.85065249563
0.347729566023057,2722.86065249562
0.33510648693313,2722.87065249563
0.322596468684766,2722.88065249562
0.30930533487636,2722.89065249563
0.295891288744536,2722.90065249562
0.28253145810872,2722.91065249563
0.268748459987698,2722.92065249562
0.254577743050804,2722.93065249563
0.239333756320463,2722.94065249563
0.224122155531346,2722.95065249563
0.209417946706079,2722.96065249563
0.195425823519374,2722.97065249563
0.181974326815581,2722.98065249563
0.168485022452246,2722.99065249562
0.155337738739169,2723.00065249563
0.142050733803782,2723.01065249562
0.129421647345731,2723.02065249563
0.116921865779427,2723.03065249562
0.104240654590335,2723.04065249563
0.090928970310689,2723.05065249562
0.0775328138147282,2723.06065249563
0.0637239559408627,2723.07065249562
0.0501851524898356,2723.08065249563
0.0368959617057646,2723.09065249562
0.0242379090051424,2723.10065249563
0.0121113750234164,2723.11065249562
0.000420655566968144,2723.12065249563
-0.0109382869543601,2723.13065249562
-0.0226792460217962,2723.14065249563
-0.0347656902651229,2723.15065249562
-0.0471273543271065,2723.16065249563
-0.0594134506198681,2723.17065249562
-0.0722910489590309,2723.18065249563
-0.0853758811857784,2723.19065249563
-0.097796871777483,2723.20065249563
-0.109555461933299,2723.21065249563
-0.120230424133364,2723.22065249563
-0.127323347014998,2723.23065249563
-0.128655549748507,2723.24065249562
-0.121940705557668,2723.25065249563
-0.104744131923603,2723.26065249562
-0.0758078349334781,2723.27065249563
-0.0344968483202418,2723.28065249562
0.0168727894995984,2723.29065249563
0.076397872046044,2723.30065249562
0.140743099779386,2723.31065249563
0.206180265347785,2723.32065249562
0.268949075027735,2723.33065249563
0.325656771180082,2723.34065249562
0.373884274089457,2723.35065249563
0.411387596215717,2723.36065249562
0.438684281058434,2723.37065249563
0.455604165582283,2723.38065249562
0.463994678827237,2723.39065249563
0.465482247433152,2723.40065249562
0.462195510154617,2723.41065249563
0.455539868801596,2723.42065249562
0.447279150449492,2723.43065249563
0.438454084934469,2723.44065249563
0.429957320462977,2723.45065249563
0.422109896791498,2723.46065249563
0.415052327657954,2723.47065249563
0.408922572025389,2723.48065249563
0.402847727364734,2723.49065249562
0.39620774135153,2723.50065249563
0.387788448562802,2723.51065249562
0.377074913914305,2723.52065249563
0.364483323867031,2723.53065249562
0.350277625135862,2723.54065249563
0.33537134240577,2723.55065249562
0.320284523246684,2723.56065249563
0.304935993248612,2723.57065249562
0.290042691504487,2723.58065249563
0.276271782358543,2723.59065249562
0.264379574760371,2723.60065249563
0.254571524880051,2723.61065249562
0.246735361318139,2723.62065249563
0.240988620123869,2723.63065249562
0.237400388729492,2723.64065249563
0.235223338267147,2723.65065249562
0.234439504047451,2723.66065249563
0.233428810269311,2723.67065249562
0.232204561033383,2723.68065249563
0.230094391275847,2723.69065249563
0.225865310332314,2723.70065249563
0.219717189572829,2723.71065249563
0.212873222313802,2723.72065249563
0.204114447339305,2723.73065249563
0.194498446393433,2723.74065249562
0.184245217684131,2723.75065249563
0.173625424458852,2723.76065249562
0.162939034564326,2723.77065249563
0.152097270489621,2723.78065249562
0.141308612781972,2723.79065249563
0.130528865352734,2723.80065249562
0.120007584576022,2723.81065249563
0.10918716044713,2723.82065249562
0.0984364042545334,2723.83065249563
0.0875718580880375,2723.84065249562
0.0768964539005044,2723.85065249563
0.0663384203991209,2723.86065249562
0.05609261109,2723.87065249563
0.0458325351243813,2723.88065249562
0.0351821364873591,2723.89065249563
0.0241054005612093,2723.90065249562
0.0128674490153346,2723.91065249563
0.00147131956597354,2723.92065249562
-0.0104659212322453,2723.93065249563
-0.0222500916812536,2723.94065249563
-0.0339971601551795,2723.95065249563
-0.0456215257879097,2723.96065249563
-0.0573990484224356,2723.97065249563
-0.0689257651089788,2723.98065249563
-0.079872050665331,2723.99065249562
-0.0900368992366724,2724.00065249563
-0.0995596570569665,2724.01065249562
-0.109189212608272,2724.02065249563
-0.11850242960255,2724.03065249562
-0.128941401803521,2724.04065249563
-0.139478619532709,2724.05065249562
-0.149897256819009,2724.06065249563
-0.160003237565426,2724.07065249562
-0.17022670743215,2724.08065249563
-0.18073448386827,2724.09065249562
-0.191532293382095,2724.10065249563
-0.202145602143644,2724.11065249562
-0.211944400741487,2724.12065249563
-0.220610992961149,2724.13065249562
-0.226295430441038,2724.14065249563
-0.227308555521743,2724.15065249562
-0.221595004188794,2724.16065249563
-0.206081789800622,2724.17065249562
-0.178805548818038,2724.18065249563
-0.139612940710614,2724.19065249563
-0.0895884161034401,2724.20065249563
-0.0307901791864568,2724.21065249563
0.0332213109061463,2724.22065249563
0.0983643013071699,2724.23065249563
0.160872113247848,2724.24065249562
0.21706089402587,2724.25065249563
0.264866318844839,2724.26065249562
0.302931315376865,2724.27065249563
0.331388592874167,2724.28065249562
0.35037033959717,2724.29065249563
0.361005656575942,2724.30065249562
0.364055093843127,2724.31065249563
0.361850467793601,2724.32065249562
0.356145416420289,2724.33065249563
0.349076342749688,2724.34065249562
0.341768590976683,2724.35065249563
0.33540805122583,2724.36065249562
0.32963087020312,2724.37065249563
0.324566437414072,2724.38065249562
0.320415286579037,2724.39065249563
0.315890078284246,2724.40065249562
0.310754986503421,2724.41065249563
0.303862843151316,2724.42065249562
0.295126423339377,2724.43065249563
0.284332411313697,2724.44065249563
0.271787797494854,2724.45065249563
0.258602217174252,2724.46065249563
0.245007450688441,2724.47065249563
0.231800705931381,2724.48065249563
0.21983616092193,2724.49065249562
0.209921409142012,2724.50065249563
0.202669020142105,2724.51065249562
0.19834989057024,2724.52065249563
0.19609275944464,2724.53065249562
0.19598392310866,2724.54065249563
0.197243303701564,2724.55065249562
0.19904693404987,2724.56065249563
0.201319492762274,2724.57065249562
0.202525315039974,2724.58065249563
0.202776965273845,2724.59065249562
0.200958025130613,2724.60065249563
0.197347633663704,2724.61065249562
0.19195516547788,2724.62065249563
0.18551170459403,2724.63065249562
0.178194624164574,2724.64065249563
0.17054704548076,2724.65065249562
0.161993456564626,2724.66065249563
0.153440705752379,2724.67065249562
0.144937813522894,2724.68065249563
0.135983796965457,2724.69065249563
0.127270132172202,2724.70065249563
0.118321084448256,2724.71065249563
0.109634351457679,2724.72065249563
0.101269940363562,2724.73065249563
0.0923864768818611,2724.74065249562
0.083889518084696,2724.75065249563
0.0746875504405492,2724.76065249562
0.0654670395651788,2724.77065249563
0.0561070297285757,2724.78065249562
0.0470120178260371,2724.79065249563
0.0375528586893042,2724.80065249562
0.0278560828223371,2724.81065249563
0.0179377156842564,2724.82065249562
0.00802386872584884,2724.83065249563
-0.00190636392400766,2724.84065249562
-0.0118055446957254,2724.85065249563
-0.021306577173902,2724.86065249562
-0.030379015710015,2724.87065249563
-0.039193062310857,2724.88065249562
-0.0479126051405587,2724.89065249563
-0.0564607964320084,2724.90065249562
-0.0648485088983753,2724.91065249563
-0.0734713599341529,2724.92065249562
-0.0822156881263657,2724.93065249563
-0.090570896026709,2724.94065249563
-0.099440939478893,2724.95065249563
-0.108718011476973,2724.96065249563
-0.118656379500524,2724.97065249563
-0.128954788257001,2724.98065249563
-0.138253109472948,2724.99065249562
-0.145339219755878,2725.00065249563
-0.148168838824678,2725.01065249562
-0.143821996953112,2725.02065249563
-0.130551686779116,2725.03065249562
-0.106040823470452,2725.04065249563
-0.0698500070938988,2725.05065249562
-0.0225125132800745,2725.06065249563
0.034627822757365,2725.07065249562
0.0974185599463661,2725.08065249563
0.16313129657664,2725.09065249562
0.228744503150582,2725.10065249563
0.289979609913251,2725.11065249562
0.344662807218485,2725.12065249563
0.390052380784604,2725.13065249562
0.424505083176393,2725.14065249563
0.448894644224339,2725.15065249562
0.463950338305869,2725.16065249563
0.471999851992733,2725.17065249562
0.474961316390775,2725.18065249563
0.474793374937226,2725.19065249563
0.472764880075859,2725.20065249563
0.470077865233675,2725.21065249563
0.467860969258837,2725.22065249563
0.46714915855563,2725.23065249563
0.467806055959855,2725.24065249562
0.469925940341207,2725.25065249563
0.472661190687465,2725.26065249562
0.4750716117342,2725.27065249563
0.475862625596695,2725.28065249562
0.474767048692741,2725.29065249563
0.470494577659567,2725.30065249562
0.462890691063933,2725.31065249563
0.453220514003337,2725.32065249562
0.441258465537855,2725.33065249563
0.427937387011684,2725.34065249562
0.414129969107325,2725.35065249563
0.399299427972471,2725.36065249562
0.38495818162428,2725.37065249563
0.372231414225013,2725.38065249562
0.361429325966294,2725.39065249563
0.353116938181298,2725.40065249562
0.347421070627834,2725.41065249563
0.344107986245778,2725.42065249562
0.342968314934119,2725.43065249563
0.342883721643357,2725.44065249563
0.343480682936084,2725.45065249563
0.343812585642338,2725.46065249563
0.34300052175793,2725.47065249563
0.340902137841226,2725.48065249563
0.337011915090391,2725.49065249562
0.332548000696296,2725.50065249563
0.326859664851741,2725.51065249562
0.32000140423785,2725.52065249563
0.311974152454242,2725.53065249562
0.303238380526589,2725.54065249563
0.293909848975008,2725.55065249562
0.284449293230094,2725.56065249563
0.275243912440628,2725.57065249562
0.2651659965303,2725.58065249563
0.255158815895098,2725.59065249562
0.24482449162722,2725.60065249563
0.23526107846288,2725.61065249562
0.22613990683723,2725.62065249563
0.216819863070665,2725.63065249562
0.207853016316226,2725.64065249563
0.198875354687966,2725.65065249562
0.189780958987209,2725.66065249563
0.180581095543087,2725.67065249562
0.170740598419866,2725.68065249563
