PPG,time
-0.170138514158508,3170.32537998916
-0.344285934834094,3170.33537998916
-0.314384817368478,3170.34537998916
-0.345736566972699,3170.35537998916
-0.341896916364993,3170.36537998916
-0.359278021407584,3170.37537998916
-0.362136145660466,3170.38537998916
-0.374094910865327,3170.39537998916
-0.379456518235438,3170.40537998916
-0.384754617443116,3170.41537998916
-0.382891615924745,3170.42537998916
-0.372926492448363,3170.43537998916
-0.353490171953644,3170.44537998916
-0.324140872385557,3170.45537998916
-0.286647726320152,3170.46537998916
-0.243752076639952,3170.47537998916
-0.198513273339569,3170.48537998916
-0.153631092002103,3170.49537998916
-0.111007637490482,3170.50537998916
-0.0720011249288614,3170.51537998916
-0.0376739458461366,3170.52537998916
-0.00835645462595163,3170.53537998916
0.0160573035984954,3170.54537998916
0.0355914944908855,3170.55537998916
0.0504365361914792,3170.56537998916
0.0623446703265194,3170.57537998916
0.0715866192458257,3170.58537998916
0.0790310862151706,3170.59537998916
0.0846696991200432,3170.60537998916
0.0894198979774264,3170.61537998916
0.0923396360171299,3170.62537998916
0.0945527071025767,3170.63537998916
0.0962612875771939,3170.64537998916
0.0968332978010836,3170.65537998916
0.0975317649430142,3170.66537998916
0.0968608861489719,3170.67537998916
0.0951710468622979,3170.68537998916
0.0919835972393136,3170.69537998916
0.0869187234738684,3170.70537998916
0.0812496761542197,3170.71537998916
0.0749935294889418,3170.72537998916
0.0690890331743922,3170.73537998916
0.0642966856745415,3170.74537998916
0.0607439397226347,3170.75537998916
0.0591294409542891,3170.76537998916
0.0586470825067206,3170.77537998916
0.0586693028566742,3170.78537998916
0.0589977355784861,3170.79537998916
0.0596670759399063,3170.80537998916
0.0598600266409726,3170.81537998916
0.0598713989916632,3170.82537998916
0.0588839187385038,3170.83537998916
0.0576758137265258,3170.84537998916
0.0560440835002661,3170.85537998916
0.0533389978806805,3170.86537998916
0.0498409460361927,3170.87537998916
0.0457485993995045,3170.88537998916
0.041315842659789,3170.89537998916
0.0351648486405819,3170.90537998916
0.0285009183854816,3170.91537998916
0.0215801090361186,3170.92537998916
0.0142150688786143,3170.93537998916
0.00686615603050021,3170.94537998916
-0.000926652231091741,3170.95537998916
-0.00863510611791708,3170.96537998916
-0.0162619620465386,3170.97537998916
-0.0240595501744208,3170.98537998916
-0.0323639379397162,3170.99537998916
-0.0407185632440233,3171.00537998916
-0.0491371381706151,3171.01537998916
-0.0577958516102297,3171.02537998916
-0.0664836084274821,3171.03537998916
-0.0754132174332791,3171.04537998916
-0.0849804796274316,3171.05537998916
-0.0945966653202239,3171.06537998916
-0.103826167937584,3171.07537998916
-0.11228973686727,3171.08537998916
-0.120545844526539,3171.09537998916
-0.129105904853059,3171.10537998916
-0.138693553405104,3171.11537998916
-0.148677971355195,3171.12537998916
-0.159413163186246,3171.13537998916
-0.170039053315009,3171.14537998916
-0.180644897674852,3171.15537998916
-0.190325527449554,3171.16537998916
-0.19762369287704,3171.17537998916
-0.200957283832385,3171.18537998916
-0.197302173028188,3171.19537998916
-0.185309577761221,3171.20537998916
-0.162176648864565,3171.21537998916
-0.129084691423059,3171.22537998916
-0.0875071038562674,3171.23537998916
-0.0398928546327234,3171.24537998916
0.011140460626727,3171.25537998916
0.0618526161952802,3171.26537998916
0.110322952870039,3171.27537998916
0.154698883634059,3171.28537998916
0.192880920922333,3171.29537998916
0.224893444364137,3171.30537998916
0.251030999438662,3171.31537998916
0.272449035494364,3171.32537998916
0.290227950133809,3171.33537998916
0.304994297943758,3171.34537998916
0.317501183029486,3171.35537998916
0.328008628620118,3171.36537998916
0.33726111659761,3171.37537998916
0.345216222715104,3171.38537998916
0.351499924888428,3171.39537998916
0.357354676806007,3171.40537998916
0.361791369537621,3171.41537998916
0.365459984999595,3171.42537998916
0.36856279144935,3171.43537998916
0.370146920370052,3171.44537998916
0.370107167530381,3171.45537998916
0.367664110409901,3171.46537998916
0.363216079299867,3171.47537998916
0.356876096521098,3171.48537998916
0.349702284361315,3171.49537998916
0.341986083790833,3171.50537998916
0.33441297604696,3171.51537998916
0.327607824066894,3171.52537998916
0.322488910046956,3171.53537998916
0.317824034171802,3171.54537998916
0.314152055844119,3171.55537998916
0.310502757059528,3171.56537998916
0.308396499498613,3171.57537998916
0.30683649048587,3171.58537998916
0.305068311745463,3171.59537998916
0.303637842270749,3171.60537998916
0.301783188752264,3171.61537998916
0.299092907902209,3171.62537998916
0.295097825806437,3171.63537998916
0.290052372900136,3171.64537998916
0.2837190258421,3171.65537998916
0.276891882981759,3171.66537998916
0.26981559511629,3171.67537998916
0.262251644916011,3171.68537998916
0.254445149356787,3171.69537998916
0.246603091221168,3171.70537998916
0.238299419782402,3171.71537998916
0.229731715043371,3171.72537998916
0.221071040430857,3171.73537998916
0.211772024223002,3171.74537998916
0.202245852418483,3171.75537998916
0.191990605188512,3171.76537998916
0.181786915356597,3171.77537998916
0.171112754109039,3171.78537998916
0.160154909257516,3171.79537998916
0.149225746053633,3171.80537998916
0.138495615632456,3171.81537998916
0.127697989544876,3171.82537998916
0.117158271825135,3171.83537998916
0.106742219958144,3171.84537998916
0.0963931306612795,3171.85537998916
0.0862467380629486,3171.86537998916
0.0757930338846242,3171.87537998916
0.0652284648250228,3171.88537998916
0.0539670137049817,3171.89537998916
0.0428262403108066,3171.90537998916
0.0307557204799885,3171.91537998916
0.0181894062549955,3171.92537998916
0.00572475243396816,3171.93537998916
-0.00616254513600965,3171.94537998916
-0.0184130709753282,3171.95537998916
-0.0300329202611558,3171.96537998916
-0.0405330250392353,3171.97537998916
-0.0490554882611406,3171.98537998916
-0.0524848853693734,3171.99537998916
-0.0488031153005213,3172.00537998916
-0.0346529063065166,3172.01537998916
-0.00870887466362601,3172.02537998916
0.0275836247603458,3172.03537998916
0.072543169128972,3172.04537998916
0.123322664866822,3172.05537998916
0.176298746956897,3172.06537998916
0.229743989342846,3172.07537998916
0.279520462172196,3172.08537998916
0.32477240556673,3172.09537998916
0.364796089309395,3172.10537998916
0.398785147704853,3172.11537998916
0.42655034122314,3172.12537998916
0.44874654414071,3172.13537998916
0.466385463892142,3172.14537998916
0.48039621600628,3172.15537998916
0.491610039857375,3172.16537998916
0.500508453096333,3172.17537998916
0.507926440700416,3172.18537998916
0.51424270147223,3172.19537998916
0.519417478410336,3172.20537998916
0.523843948033603,3172.21537998916
0.52783474580253,3172.22537998916
0.53165327634866,3172.23537998916
0.534993233098634,3172.24537998916
0.536411366477591,3172.25537998916
0.536299399483645,3172.26537998916
0.533409921423921,3172.27537998916
0.527579794693757,3172.28537998916
0.519293364127689,3172.29537998916
0.509471618094815,3172.30537998916
0.499119297069026,3172.31537998916
0.488294275865915,3172.32537998916
0.478520581756152,3172.33537998916
0.469429986939446,3172.34537998916
0.46123171831287,3172.35537998916
0.454294712548098,3172.36537998916
0.44862204070185,3172.37537998916
0.444062986548706,3172.38537998916
0.439905207819473,3172.39537998916
0.43563431192861,3172.40537998916
0.430950089974439,3172.41537998916
0.426407804069439,3172.42537998916
0.421401012915463,3172.43537998916
0.416143370540205,3172.44537998916
0.409745885481072,3172.45537998916
0.402947075812166,3172.46537998916
0.395925813252328,3172.47537998916
0.387798207160563,3172.48537998916
0.37921516955845,3172.49537998916
0.370690792732392,3172.50537998916
0.361482181338888,3172.51537998916
0.352163395341212,3172.52537998916
0.341834502248096,3172.53537998916
0.330369234445258,3172.54537998916
0.318666911337425,3172.55537998916
0.306267023542178,3172.56537998916
0.294460734085043,3172.57537998916
0.282860957293765,3172.58537998916
0.271773675033448,3172.59537998916
0.260735231037851,3172.60537998916
0.249668689212366,3172.61537998916
0.237932943356325,3172.62537998916
0.225371300346326,3172.63537998916
0.212772832543606,3172.64537998916
0.200214777884333,3172.65537998916
0.187253304017827,3172.66537998916
0.174875949499576,3172.67537998916
0.162419963247027,3172.68537998916
0.149496771720267,3172.69537998916
0.136691035674368,3172.70537998916
0.12286423832106,3172.71537998916
0.108757380868367,3172.72537998916
0.0940264172617605,3172.73537998916
0.0795681219422698,3172.74537998916
0.0656620826732916,3172.75537998916
0.0522098853403086,3172.76537998916
0.0389265044057698,3172.77537998916
0.0256864753971693,3172.78537998916
0.0120969476310705,3172.79537998916
-0.000735070142560998,3172.80537998916
-0.0119555344613168,3172.81537998916
-0.0197568928230418,3172.82537998916
-0.0207224169390201,3172.83537998916
-0.0133284453861898,3172.84537998916
0.00488055206014887,3172.85537998916
0.0335302358066882,3172.86537998916
0.0724415288765375,3172.87537998916
0.118358046810477,3172.88537998916
0.168761204890181,3172.89537998916
0.22002460284465,3172.90537998916
0.269260927090455,3172.91537998916
0.314165696604226,3172.92537998916
0.352883600513598,3172.93537998916
0.384995813257991,3172.94537998916
0.410677490470023,3172.95537998916
0.430670405948549,3172.96537998916
0.445662472485712,3172.97537998916
0.456928623527351,3172.98537998916
0.465422469431585,3172.99537998916
0.471927587007173,3173.00537998916
0.47596221210686,3173.01537998916
0.479007559067906,3173.02537998916
0.480516983482244,3173.03537998916
0.481694322451696,3173.04537998916
0.482728780650558,3173.05537998916
0.483220656293414,3173.06537998916
0.483241895067709,3173.07537998916
0.481387537833138,3173.08537998916
0.477977845720263,3173.09537998916
0.47236611461456,3173.10537998916
0.464764816566843,3173.11537998916
0.455437379160564,3173.12537998916
0.444593218775764,3173.13537998916
0.432992706903302,3173.14537998916
0.421013900179839,3173.15537998916
0.410022891728144,3173.16537998916
0.399956881833729,3173.17537998916
0.391095082789991,3173.18537998916
0.383453716448837,3173.19537998916
0.376492948458193,3173.20537998916
0.370451244433149,3173.21537998916
0.364494985357883,3173.22537998916
0.359376854991663,3173.23537998916
0.354430668524963,3173.24537998916
0.349404531223569,3173.25537998916
0.34450890646929,3173.26537998916
0.338366896745558,3173.27537998916
0.331718173497697,3173.28537998916
0.324050172749137,3173.29537998916
0.316039420359965,3173.30537998916
0.307798914377036,3173.31537998916
0.299138159486545,3173.32537998916
0.289816952155463,3173.33537998916
0.279491219591429,3173.34537998916
0.26861179402758,3173.35537998916
0.257071277493755,3173.36537998916
0.245175716893286,3173.37537998916
0.233049341728917,3173.38537998916
0.220441597983972,3173.39537998916
0.207483186634083,3173.40537998916
0.194108203576592,3173.41537998916
0.180058269971243,3173.42537998916
0.166178743334692,3173.43537998916
0.152725694346859,3173.44537998916
0.139590181945523,3173.45537998916
0.126513049721946,3173.46537998916
0.113625929501594,3173.47537998916
0.100927002554771,3173.48537998916
0.088129353844755,3173.49537998916
0.0755438746526165,3173.50537998916
0.0628678686553732,3173.51537998916
0.0491483794439055,3173.52537998916
0.0350294965759278,3173.53537998916
0.0205615126455775,3173.54537998916
0.00622856460840812,3173.55537998916
-0.00767902021798359,3173.56537998916
-0.0210991159536598,3173.57537998916
-0.0336841882298905,3173.58537998916
-0.0458356846294108,3173.59537998916
-0.0582362739661487,3173.60537998916
-0.0703791878885096,3173.61537998916
-0.0819820087947102,3173.62537998916
-0.0918054032277706,3173.63537998916
-0.0970067091487586,3173.64537998916
-0.095812321892488,3173.65537998916
-0.0847766568977267,3173.66537998916
-0.0639150905081819,3173.67537998916
-0.0341143988177289,3173.68537998916
0.00394179354741117,3173.69537998916
0.0471571318503221,3173.70537998916
0.0924249580333208,3173.71537998916
0.1374738606965,3173.72537998916
0.180387629099032,3173.73537998916
0.218254242033424,3173.74537998916
0.250848690403973,3173.75537998916
0.27723952328346,3173.76537998916
0.298152650245704,3173.77537998916
0.314227181873953,3173.78537998916
0.326124894356423,3173.79537998916
0.334819376065218,3173.80537998916
0.34135938001957,3173.81537998916
0.345172533206156,3173.82537998916
0.347158839849504,3173.83537998916
0.347586033041182,3173.84537998916
0.346387741296905,3173.85537998916
0.344770492306116,3173.86537998916
0.342709902410055,3173.87537998916
0.340013743302778,3173.88537998916
0.33618498100857,3173.89537998916
0.330347300834899,3173.90537998916
0.322447126240008,3173.91537998916
0.312416486149528,3173.92537998916
0.301189533042914,3173.93537998916
0.289441893125107,3173.94537998916
0.278327626678574,3173.95537998916
0.267968260499919,3173.96537998916
0.258955516823889,3173.97537998916
0.250838986004922,3173.98537998916
0.24347326339612,3173.99537998916
0.237098104884165,3174.00537998916
0.231301313210666,3174.01537998916
0.226538454337668,3174.02537998916
0.2219556337938,3174.03537998916
0.217814944380868,3174.04537998916
0.213720078513258,3174.05537998916
0.208965562138901,3174.06537998916
0.204238412886815,3174.07537998916
0.199157743911926,3174.08537998916
0.192925309487026,3174.09537998916
0.186077671842136,3174.10537998916
0.178110775883412,3174.11537998916
0.169248207010315,3174.12537998916
0.159043809933674,3174.13537998916
0.148159013502403,3174.14537998916
0.137286422404579,3174.15537998916
0.125502632791028,3174.16537998916
0.113961481154685,3174.17537998916
0.102068543585119,3174.18537998916
0.0895991455066685,3174.19537998916
0.0774877910552191,3174.20537998916
0.0649702553260437,3174.21537998916
0.0533352454419242,3174.22537998916
0.042076005287055,3174.23537998916
0.0314716414432065,3174.24537998916
0.0204161771557187,3174.25537998916
0.00873452945919954,3174.26537998916
-0.00385373034576958,3174.27537998916
-0.0168892565441094,3174.28537998916
-0.0302353857275873,3174.29537998916
-0.0434080832392679,3174.30537998916
-0.055832101134335,3174.31537998916
-0.0685745872198591,3174.32537998916
-0.0811031229623528,3174.33537998916
-0.093825680750976,3174.34537998916
-0.106770271924259,3174.35537998916
-0.119792308904743,3174.36537998916
-0.132598004502256,3174.37537998916
-0.145268767316479,3174.38537998916
-0.156991006877932,3174.39537998916
-0.167211640197519,3174.40537998916
-0.17414952707313,3174.41537998916
-0.175107510228805,3174.42537998916
-0.167707487504169,3174.43537998916
-0.15039317377117,3174.44537998916
-0.123360718541864,3174.45537998916
-0.0880261030831885,3174.46537998916
-0.0470912713288397,3174.47537998916
-0.00334744053379483,3174.48537998916
0.0399024125873592,3174.49537998916
0.0810916623168743,3174.50537998916
0.11855708402848,3174.51537998916
0.151783035835415,3174.52537998916
0.179990411874643,3174.53537998916
0.203781650269791,3174.54537998916
0.222939608246166,3174.55537998916
0.238043849481328,3174.56537998916
0.249680257423924,3174.57537998916
0.258777654191705,3174.58537998916
0.265748337681628,3174.59537998916
0.271505489995127,3174.60537998916
0.27648772598631,3174.61537998916
0.280283800142536,3174.62537998916
0.28364398264403,3174.63537998916
0.286361428815252,3174.64537998916
0.288046096073831,3174.65537998916
0.288276095542521,3174.66537998916
0.285941704017665,3174.67537998916
0.281713681454708,3174.68537998916
0.275105598124226,3174.69537998916
0.266756066340147,3174.70537998916
0.256818289599474,3174.71537998916
0.246108200194181,3174.72537998916
0.23518574412043,3174.73537998916
0.224238127828062,3174.74537998916
0.21396266033727,3174.75537998916
0.203839085358996,3174.76537998916
0.194252344329064,3174.77537998916
0.185833928956553,3174.78537998916
0.178792059332723,3174.79537998916
0.172118386506062,3174.80537998916
0.166673465351283,3174.81537998916
0.161305209948818,3174.82537998916
0.155984744653354,3174.83537998916
0.149937726074449,3174.84537998916
0.143443649437187,3174.85537998916
0.136472534414563,3174.86537998916
0.128910728158624,3174.87537998916
0.120596674578142,3174.88537998916
0.112387222714157,3174.89537998916
0.103606206850433,3174.90537998916
0.0937485872886687,3174.91537998916
0.0835396615245273,3174.92537998916
0.07307768998653,3174.93537998916
0.0617531056456211,3174.94537998916
0.050162941836928,3174.95537998916
0.038373365074686,3174.96537998916
0.0262205544418938,3174.97537998916
0.0144627024015538,3174.98537998916
0.00270146674519327,3174.99537998916
-0.00921578189169574,3175.00537998916
-0.0215851913369002,3175.01537998916
-0.0341711804644471,3175.02537998916
-0.0475655540049908,3175.03537998916
-0.0608125497095856,3175.04537998916
-0.0732369090928309,3175.05537998916
-0.0855123884840215,3175.06537998916
-0.0968567403320143,3175.07537998916
-0.108139851767511,3175.08537998916
-0.119038717034995,3175.09537998916
-0.129629457297191,3175.10537998916
-0.140692368283779,3175.11537998916
-0.152759325550254,3175.12537998916
-0.165007150027078,3175.13537998916
-0.178615623937575,3175.14537998916
-0.192411108291032,3175.15537998916
-0.206238614497253,3175.16537998916
-0.220044040168131,3175.17537998916
-0.233846215287549,3175.18537998916
-0.24720978146875,3175.19537998916
-0.260569669618782,3175.20537998916
-0.273864415672009,3175.21537998916
-0.286399301361692,3175.22537998916
-0.296400885001728,3175.23537998916
-0.302490870470428,3175.24537998916
-0.301594948985816,3175.25537998916
-0.29094307261461,3175.26537998916
-0.270430059116914,3175.27537998916
-0.240340630674377,3175.28537998916
-0.202352525705387,3175.29537998916
-0.160218644821757,3175.30537998916
-0.116386706946286,3175.31537998916
-0.0735397791845369,3175.32537998916
-0.0338114026411825,3175.33537998916
0.00153311532241958,3175.34537998916
0.0320122390529502,3175.35537998916
0.0574804909609266,3175.36537998916
0.0776530378220782,3175.37537998916
0.0938777521454747,3175.38537998916
0.105943094014762,3175.39537998916
0.115333083714892,3175.40537998916
0.122816616254507,3175.41537998916
0.128763493247326,3175.42537998916
0.133635839378765,3175.43537998916
0.137125585744651,3175.44537998916
0.13983272374394,3175.45537998916
0.141371748215504,3175.46537998916
0.142544601295932,3175.47537998916
0.142765718144541,3175.48537998916
0.142172832143555,3175.49537998916
0.140019415623397,3175.50537998916
0.135938814236531,3175.51537998916
0.130061131271766,3175.52537998916
0.121942983269987,3175.53537998916
0.1121166766632,3175.54537998916
0.101110364295508,3175.55537998916
0.0893046997277738,3175.56537998916
0.0779489127775818,3175.57537998916
0.0673471312895907,3175.58537998916
0.0573515405918264,3175.59537998916
0.0482987458449933,3175.60537998916
0.0396524608765663,3175.61537998916
0.0316114869085543,3175.62537998916
0.0241996392727752,3175.63537998916
0.017195285088042,3175.64537998916
0.0111626752197923,3175.65537998916
0.0052216061445525,3175.66537998916
-0.000738188840215408,3175.67537998916
-0.00720883437289001,3175.68537998916
-0.014701482846423,3175.69537998916
-0.0222098236926339,3175.70537998916
-0.0301295742333618,3175.71537998916
-0.0389079583926998,3175.72537998916
-0.0477780239851752,3175.73537998916
-0.0575452801302196,3175.74537998916
-0.0679224471489439,3175.75537998916
-0.0785611929753973,3175.76537998916
-0.0899678802238102,3175.77537998916
-0.101954806865185,3175.78537998916
-0.113861716243388,3175.79537998916
-0.126107385976928,3175.80537998916
-0.138791689882974,3175.81537998916
-0.151509309511024,3175.82537998916
-0.164251324142565,3175.83537998916
-0.177123976326359,3175.84537998916
-0.189786886542451,3175.85537998916
-0.202245116159876,3175.86537998916
-0.214632304236352,3175.87537998916
-0.226539041963181,3175.88537998916
-0.238545318544088,3175.89537998916
-0.250825157037741,3175.90537998916
-0.262791291390573,3175.91537998916
-0.275245569212042,3175.92537998916
-0.288244744038067,3175.93537998916
-0.301205707216409,3175.94537998916
-0.313782440564926,3175.95537998916
-0.326581884673738,3175.96537998916
-0.338977731124651,3175.97537998916
-0.351905940895479,3175.98537998916
-0.36474658925986,3175.99537998916
-0.378050673205889,3176.00537998916
-0.391277776860731,3176.01537998916
-0.404130311311132,3176.02537998916
-0.416427874897529,3176.03537998916
-0.428363103522709,3176.04537998916
-0.43948711849126,3176.05537998916
-0.449056157042353,3176.06537998916
-0.455479168500339,3176.07537998916
-0.456369243613226,3176.08537998916
-0.44981174420091,3176.09537998916
-0.434352680667888,3176.10537998916
-0.410269168220088,3176.11537998916
-0.379250045104117,3176.12537998916
-0.343637860207918,3176.13537998916
-0.305859398137928,3176.14537998916
-0.268845586750578,3176.15537998916
-0.234163477045363,3176.16537998916
-0.203961770583256,3176.17537998916
-0.178095828617455,3176.18537998916
-0.156821233059294,3176.19537998916
-0.140345404496994,3176.20537998916
-0.127766952500045,3176.21537998916
-0.118857979533388,3176.22537998916
-0.11261208895613,3176.23537998916
-0.108364470681011,3176.24537998916
-0.105643389501809,3176.25537998916
-0.104483370577242,3176.26537998916
-0.103745631513636,3176.27537998916
-0.1034871006656,3176.28537998916
-0.102757538386829,3176.29537998916
-0.101530558016261,3176.30537998916
-0.100855949142836,3176.31537998916
-0.100648131665278,3176.32537998916
-0.10230944691116,3176.33537998916
-0.10580709339546,3176.34537998916
-0.111417393824979,3176.35537998916
-0.118546844812411,3176.36537998916
-0.126969836789291,3176.37537998916
-0.13538112391662,3176.38537998916
-0.143455706668904,3176.39537998916
-0.151226785430456,3176.40537998916
-0.15772161112394,3176.41537998916
-0.163779735045823,3176.42537998916
-0.168645099065135,3176.43537998916
-0.172877917588573,3176.44537998916
-0.176035890454301,3176.45537998916
-0.178477263959338,3176.46537998916
-0.180380492810072,3176.47537998916
-0.182215254212446,3176.48537998916
-0.183992287322193,3176.49537998916
-0.18635381768392,3176.50537998916
-0.189819733460058,3176.51537998916
-0.194429353035783,3176.52537998916
-0.200291002376523,3176.53537998916
-0.207215502612909,3176.54537998916
-0.214303768049984,3176.55537998916
-0.221670461971718,3176.56537998916
-0.228694875425577,3176.57537998916
-0.236431511854216,3176.58537998916
-0.244412234134379,3176.59537998916
-0.252823523182527,3176.60537998916
-0.261503115943606,3176.61537998916
-0.270458495925875,3176.62537998916
-0.279590344331948,3176.63537998916
-0.288866855317485,3176.64537998916
-0.298183754046464,3176.65537998916
-0.307458015619544,3176.66537998916
-0.316317403837598,3176.67537998916
-0.325171978409112,3176.68537998916
-0.333925832033028,3176.69537998916
-0.343301196625349,3176.70537998916
-0.353127301567314,3176.71537998916
-0.362900663112409,3176.72537998916
-0.372649766995524,3176.73537998916
-0.382476969872523,3176.74537998916
-0.392358374906591,3176.75537998916
-0.402076333075057,3176.76537998916
-0.412283180453864,3176.77537998916
-0.422699725595593,3176.78537998916
-0.433201740957096,3176.79537998916
-0.443711218352805,3176.80537998916
-0.453270922945285,3176.81537998916
-0.462746318978926,3176.82537998916
-0.47062183421939,3176.83537998916
-0.476307831354341,3176.84537998916
-0.477161138926951,3176.85537998916
-0.471110604154268,3176.86537998916
-0.456962093802562,3176.87537998916
-0.434014397175847,3176.88537998916
-0.403727713889639,3176.89537998916
-0.367497645691266,3176.90537998916
-0.328165704108323,3176.91537998916
-0.288923252083892,3176.92537998916
-0.251590533397817,3176.93537998916
-0.218177237727288,3176.94537998916
-0.189674456771637,3176.95537998916
-0.166492313371453,3176.96537998916
-0.147875513050789,3176.97537998916
-0.133274707425911,3176.98537998916
-0.121014635563758,3176.99537998916
-0.11113969936767,3177.00537998916
-0.102737293272156,3177.01537998916
-0.0961103779425986,3177.02537998916
-0.0912903975250856,3177.03537998916
-0.0874278636846682,3177.04537998916
-0.0840891782749511,3177.05537998916
-0.081133988206705,3177.06537998916
-0.0781688577680676,3177.07537998916
-0.0752826466575709,3177.08537998916
-0.0734300364744124,3177.09537998916
-0.0726734112833254,3177.10537998916
-0.0741078091030565,3177.11537998916
-0.0774704523185992,3177.12537998916
-0.0826312239620408,3177.13537998916
-0.0895195591194024,3177.14537998916
-0.0971637626904565,3177.15537998916
-0.104245221994716,3177.16537998916
-0.110175638959658,3177.17537998916
-0.114612195663905,3177.18537998916
-0.118285685067681,3177.19537998916
-0.120327256326555,3177.20537998916
-0.122018143708819,3177.21537998916
-0.123651408283152,3177.22537998916
-0.124892988995376,3177.23537998916
-0.126384171412888,3177.24537998916
-0.127450933733877,3177.25537998916
-0.128951822382252,3177.26537998916
-0.130489161694802,3177.27537998916
-0.132658854871943,3177.28537998916
-0.135954167025749,3177.29537998916
-0.140542520622609,3177.30537998916
-0.145901021439486,3177.31537998916
-0.152396163876696,3177.32537998916
-0.159126440354278,3177.33537998916
-0.166314797727267,3177.34537998916
-0.17389771474909,3177.35537998916
-0.181517124583346,3177.36537998916
-0.189515406584416,3177.37537998916
-0.197112574894507,3177.38537998916
-0.205210340144,3177.39537998916
-0.21346895344833,3177.40537998916
-0.222120786077556,3177.41537998916
-0.230169911960458,3177.42537998916
-0.23853798107701,3177.43537998916
-0.247391936225892,3177.44537998916
-0.256018404041596,3177.45537998916
-0.264563249235604,3177.46537998916
-0.273365533916567,3177.47537998916
-0.281758821323961,3177.48537998916
-0.290691253615788,3177.49537998916
-0.299654590848964,3177.50537998916
-0.308568203287733,3177.51537998916
-0.317806682539602,3177.52537998916
-0.326889679711036,3177.53537998916
-0.336085334384783,3177.54537998916
-0.345426054761028,3177.55537998916
-0.35508268368649,3177.56537998916
-0.365159999579282,3177.57537998916
-0.375529999626841,3177.58537998916
-0.386184398725097,3177.59537998916
-0.396813562037008,3177.60537998916
-0.406735475400803,3177.61537998916
-0.416098740572985,3177.62537998916
-0.42480639213017,3177.63537998916
-0.432146836801346,3177.64537998916
-0.437205512267138,3177.65537998916
-0.438036733502955,3177.66537998916
-0.432543366330327,3177.67537998916
-0.418034872330463,3177.68537998916
-0.394886197864424,3177.69537998916
-0.363360557420897,3177.70537998916
-0.325693929501853,3177.71537998916
-0.284848373494246,3177.72537998916
-0.243616526102204,3177.73537998916
-0.20441636588371,3177.74537998916
-0.168699201678562,3177.75537998916
-0.137841042420711,3177.76537998916
-0.111429573786582,3177.77537998916
-0.089173206618883,3177.78537998916
-0.0708661680243721,3177.79537998916
-0.0554305722882106,3177.80537998916
-0.0431324291424007,3177.81537998916
-0.0333655849773001,3177.82537998916
-0.0255440278410915,3177.83537998916
-0.0188343787847266,3177.84537998916
-0.0131647625942435,3177.85537998916
-0.00808965399004981,3177.86537998916
-0.00283321132087553,3177.87537998916
0.00187951230744304,3177.88537998916
0.00670923614342459,3177.89537998916
0.0110427160270364,3177.90537998916
0.0145020376347232,3177.91537998916
0.0165012686836736,3177.92537998916
0.0166430004624057,3177.93537998916
0.0144053158700317,3177.94537998916
0.0102857738478436,3177.95537998916
0.00472702105106751,3177.96537998916
-0.00190845061290724,3177.97537998916
-0.00829987592748763,3177.98537998916
-0.0145048229333818,3177.99537998916
-0.0201162322106362,3178.00537998916
-0.0250738859782846,3178.01537998916
-0.0298450467382126,3178.02537998916
-0.0341084550515144,3178.03537998916
-0.0381061797031496,3178.04537998916
-0.041938433207514,3178.05537998916
-0.0451584884935396,3178.06537998916
-0.0478961919640757,3178.07537998916
-0.0500151575819575,3178.08537998916
-0.0519636338140674,3178.09537998916
-0.0546701305173166,3178.10537998916
-0.058083644285746,3178.11537998916
-0.0625508757813763,3178.12537998916
-0.0678558805079468,3178.13537998916
-0.0732486593114337,3178.14537998916
-0.0789654321359182,3178.15537998916
-0.0848645674458479,3178.16537998916
-0.0911799627091751,3178.17537998916
-0.0978886221873165,3178.18537998916
-0.105060600038938,3178.19537998916
-0.112954233510608,3178.20537998916
-0.121266682865844,3178.21537998916
-0.129498385490263,3178.22537998916
-0.138214374980131,3178.23537998916
-0.147359794105664,3178.24537998916
-0.156861428586945,3178.25537998916
-0.166420303423562,3178.26537998916
-0.176412303046462,3178.27537998916
-0.186817602439044,3178.28537998916
-0.197012811592161,3178.29537998916
-0.207105017756584,3178.30537998916
-0.216611529304886,3178.31537998916
-0.225655289026924,3178.32537998916
-0.235007504280848,3178.33537998916
-0.24452296348225,3178.34537998916
-0.25435910995356,3178.35537998916
-0.265054276949942,3178.36537998916
-0.275957540450785,3178.37537998916
-0.286789621792402,3178.38537998916
-0.297353135058801,3178.39537998916
-0.307744505723441,3178.40537998916
-0.31806364665207,3178.41537998916
-0.328572951485501,3178.42537998916
-0.338730095908481,3178.43537998916
-0.348966289777742,3178.44537998916
-0.359002090927701,3178.45537998916
-0.369321154268813,3178.46537998916
-0.379922952487427,3178.47537998916
-0.389598867265176,3178.48537998916
-0.39701041327106,3178.49537998916
-0.40044160246329,3178.50537998916
-0.3977110989976,3178.51537998916
-0.386190698866623,3178.52537998916
-0.365775092388933,3178.53537998916
-0.336535654402748,3178.54537998916
-0.301421953692932,3178.55537998916
-0.263255442282855,3178.56537998916
-0.224078810108509,3178.57537998916
-0.186238450413211,3178.58537998916
-0.151926102922098,3178.59537998916
-0.121790249447499,3178.60537998916
-0.0970368258058754,3178.61537998916
-0.0773092060381032,3178.62537998916
-0.0618706313482727,3178.63537998916
-0.0499962428069893,3178.64537998916
-0.0406920690664322,3178.65537998916
-0.0337642361760785,3178.66537998916
-0.0278861232921142,3178.67537998916
-0.0226028925950846,3178.68537998916
-0.0181723712090935,3178.69537998916
-0.0138568322212577,3178.70537998916
-0.00989895271616981,3178.71537998916
-0.00620859838080531,3178.72537998916
-0.00270763220144359,3178.73537998916
0.000463764360406277,3178.74537998916
0.0021646248631723,3178.75537998916
0.00199145444106756,3178.76537998916
-0.000302313316048278,3178.77537998916
-0.00441399671432835,3178.78537998916
-0.0103052459837431,3178.79537998916
-0.0170592602415732,3178.80537998916
-0.024684109782454,3178.81537998916
-0.0325569202345264,3178.82537998916
-0.0404320523489455,3178.83537998916
-0.0472399746600193,3178.84537998916
-0.0528204028945897,3178.85537998916
-0.0569724514651856,3178.86537998916
-0.0599421248841832,3178.87537998916
-0.0619298457182486,3178.88537998916
-0.0633590840779279,3178.89537998916
-0.0645402991946093,3178.90537998916
-0.0659046167721519,3178.91537998916
-0.0683087606048994,3178.92537998916
-0.0713359692443437,3178.93537998916
-0.0747353113551807,3178.94537998916
-0.0783997611394902,3178.95537998916
-0.0822026411790096,3178.96537998916
-0.0865797272833663,3178.97537998916
-0.091902408779158,3178.98537998916
-0.0988178501324755,3178.99537998916
-0.105956493932043,3179.00537998916
-0.113782060061555,3179.01537998916
-0.122055119053189,3179.02537998916
-0.130059274721201,3179.03537998916
-0.137807555561231,3179.04537998916
-0.145489627556899,3179.05537998916
-0.153847879031735,3179.06537998916
-0.162590148499326,3179.07537998916
-0.171813406881176,3179.08537998916
-0.181711198908683,3179.09537998916
-0.191446785017227,3179.10537998916
-0.201173388977612,3179.11537998916
-0.210628901664347,3179.12537998916
-0.220715335095384,3179.13537998916
-0.23028550424508,3179.14537998916
-0.240097741638291,3179.15537998916
-0.249812479300049,3179.16537998916
-0.259805220706007,3179.17537998916
-0.269457046958865,3179.18537998916
-0.279370187773265,3179.19537998916
-0.289494836894126,3179.20537998916
-0.300130362792282,3179.21537998916
-0.310345870586054,3179.22537998916
-0.320255652615127,3179.23537998916
-0.32953945521852,3179.24537998916
-0.338875536164519,3179.25537998916
-0.347805070911593,3179.26537998916
-0.356995318055892,3179.27537998916
-0.365531773463166,3179.28537998916
-0.372982185833688,3179.29537998916
-0.377912701770111,3179.30537998916
-0.377760592534619,3179.31537998916
-0.370553546251488,3179.32537998916
-0.354585304491533,3179.33537998916
-0.330403227985871,3179.34537998916
-0.299084524409856,3179.35537998916
-0.262955502750548,3179.36537998916
-0.224764556189979,3179.37537998916
-0.186730385058501,3179.38537998916
-0.151311921225024,3179.39537998916
-0.119882076326449,3179.40537998916
-0.0931140357708296,3179.41537998916
-0.0708428820350653,3179.42537998916
-0.0537286066402447,3179.43537998916
-0.0401201001134759,3179.44537998916
-0.0293123238256855,3179.45537998916
-0.0212363640749192,3179.46537998916
-0.0148161859823689,3179.47537998916
-0.00974786247019848,3179.48537998916
-0.00607742495818333,3179.49537998916
-0.00290959082862647,3179.50537998916
-5.43765945843835e-05,3179.51537998916
0.0022907534611833,3179.52537998916
0.00421954773022927,3179.53537998916
0.00544849992829789,3179.54537998916
0.00596964497858568,3179.55537998916
0.00589168925718642,3179.56537998916
0.00407090058066533,3179.57537998916
0.000593840966718558,3179.58537998916
-0.00393108779262026,3179.59537998916
-0.00982369451412978,3179.60537998916
-0.0164289171879463,3179.61537998916
-0.0226534822659202,3179.62537998916
-0.0281560910879072,3179.63537998916
-0.0329900613869965,3179.64537998916
-0.0365657360119912,3179.65537998916
-0.0390063706165129,3179.66537998916
-0.0409963375247657,3179.67537998916
-0.0418170952195092,3179.68537998916
-0.0421377820160232,3179.69537998916
-0.0418710560000432,3179.70537998916
-0.0419072333763743,3179.71537998916
-0.042816259580675,3179.72537998916
-0.0448224807278081,3179.73537998916
-0.047632665632428,3179.74537998916
-0.0511936155574287,3179.75537998916
-0.0558800590178107,3179.76537998916
-0.0612224195426959,3179.77537998916
-0.0672802078187069,3179.78537998916
-0.0738932892683833,3179.79537998916
-0.081051004590248,3179.80537998916
-0.0881038581449611,3179.81537998916
-0.095672184360602,3179.82537998916
-0.103178191435656,3179.83537998916
-0.110504559592024,3179.84537998916
-0.11762332074989,3179.85537998916
-0.124541218709513,3179.86537998916
-0.131766864150066,3179.87537998916
-0.138950467834917,3179.88537998916
-0.146225840766183,3179.89537998916
-0.153697213831664,3179.90537998916
-0.161570751600935,3179.91537998916
-0.169860473364682,3179.92537998916
-0.178590760151129,3179.93537998916
-0.187328438042654,3179.94537998916
-0.196155686217441,3179.95537998916
-0.205463711425289,3179.96537998916
-0.214987468931639,3179.97537998916
-0.224516466283464,3179.98537998916
-0.234260782462692,3179.99537998916
-0.243425490038423,3180.00537998916
-0.25266245233627,3180.01537998916
-0.261568227903278,3180.02537998916
-0.270528454258743,3180.03537998916
-0.279497730111265,3180.04537998916
-0.288438315839926,3180.05537998916
-0.297836464960821,3180.06537998916
-0.306049135005889,3180.07537998916
-0.311449457722686,3180.08537998916
-0.311177181181035,3180.09537998916
-0.303593571298727,3180.10537998916
-0.287553381055351,3180.11537998916
-0.262143186031849,3180.12537998916
-0.228888601015159,3180.13537998916
-0.190089559926835,3180.14537998916
-0.148386720677598,3180.15537998916
-0.106599033740714,3180.16537998916
-0.0665095227425767,3180.17537998916
-0.0309649508669318,3180.18537998916
0.000322870373312239,3180.19537998916
0.0264594239476792,3180.20537998916
0.0487663881011278,3180.21537998916
0.0673126823642657,3180.22537998916
0.0822393037976115,3180.23537998916
0.0947015579865118,3180.24537998916
0.104888854291631,3180.25537998916
0.113495914900408,3180.26537998916
0.120408605476188,3180.27537998916
0.126965387945575,3180.28537998916
0.133388875071099,3180.29537998916
0.139496669211825,3180.30537998916
0.144994727031177,3180.31537998916
0.149238389490688,3180.32537998916
0.15273966188564,3180.33537998916
0.154642299202261,3180.34537998916
0.15513284224829,3180.35537998916
0.154115507832249,3180.36537998916
0.151338040355592,3180.37537998916
0.1465863835366,3180.38537998916
0.140523164808832,3180.39537998916
0.133503008000551,3180.40537998916
0.126519947726098,3180.41537998916
0.120252291504603,3180.42537998916
0.114786948081757,3180.43537998916
0.110830152594744,3180.44537998916
0.1081155672937,3180.45537998916
0.106589772560713,3180.46537998916
0.105192799549053,3180.47537998916
0.104039313747425,3180.48537998916
0.102917202722612,3180.49537998916
0.100958332259297,3180.50537998916
0.0987606678440945,3180.51537998916
0.0962474982854064,3180.52537998916
0.0935751630835044,3180.53537998916
0.0906008872818377,3180.54537998916
0.0868053955572287,3180.55537998916
0.0822590150090583,3180.56537998916
0.0769273409667949,3180.57537998916
0.070474589626181,3180.58537998916
0.0631797025189298,3180.59537998916
0.0555154214483356,3180.60537998916
0.0476679167428512,3180.61537998916
0.0396738137898642,3180.62537998916
0.0313157592772129,3180.63537998916
0.0225171989188353,3180.64537998916
0.0136180101310761,3180.65537998916
0.00414605200109295,3180.66537998916
-0.00568307464887439,3180.67537998916
-0.0155122073439897,3180.68537998916
-0.0249363246419902,3180.69537998916
-0.0343642030304949,3180.70537998916
-0.0438121543753096,3180.71537998916
-0.0530886568325911,3180.72537998916
-0.0625351212935623,3180.73537998916
-0.0721024516682418,3180.74537998916
-0.0817989775581564,3180.75537998916
-0.0914678334679426,3180.76537998916
-0.101577521707794,3180.77537998916
-0.111139103838116,3180.78537998916
-0.121099708950773,3180.79537998916
-0.131152102246733,3180.80537998916
-0.141452605950168,3180.81537998916
-0.151811837202305,3180.82537998916
-0.161591147609803,3180.83537998916
-0.171674227540752,3180.84537998916
-0.181918103160965,3180.85537998916
-0.192021658635278,3180.86537998916
-0.202802202796513,3180.87537998916
-0.213580185082338,3180.88537998916
-0.223864065222225,3180.89537998916
-0.233739821462015,3180.90537998916
-0.241029357513124,3180.91537998916
-0.244265993379706,3180.92537998916
-0.240979169715565,3180.93537998916
-0.22908554011833,3180.94537998916
-0.208026877616387,3180.95537998916
-0.178290405216734,3180.96537998916
-0.141180687258412,3180.97537998916
-0.0990253348185638,3180.98537998916
-0.053767919964099,3180.99537998916
-0.00897740487504241,3181.00537998916
0.0330460507806666,3181.01537998916
0.0704988894000601,3181.02537998916
0.102893095100018,3181.03537998916
0.129877667255455,3181.04537998916
0.151358205734144,3181.05537998916
0.168871025042256,3181.06537998916
0.182955222608975,3181.07537998916
0.194970286806195,3181.08537998916
0.205463185760878,3181.09537998916
0.214727333635853,3181.10537998916
0.222830110692539,3181.11537998916
0.229829407376923,3181.12537998916
0.235896183105708,3181.13537998916
0.241447411579618,3181.14537998916
0.246818239317233,3181.15537998916
0.251376591053168,3181.16537998916
0.255135395936283,3181.17537998916
0.257290013301664,3181.18537998916
0.257585562301528,3181.19537998916
0.256161255944042,3181.20537998916
0.252959930861733,3181.21537998916
0.248938712043469,3181.22537998916
0.244721154567565,3181.23537998916
0.24084521646302,3181.24537998916
0.237932353433652,3181.25537998916
0.236287712100743,3181.26537998916
0.235839176540318,3181.27537998916
0.236817447177713,3181.28537998916
0.238647199887949,3181.29537998916
0.242197198391063,3181.30537998916
0.24695291747599,3181.31537998916
0.25328566099101,3181.32537998916
0.259597105040833,3181.33537998916
0.265393929186661,3181.34537998916
0.270653339981016,3181.35537998916
0.274562586543298,3181.36537998916
0.276302045383591,3181.37537998916
0.276469197951279,3181.38537998916
0.274877606446816,3181.39537998916
0.271381585206,3181.40537998916
0.265990530525786,3181.41537998916
0.259335249958369,3181.42537998916
0.251223763494898,3181.43537998916
0.241734134738085,3181.44537998916
0.231473117485784,3181.45537998916
0.220382678869025,3181.46537998916
0.208821854907471,3181.47537998916
0.196154215652694,3181.48537998916
0.183209768811973,3181.49537998916
0.169324864035278,3181.50537998916
0.15488468425896,3181.51537998916
0.14041337396482,3181.52537998916
0.125451856499134,3181.53537998916
0.111382224620357,3181.54537998916
0.0980445896045216,3181.55537998916
0.0856753317851356,3181.56537998916
0.0741899361099346,3181.57537998916
0.0631438248030553,3181.58537998916
0.052675694522938,3181.59537998916
0.0420878586516385,3181.60537998916
0.032178575671661,3181.61537998916
0.021789216520552,3181.62537998916
0.0116791167161534,3181.63537998916
0.0014806090815363,3181.64537998916
-0.00819771860712319,3181.65537998916
-0.0181151114339184,3181.66537998916
-0.0276833272833348,3181.67537998916
-0.0377962555719297,3181.68537998916
-0.0479797133353494,3181.69537998916
-0.0586577370140766,3181.70537998916
-0.0693526779501411,3181.71537998916
-0.0800377504112333,3181.72537998916
-0.0894366091545593,3181.73537998916
-0.0956371133414853,3181.74537998916
-0.096594256210347,3181.75537998916
-0.0899727395457772,3181.76537998916
-0.0735880177156382,3181.77537998916
-0.047733196777269,3181.78537998916
-0.0132847354267137,3181.79537998916
0.0277526239565492,3181.80537998916
0.0720905969888457,3181.81537998916
0.117461636560484,3181.82537998916
0.162297590567822,3181.83537998916
0.203813257667544,3181.84537998916
0.241439936976498,3181.85537998916
0.274453766331192,3181.86537998916
0.301951612227961,3181.87537998916
0.325054399857926,3181.88537998916
0.343284013695275,3181.89537998916
0.357715038446522,3181.90537998916
0.368686537008062,3181.91537998916
0.37734880466623,3181.92537998916
0.384035818298626,3181.93537998916
0.389817972567366,3181.94537998916
0.394828842265559,3181.95537998916
0.39971530163622,3181.96537998916
0.403771343326095,3181.97537998916
0.407387181703477,3181.98537998916
0.41077247222596,3181.99537998916
0.412441456397493,3182.00537998916
0.412059058752454,3182.01537998916
0.409736403470985,3182.02537998916
0.405265506516707,3182.03537998916
0.399477178984174,3182.04537998916
0.39270823352593,3182.05537998916
0.385369237728579,3182.06537998916
0.377991405466837,3182.07537998916
0.370466627046967,3182.08537998916
0.363474127385532,3182.09537998916
0.356772588588061,3182.10537998916
0.351226527923156,3182.11537998916
0.347340331351807,3182.12537998916
0.3436642172866,3182.13537998916
0.340694194330872,3182.14537998916
0.337418289050892,3182.15537998916
0.333445416769908,3182.16537998916
0.329094560227175,3182.17537998916
0.324677637182925,3182.18537998916
0.319837915585187,3182.19537998916
0.315334370196641,3182.20537998916
0.310615012437671,3182.21537998916
0.305653743008495,3182.22537998916
0.300002925083869,3182.23537998916
0.293016332810829,3182.24537998916
0.2851760585325,3182.25537998916
0.276819393639532,3182.26537998916
0.267399628726175,3182.27537998916
0.257501248903976,3182.28537998916
0.246915348589716,3182.29537998916
0.23561972459155,3182.30537998916
0.224240933963433,3182.31537998916
0.212895074802249,3182.32537998916
0.20111572174011,3182.33537998916
0.189197387522465,3182.34537998916
0.177270900503113,3182.35537998916
0.165112287560892,3182.36537998916
0.153033156099672,3182.37537998916
0.140924209877353,3182.38537998916
0.129826076774252,3182.39537998916
0.119322853264293,3182.40537998916
0.109055836899943,3182.41537998916
0.0988527192043518,3182.42537998916
0.088032467083916,3182.43537998916
0.0762646683327009,3182.44537998916
0.064073835717319,3182.45537998916
0.0517576272396284,3182.46537998916
0.0390013216251635,3182.47537998916
0.0267486182901422,3182.48537998916
0.0137657501054475,3182.49537998916
0.000517155214032414,3182.50537998916
-0.0130563280037143,3182.51537998916
-0.0267660364775779,3182.52537998916
-0.0398459718872061,3182.53537998916
-0.0520330361392227,3182.54537998916
-0.0624857852416106,3182.55537998916
-0.0698099898521587,3182.56537998916
-0.0721587527107496,3182.57537998916
-0.0669305158857486,3182.58537998916
-0.0521719657702643,3182.59537998916
-0.0277329887330528,3182.60537998916
0.00582471991461988,3182.61537998916
0.0463678390342332,3182.62537998916
0.0908543896847423,3182.63537998916
0.136602096345826,3182.64537998916
0.181482872746561,3182.65537998916
0.222771353776648,3182.66537998916
0.259287688121735,3182.67537998916
0.289993690802488,3182.68537998916
0.315264305815827,3182.69537998916
0.334984569693425,3182.70537998916
0.349545233685236,3182.71537998916
0.359848379031665,3182.72537998916
0.367213014199552,3182.73537998916
0.372318713087211,3182.74537998916
0.375851310221856,3182.75537998916
0.378743456456124,3182.76537998916
0.381006458239257,3182.77537998916
0.382450371082569,3182.78537998916
0.382794689932615,3182.79537998916
0.382247662722342,3182.80537998916
0.380689122747005,3182.81537998916
0.37806702660401,3182.82537998916
0.374123152634334,3182.83537998916
0.368131343101054,3182.84537998916
0.360382929702597,3182.85537998916
0.351242244767518,3182.86537998916
0.341046991057569,3182.87537998916
0.330208763551283,3182.88537998916
0.319692912761254,3182.89537998916
0.309664946070201,3182.90537998916
0.301168482085391,3182.91537998916
0.294186766915229,3182.92537998916
0.288255687815444,3182.93537998916
0.283952294475721,3182.94537998916
0.280733651750921,3182.95537998916
0.27812297681381,3182.96537998916
0.2754007913802,3182.97537998916
0.272612694829793,3182.98537998916
0.269002198392124,3182.99537998916
0.264606249556457,3183.00537998916
0.259660216093159,3183.01537998916
0.254039289582285,3183.02537998916
0.247888352913575,3183.03537998916
0.240706218703906,3183.04537998916
0.232653486785516,3183.05537998916
0.223623130582694,3183.06537998916
0.213608925083763,3183.07537998916
0.203332166644516,3183.08537998916
0.193115284784498,3183.09537998916
0.182962963533901,3183.10537998916
0.173157832287458,3183.11537998916
0.163422872813297,3183.12537998916
0.153753689940658,3183.13537998916
0.144257419247579,3183.14537998916
0.134886428811974,3183.15537998916
0.125167993048888,3183.16537998916
0.114813480326669,3183.17537998916
0.103856069001271,3183.18537998916
0.0919267372667129,3183.19537998916
0.0809322786493861,3183.20537998916
0.0701868418102799,3183.21537998916
0.059600635725267,3183.22537998916
0.0495281609591515,3183.23537998916
0.0389868872552773,3183.24537998916
0.0283047568365267,3183.25537998916
0.0171553928551408,3183.26537998916
0.0053237504215866,3183.27537998916
-0.00724022392744466,3183.28537998916
-0.0199718871564794,3183.29537998916
-0.0325021898541674,3183.30537998916
-0.0446905453349413,3183.31537998916
-0.0568969354353676,3183.32537998916
-0.068294465977272,3183.33537998916
-0.0782012896296197,3183.34537998916
-0.0846526587389382,3183.35537998916
-0.0851824919049081,3183.36537998916
-0.0773313547472213,3183.37537998916
-0.0599446989475735,3183.38537998916
-0.0334971536582686,3183.39537998916
0.000466791681633653,3183.40537998916
0.039212620827268,3183.41537998916
0.0797158055874465,3183.42537998916
0.120260896654695,3183.43537998916
0.157645607302051,3183.44537998916
0.191174719011971,3183.45537998916
0.219660667322954,3183.46537998916
0.24299502284334,3183.47537998916
0.261750259519832,3183.48537998916
0.275901919367025,3183.49537998916
0.286273774911294,3183.50537998916
0.29301236087817,3183.51537998916
0.296673468399148,3183.52537998916
0.298735741820059,3183.53537998916
0.299683715146113,3183.54537998916
0.300237501988676,3183.55537998916
0.30055187508691,3183.56537998916
0.30096183187409,3183.57537998916
0.301641193522476,3183.58537998916
0.301018608691333,3183.59537998916
0.299081899986018,3183.60537998916
0.295492802700476,3183.61537998916
0.289907851748698,3183.62537998916
0.282492950914725,3183.63537998916
0.273413297625437,3183.64537998916
0.2635504826394,3183.65537998916
0.253488917921966,3183.66537998916
0.243969839064602,3183.67537998916
0.234853242558581,3183.68537998916
0.226687241692301,3183.69537998916
0.219639190105008,3183.70537998916
0.213300251667528,3183.71537998916
0.208030672597372,3183.72537998916
0.203671834201868,3183.73537998916
0.199678687311172,3183.74537998916
0.195476050842721,3183.75537998916
0.191106852379989,3183.76537998916
0.186666259846949,3183.77537998916
0.181490179511707,3183.78537998916
0.175848808199097,3183.79537998916
0.169635648876653,3183.80537998916
0.163185030943061,3183.81537998916
0.15606955234392,3183.82537998916
0.148109512545353,3183.83537998916
0.140343977352384,3183.84537998916
0.131650933822342,3183.85537998916
0.122333344869573,3183.86537998916
0.112574275093318,3183.87537998916
0.102661934390879,3183.88537998916
0.0923858290514143,3183.89537998916
0.0823020397523602,3183.90537998916
0.0709923362484919,3183.91537998916
0.0594412747161719,3183.92537998916
0.0484641459866467,3183.93537998916
0.037526970732737,3183.94537998916
0.0264223437968622,3183.95537998916
0.0143111155857641,3183.96537998916
0.000622202965195837,3183.97537998916
-0.0133878448195804,3183.98537998916
-0.0270965492722167,3183.99537998916
-0.0395799406777793,3184.00537998916
-0.0499905956397561,3184.01537998916
-0.0594987478419283,3184.02537998916
-0.067705710403847,3184.03537998916
-0.0760769099330967,3184.04537998916
-0.0839405563523321,3184.05537998916
-0.092214778159795,3184.06537998916
-0.100895785593047,3184.07537998916
-0.109667675169883,3184.08537998916
-0.119155750082673,3184.09537998916
-0.12856542271095,3184.10537998916
-0.138474280536469,3184.11537998916
-0.147382885356983,3184.12537998916
-0.153262265984003,3184.13537998916
-0.153836345151083,3184.14537998916
-0.14583950879284,3184.15537998916
-0.128215805089066,3184.16537998916
-0.100856016568451,3184.17537998916
-0.0661353949422674,3184.18537998916
-0.0270040339940179,3184.19537998916
0.0140238911738349,3184.20537998916
0.0540725715963971,3184.21537998916
0.0912939253571092,3184.22537998916
0.124098555928464,3184.23537998916
0.152356540533868,3184.24537998916
0.175616582665089,3184.25537998916
0.194259968045393,3184.26537998916
0.208802566899124,3184.27537998916
0.21997488911492,3184.28537998916
0.22742053239084,3184.29537998916
0.233533368801272,3184.30537998916
0.237533842249615,3184.31537998916
0.240517154106419,3184.32537998916
0.242438141715506,3184.33537998916
0.243757048205289,3184.34537998916
0.244785012040469,3184.35537998916
0.245151932837621,3184.36537998916
0.245968969869055,3184.37537998916
0.245950863779747,3184.38537998916
0.244002736130484,3184.39537998916
0.240167210633317,3184.40537998916
0.234211959520707,3184.41537998916
0.226276196663647,3184.42537998916
0.217546832213139,3184.43537998916
0.207319469535281,3184.44537998916
0.197354635063429,3184.45537998916
0.187774280517053,3184.46537998916
0.178378991032501,3184.47537998916
0.169158246219963,3184.48537998916
0.16117473591473,3184.49537998916
0.154271137900409,3184.50537998916
0.1482358299665,3184.51537998916
0.143136864505385,3184.52537998916
0.138497235091168,3184.53537998916
0.133638294817118,3184.54537998916
0.128566296821304,3184.55537998916
0.122801691451252,3184.56537998916
0.116823055884387,3184.57537998916
0.110410406344619,3184.58537998916
0.10411700165963,3184.59537998916
0.096973322733534,3184.60537998916
0.0892445851806784,3184.61537998916
0.0811477108980733,3184.62537998916
0.071930113694394,3184.63537998916
0.0624914227475466,3184.64537998916
0.0522898487025344,3184.65537998916
0.0417255167510964,3184.66537998916
0.0306433111187083,3184.67537998916
0.0191197589786549,3184.68537998916
0.00760520999585003,3184.69537998916
-0.00431409084775957,3184.70537998916
-0.0157191212633753,3184.71537998916
-0.0271520049923478,3184.72537998916
-0.0382629771789871,3184.73537998916
-0.0496132671443265,3184.74537998916
-0.0602803796143073,3184.75537998916
-0.0709586161588358,3184.76537998916
-0.0818709127650031,3184.77537998916
-0.0933313183762855,3184.78537998916
-0.105493346110792,3184.79537998916
-0.117876933469221,3184.80537998916
-0.130529366490082,3184.81537998916
-0.143551904742538,3184.82537998916
-0.157050166656382,3184.83537998916
-0.170992160600523,3184.84537998916
-0.185294867724516,3184.85537998916
-0.199916681209584,3184.86537998916
-0.213960258227891,3184.87537998916
-0.22678324125085,3184.88537998916
-0.239600851413923,3184.89537998916
-0.251426140169906,3184.90537998916
-0.261820615232538,3184.91537998916
-0.268683441063191,3184.92537998916
-0.269064694565294,3184.93537998916
-0.261195371611538,3184.94537998916
-0.242710863845429,3184.95537998916
-0.214027848642947,3184.96537998916
-0.176700656657691,3184.97537998916
-0.134329915303355,3184.98537998916
-0.0894423843587464,3184.99537998916
-0.046100613081515,3185.00537998916
-0.00603849758947085,3185.01537998916
0.0282640098069365,3185.02537998916
0.0559927632640574,3185.03537998916
0.0772242636089442,3185.04537998916
0.0919668337264681,3185.05537998916
0.102591404165269,3185.06537998916
0.109081312644432,3185.07537998916
0.112953619274867,3185.08537998916
0.114516640999034,3185.09537998916
0.113934419622246,3185.10537998916
0.111514729462843,3185.11537998916
0.108041870903943,3185.12537998916
0.104728871184951,3185.13537998916
0.10110739915819,3185.14537998916
0.0978855224339969,3185.15537998916
0.0944351431189697,3185.16537998916
0.0894206602468332,3185.17537998916
0.0823270758655015,3185.18537998916
0.0730946164047011,3185.19537998916
0.0612918236795582,3185.20537998916
0.0485975497676492,3185.21537998916
0.0346801375680439,3185.22537998916
0.0206099539656453,3185.23537998916
0.0064231547468025,3185.24537998916
-0.0072214665517085,3185.25537998916
-0.0193656001627588,3185.26537998916
-0.0300938153524217,3185.27537998916
-0.0399587104345699,3185.28537998916
-0.0494928146762663,3185.29537998916
-0.0580943032332844,3185.30537998916
-0.0675500206889017,3185.31537998916
-0.0769360474834998,3185.32537998916
-0.0865317928098587,3185.33537998916
-0.0958101799117573,3185.34537998916
-0.104792094946032,3185.35537998916
-0.113420559567658,3185.36537998916
-0.122486599748761,3185.37537998916
-0.131347731590733,3185.38537998916
-0.140694372166146,3185.39537998916
-0.150055552582523,3185.40537998916
-0.159871695019842,3185.41537998916
-0.170648679922327,3185.42537998916
-0.182084568671253,3185.43537998916
-0.193631187540582,3185.44537998916
-0.206307322613405,3185.45537998916
-0.219210641305004,3185.46537998916
-0.232745223257323,3185.47537998916
-0.246405590947851,3185.48537998916
-0.259441122625523,3185.49537998916
-0.27244218984848,3185.50537998916
-0.284885166388093,3185.51537998916
-0.297310274072913,3185.52537998916
-0.310208449844423,3185.53537998916
-0.322878705031145,3185.54537998916
-0.335811099095103,3185.55537998916
-0.348996328357465,3185.56537998916
-0.362233336267979,3185.57537998916
-0.375014595409063,3185.58537998916
-0.3885073272256,3185.59537998916
-0.402346707823033,3185.60537998916
-0.415782367046471,3185.61537998916
-0.429225977280197,3185.62537998916
-0.4421067045687,3185.63537998916
-0.455104616789097,3185.64537998916
-0.467274403671714,3185.65537998916
-0.478624994691728,3185.66537998916
-0.49060169529206,3185.67537998916
-0.502343549240398,3185.68537998916
-0.513937119579811,3185.69537998916
-0.524553965452371,3185.70537998916
-0.532523059042271,3185.71537998916
-0.535246638045253,3185.72537998916
-0.530336020087931,3185.73537998916
-0.5160562377068,3185.74537998916
-0.491888188549872,3185.75537998916
-0.459488858248205,3185.76537998916
-0.421511337786747,3185.77537998916
-0.381322489694175,3185.78537998916
-0.342298910174025,3185.79537998916
-0.307499590859536,3185.80537998916
-0.277334359064036,3185.81537998916
-0.253077590167717,3185.82537998916
-0.234438577651346,3185.83537998916
-0.221252692398277,3185.84537998916
-0.212705238114606,3185.85537998916
-0.207847915307629,3185.86537998916
-0.205267231270921,3185.87537998916
-0.204542075983254,3185.88537998916
-0.204852866364382,3185.89537998916
-0.205930270536101,3185.90537998916
-0.206973870392209,3185.91537998916
-0.207483910207934,3185.92537998916
-0.207631918407226,3185.93537998916
-0.207892492124319,3185.94537998916
-0.208166008830334,3185.95537998916
-0.209126255840396,3185.96537998916
-0.211833444944726,3185.97537998916
-0.216036832798477,3185.98537998916
-0.222224698309663,3185.99537998916
-0.229188846250193,3186.00537998916
-0.237340055190286,3186.01537998916
-0.245429063565902,3186.02537998916
-0.253244267287813,3186.03537998916
-0.260394635561101,3186.04537998916
-0.266144885175959,3186.05537998916
-0.270833551870102,3186.06537998916
-0.274574988155871,3186.07537998916
-0.277858051220737,3186.08537998916
-0.280048854853185,3186.09537998916
-0.281835484990917,3186.10537998916
-0.283676981244725,3186.11537998916
-0.285618231628875,3186.12537998916
-0.288043686982417,3186.13537998916
-0.290540289816494,3186.14537998916
-0.293593379776486,3186.15537998916
-0.297492323235607,3186.16537998916
-0.301980811245701,3186.17537998916
-0.307006771051235,3186.18537998916
-0.312647208723279,3186.19537998916
-0.319185923924673,3186.20537998916
-0.326077548992982,3186.21537998916
-0.333716880540062,3186.22537998916
-0.341611713342495,3186.23537998916
-0.349208794492564,3186.24537998916
-0.357240957676068,3186.25537998916
-0.365362955996049,3186.26537998916
-0.373610604988374,3186.27537998916
-0.382631653573998,3186.28537998916
-0.391715360233122,3186.29537998916
-0.400707155425704,3186.30537998916
-0.40933394888635,3186.31537998916
-0.417819780250597,3186.32537998916
-0.426328151813141,3186.33537998916
-0.435297709517766,3186.34537998916
-0.444316373805013,3186.35537998916
-0.452977237136453,3186.36537998916
-0.461620229026683,3186.37537998916
-0.4698882932533,3186.38537998916
-0.478162102313704,3186.39537998916
-0.486850335108333,3186.40537998916
-0.495859787547651,3186.41537998916
-0.504998933457948,3186.42537998916
-0.514389486597199,3186.43537998916
-0.523903056147452,3186.44537998916
-0.533302436365747,3186.45537998916
-0.54273966770249,3186.46537998916
-0.551281852459017,3186.47537998916
-0.557329931195137,3186.48537998916
-0.558490825029158,3186.49537998916
-0.552426713418603,3186.50537998916
-0.537184147369613,3186.51537998916
-0.512629655045001,3186.52537998916
-0.48082439877281,3186.53537998916
-0.443507499906571,3186.54537998916
-0.40350462284859,3186.55537998916
-0.364340901086514,3186.56537998916
-0.328151210200338,3186.57537998916
-0.29649690449368,3186.58537998916
-0.270675165692149,3186.59537998916
-0.251068001705327,3186.60537998916
-0.237223402839772,3186.61537998916
-0.227767732008732,3186.62537998916
-0.221595222604745,3186.63537998916
-0.217544229034586,3186.64537998916
-0.214551693129463,3186.65537998916
-0.212046201537615,3186.66537998916
-0.209798795635919,3186.67537998916
-0.207651520259361,3186.68537998916
-0.206111230513368,3186.69537998916
-0.205174597219593,3186.70537998916
-0.204688696922947,3186.71537998916
-0.204389127794639,3186.72537998916
-0.204710627031734,3186.73537998916
-0.205989206509692,3186.74537998916
-0.208130624597267,3186.75537998916
-0.212043752140225,3186.76537998916
-0.217119075414265,3186.77537998916
-0.222788159502293,3186.78537998916
-0.228216894644926,3186.79537998916
-0.233525492310105,3186.80537998916
-0.238318167308109,3186.81537998916
-0.24224445587573,3186.82537998916
-0.245356750041123,3186.83537998916
-0.247630309030795,3186.84537998916
-0.249101117888144,3186.85537998916
-0.250165463364815,3186.86537998916
-0.25077689474362,3186.87537998916
-0.250552721275992,3186.88537998916
-0.249747326855686,3186.89537998916
-0.249781252465317,3186.90537998916
-0.250660696329928,3186.91537998916
-0.25279659474431,3186.92537998916
-0.256609965577146,3186.93537998916
-0.260799533106678,3186.94537998916
-0.265211676704541,3186.95537998916
-0.270325728104673,3186.96537998916
-0.275585147435325,3186.97537998916
-0.281149120807207,3186.98537998916
-0.287327707868213,3186.99537998916
-0.293510386196341,3187.00537998916
-0.300077878472622,3187.01537998916
-0.306753177227432,3187.02537998916
-0.313828454270509,3187.03537998916
-0.321124719298778,3187.04537998916
-0.328816313110588,3187.05537998916
-0.336129804003094,3187.06537998916
-0.343633477661597,3187.07537998916
-0.351424869409282,3187.08537998916
-0.358946666123772,3187.09537998916
-0.366873223176626,3187.10537998916
-0.374893085703668,3187.11537998916
-0.382162165369625,3187.12537998916
-0.389278430108542,3187.13537998916
-0.396301483990082,3187.14537998916
-0.403026603765351,3187.15537998916
-0.41047704286809,3187.16537998916
-0.418118984627918,3187.17537998916
-0.426390835113059,3187.18537998916
-0.435391960489762,3187.19537998916
-0.444464987571671,3187.20537998916
-0.453448138852329,3187.21537998916
-0.462453937308245,3187.22537998916
-0.470958803340817,3187.23537998916
-0.479008064050187,3187.24537998916
-0.486578480820353,3187.25537998916
-0.492225940259465,3187.26537998916
-0.493036933449997,3187.27537998916
-0.486737084959005,3187.28537998916
-0.471333145224674,3187.29537998916
-0.445593072030822,3187.30537998916
-0.411921306418824,3187.31537998916
-0.372117442229713,3187.32537998916
-0.329541314707539,3187.33537998916
-0.287764307055474,3187.34537998916
-0.249289141652973,3187.35537998916
-0.215048745854412,3187.36537998916
-0.186584240333943,3187.37537998916
-0.164511296756499,3187.38537998916
-0.14809977127102,3187.39537998916
-0.136292118156064,3187.40537998916
-0.127814235372281,3187.41537998916
-0.121551495624152,3187.42537998916
-0.11623996058136,3187.43537998916
-0.111977153175272,3187.44537998916
-0.108349908273806,3187.45537998916
-0.104545312902627,3187.46537998916
-0.100773925645149,3187.47537998916
-0.0969067119716825,3187.48537998916
-0.0921163294552064,3187.49537998916
-0.0881216738591743,3187.50537998916
-0.0843018806502562,3187.51537998916
-0.0812796977125857,3187.52537998916
-0.0804109601858525,3187.53537998916
-0.0814204536928662,3187.54537998916
-0.0840166105348189,3187.55537998916
-0.0881242344100673,3187.56537998916
-0.0931531618255955,3187.57537998916
-0.0981568948242724,3187.58537998916
-0.103703726541496,3187.59537998916
-0.109007578091919,3187.60537998916
-0.113913426129229,3187.61537998916
-0.117916188862685,3187.62537998916
-0.121074287299146,3187.63537998916
-0.123133071341972,3187.64537998916
-0.124400622057702,3187.65537998916
-0.125029332896891,3187.66537998916
-0.125327003595746,3187.67537998916
-0.125468130489925,3187.68537998916
-0.125693100377738,3187.69537998916
-0.126048619281629,3187.70537998916
-0.127558818782776,3187.71537998916
-0.129846578767111,3187.72537998916
-0.133038669500135,3187.73537998916
-0.136848845419175,3187.74537998916
-0.141621337005069,3187.75537998916
-0.146238244404123,3187.76537998916
-0.151285545997105,3187.77537998916
-0.155864638676787,3187.78537998916
-0.16093503752624,3187.79537998916
-0.166367214452438,3187.80537998916
-0.172240054964793,3187.81537998916
-0.178848569568979,3187.82537998916
-0.185791254216022,3187.83537998916
-0.193251166107678,3187.84537998916
-0.200902334879393,3187.85537998916
-0.208252720162367,3187.86537998916
-0.215628072108817,3187.87537998916
-0.223140426041069,3187.88537998916
-0.22997925174748,3187.89537998916
-0.237042274791033,3187.90537998916
-0.244294823041088,3187.91537998916
-0.250631973356022,3187.92537998916
-0.258609675767133,3187.93537998916
-0.266209191780658,3187.94537998916
-0.274204417410782,3187.95537998916
-0.282686390288132,3187.96537998916
-0.290861220662548,3187.97537998916
-0.299830125756511,3187.98537998916
-0.308873031593789,3187.99537998916
-0.317874240221063,3188.00537998916
-0.326832409095491,3188.01537998916
-0.335152963246609,3188.02537998916
-0.342940223402761,3188.03537998916
-0.349615917598107,3188.04537998916
-0.352858542402395,3188.05537998916
-0.34987770624652,3188.06537998916
-0.338412392773791,3188.07537998916
-0.317037920112183,3188.08537998916
-0.286059555285842,3188.09537998916
-0.247837500819312,3188.10537998916
-0.205418435262703,3188.11537998916
-0.161630088412766,3188.12537998916
-0.120157068220976,3188.13537998916
-0.0825533769004276,3188.14537998916
-0.0503200014795625,3188.15537998916
-0.0237704039119131,3188.16537998916
-0.00336446791082114,3188.17537998916
0.0121016257489781,3188.18537998916
0.0233906521860213,3188.19537998916
0.0311260360454176,3188.20537998916
0.036666647577831,3188.21537998916
0.0415302229269532,3188.22537998916
0.0458694959985203,3188.23537998916
0.0505939435230035,3188.24537998916
0.0558362952561649,3188.25537998916
0.0611543604740078,3188.26537998916
0.0662179748441282,3188.27537998916
0.0711343538073562,3188.28537998916
0.0759420145244754,3188.29537998916
0.0800936374418565,3188.30537998916
0.0826704966329103,3188.31537998916
0.0840460314550004,3188.32537998916
0.0830105316286511,3188.33537998916
0.0803132585315286,3188.34537998916
0.0760649930980414,3188.35537998916
0.07088325245516,3188.36537998916
0.0658220401940013,3188.37537998916
0.0615833683286112,3188.38537998916
0.0584262363029202,3188.39537998916
0.0556296116028889,3188.40537998916
0.0535146502570355,3188.41537998916
0.0515610295637084,3188.42537998916
0.0496625594890843,3188.43537998916
0.0489083695627412,3188.44537998916
0.0481888628775402,3188.45537998916
0.0475331008329611,3188.46537998916
0.0468019919716204,3188.47537998916
0.0455493359194417,3188.48537998916
0.0441657695604765,3188.49537998916
0.0418312245240925,3188.50537998916
0.0388229915316325,3188.51537998916
0.0348088407672156,3188.52537998916
0.0306865683489742,3188.53537998916
0.0265158171444719,3188.54537998916
0.0226014095832796,3188.55537998916
0.0181004858331692,3188.56537998916
0.0133137325160075,3188.57537998916
0.0073218013464827,3188.58537998916
0.000400874296052593,3188.59537998916
-0.0070222256679853,3188.60537998916
-0.0148762196954415,3188.61537998916
-0.0223282671559702,3188.62537998916
-0.0295999666415487,3188.63537998916
-0.0366357635346695,3188.64537998916
-0.0430912457913394,3188.65537998916
-0.0496292768537731,3188.66537998916
-0.0559494703520424,3188.67537998916
-0.0621684649955033,3188.68537998916
-0.0681676239039524,3188.69537998916
-0.0748022820120933,3188.70537998916
-0.0819260528137142,3188.71537998916
-0.0891852262048426,3188.72537998916
-0.0971169278333107,3188.73537998916
-0.1042684189087,3188.74537998916
-0.110688449409289,3188.75537998916
-0.116139187542589,3188.76537998916
-0.119878037059963,3188.77537998916
-0.120177157892457,3188.78537998916
-0.114908597812189,3188.79537998916
-0.102020594370424,3188.80537998916
-0.0799757532527224,3188.81537998916
-0.0486231930023881,3188.82537998916
-0.00984357150358451,3188.83537998916
0.0341577692081374,3188.84537998916
0.0800282484824259,3188.85537998916
0.125094448521141,3188.86537998916
0.166988229374158,3188.87537998916
0.203711163464845,3188.88537998916
0.234413769949611,3188.89537998916
0.258044863510088,3188.90537998916
0.275310090060574,3188.91537998916
0.286882305516125,3188.92537998916
0.294055998488692,3188.93537998916
0.298379292302108,3188.94537998916
0.300899099648176,3188.95537998916
0.302832800438953,3188.96537998916
0.305312899912652,3188.97537998916
0.308481771823738,3188.98537998916
0.312581009257942,3188.99537998916
0.3170664601386,3189.00537998916
0.321596315896432,3189.01537998916
0.325610697706953,3189.02537998916
0.328862785706317,3189.03537998916
0.33075921186762,3189.04537998916
0.330764857637949,3189.05537998916
0.328886903178062,3189.06537998916
0.325393880462505,3189.07537998916
0.32019477428362,3189.08537998916
0.313940785405235,3189.09537998916
0.307202254674755,3189.10537998916
0.301119011096938,3189.11537998916
0.29593040000842,3189.12537998916
0.291733209982682,3189.13537998916
0.288576682282354,3189.14537998916
0.286046867261492,3189.15537998916
0.283852439417939,3189.16537998916
0.281691448677154,3189.17537998916
0.279750771417845,3189.18537998916
0.27727985650473,3189.19537998916
0.274621288624643,3189.20537998916
0.271527572135052,3189.21537998916
0.267871019462728,3189.22537998916
0.264021009080615,3189.23537998916
0.259417944692319,3189.24537998916
0.254465584022944,3189.25537998916
0.249214018695479,3189.26537998916
0.243378533796751,3189.27537998916
0.237327855541297,3189.28537998916
0.231488473634414,3189.29537998916
0.225148126917017,3189.30537998916
0.217903508150745,3189.31537998916
0.2101896401463,3189.32537998916
0.202284340213721,3189.33537998916
0.194294800573581,3189.34537998916
0.186270240408398,3189.35537998916
0.17825326367617,3189.36537998916
0.169909214147467,3189.37537998916
0.161442805674221,3189.38537998916
0.152289739041393,3189.39537998916
0.142452556036657,3189.40537998916
0.132330655986483,3189.41537998916
0.121688072742574,3189.42537998916
0.110257264790498,3189.43537998916
0.0992515737203233,3189.44537998916
0.0878734811910183,3189.45537998916
0.0764142707039395,3189.46537998916
0.0654282266568465,3189.47537998916
0.0544953756423743,3189.48537998916
0.0443182667021835,3189.49537998916
0.0359463197334951,3189.50537998916
0.0307412471050004,3189.51537998916
0.0316871419203876,3189.52537998916
0.0420049605244697,3189.53537998916
0.0634875445917505,3189.54537998916
0.0951706705160402,3189.55537998916
0.135724801624137,3189.56537998916
0.181927110197543,3189.57537998916
0.229477089069225,3189.58537998916
0.275592579289414,3189.59537998916
0.317732494538768,3189.60537998916
0.353843920227374,3189.61537998916
0.383879370014615,3189.62537998916
0.407727846614783,3189.63537998916
0.425489270833357,3189.64537998916
0.438902648100291,3189.65537998916
0.448892522097777,3189.66537998916
0.45615732733894,3189.67537998916
0.461749452735751,3189.68537998916
0.466089850293,3189.69537998916
0.469986651413074,3189.70537998916
0.473894929689729,3189.71537998916
0.47762947466257,3189.72537998916
0.481355433504487,3189.73537998916
0.484328843642177,3189.74537998916
0.486313831758054,3189.75537998916
0.487171537917918,3189.76537998916
0.486459483557486,3189.77537998916
0.483360154214243,3189.78537998916
0.478585771601956,3189.79537998916
0.471661836646711,3189.80537998916
0.463057267298037,3189.81537998916
0.453788510522831,3189.82537998916
0.443982401951949,3189.83537998916
0.43480708179252,3189.84537998916
0.426096969413092,3189.85537998916
0.41815362479429,3189.86537998916
0.411465813458831,3189.87537998916
0.406203052301357,3189.88537998916
0.402514229559681,3189.89537998916
0.399690974369452,3189.90537998916
0.397354064235369,3189.91537998916
0.395046115653388,3189.92537998916
0.392597660565736,3189.93537998916
0.389209193459674,3189.94537998916
0.384517076501904,3189.95537998916
0.379033877434787,3189.96537998916
0.372644162120426,3189.97537998916
0.365055038615119,3189.98537998916
0.356875901724884,3189.99537998916
0.348003798161857,3190.00537998916
0.338721886518557,3190.01537998916
0.329064761683489,3190.02537998916
0.31945194338545,3190.03537998916
0.309851454080929,3190.04537998916
0.299852536152979,3190.05537998916
0.28956518172518,3190.06537998916
0.278747431816903,3190.07537998916
0.267773588149786,3190.08537998916
0.256377895454599,3190.09537998916
0.244603696407692,3190.10537998916
0.231711780105563,3190.11537998916
0.218749969054904,3190.12537998916
0.205368155874211,3190.13537998916
0.192309278168333,3190.14537998916
0.178775471656273,3190.15537998916
0.16578801933513,3190.16537998916
0.152620944289074,3190.17537998916
0.139345800017321,3190.18537998916
0.126379963149895,3190.19537998916
0.114201848427642,3190.20537998916
0.102691755626218,3190.21537998916
0.0933354419044624,3190.22537998916
0.0879509504102174,3190.23537998916
0.0897923630257329,3190.24537998916
0.10100146971057,3190.25537998916
0.12294074526052,3190.26537998916
0.154887268558048,3190.27537998916
0.194428120207004,3190.28537998916
0.238044494445536,3190.29537998916
0.28200407553721,3190.30537998916
0.324382615902664,3190.31537998916
0.362607212446976,3190.32537998916
0.394819987294543,3190.33537998916
0.420396060861028,3190.34537998916
0.439622426920575,3190.35537998916
0.453512762936821,3190.36537998916
0.462486193229015,3190.37537998916
0.468300997035829,3190.38537998916
0.471489989275537,3190.39537998916
0.472472869357963,3190.40537998916
0.472078623747534,3190.41537998916
0.47096874602507,3190.42537998916
0.469934745777449,3190.43537998916
0.468571522121042,3190.44537998916
0.467202377253499,3190.45537998916
0.466123103100608,3190.46537998916
0.464167940855811,3190.47537998916
0.461284836375762,3190.48537998916
0.456148904580888,3190.49537998916
0.44964931976149,3190.50537998916
0.440645178316499,3190.51537998916
0.430197770769636,3190.52537998916
0.419400268666721,3190.53537998916
0.408710255572513,3190.54537998916
0.400068982475837,3190.55537998916
0.392035239565193,3190.56537998916
0.385586757736024,3190.57537998916
0.380062563775869,3190.58537998916
0.376000242008331,3190.59537998916
0.373319717849935,3190.60537998916
0.371463516206647,3190.61537998916
0.369719392144122,3190.62537998916
0.368194880309159,3190.63537998916
0.365869392714187,3190.64537998916
0.362313065836831,3190.65537998916
0.357209027446493,3190.66537998916
0.350796628469764,3190.67537998916
0.343080456492591,3190.68537998916
0.334975905598153,3190.69537998916
0.326650847790868,3190.70537998916
0.318119312044416,3190.71537998916
0.308776796936639,3190.72537998916
0.299239105365693,3190.73537998916
0.289209646441383,3190.74537998916
0.279333654695243,3190.75537998916
0.26877916545566,3190.76537998916
0.25782948106555,3190.77537998916
0.24648298223737,3190.78537998916
0.235333411093625,3190.79537998916
0.223692070612926,3190.80537998916
0.212292734747332,3190.81537998916
0.200245290151313,3190.82537998916
0.187693596164202,3190.83537998916
0.175541866249968,3190.84537998916
0.162717903689241,3190.85537998916
0.150789792102278,3190.86537998916
0.138990936844513,3190.87537998916
0.12783943257846,3190.88537998916
0.116384259722168,3190.89537998916
0.105078796826752,3190.90537998916
0.0933514100525721,3190.91537998916
0.0827553590951145,3190.92537998916
0.0756780366505276,3190.93537998916
0.074224304045002,3190.94537998916
0.0823176320966632,3190.95537998916
0.100964649327204,3190.96537998916
0.130168229095202,3190.97537998916
0.168708004000138,3190.98537998916
0.21277829109149,3190.99537998916
0.259539686364293,3191.00537998916
0.30515328492293,3191.01537998916
0.34758982370621,3191.02537998916
0.384620566550069,3191.03537998916
0.414654704315805,3191.04537998916
0.438901428576314,3191.05537998916
0.457082531612786,3191.06537998916
0.470545932939123,3191.07537998916
0.479973161226948,3191.08537998916
0.486467346781423,3191.09537998916
0.490616697945962,3191.10537998916
0.49301212604208,3191.11537998916
0.494610866341111,3191.12537998916
0.495172579858587,3191.13537998916
0.495594664947732,3191.14537998916
0.495902857383248,3191.15537998916
0.496152257334428,3191.16537998916
0.496628316264086,3191.17537998916
0.495652693554973,3191.18537998916
0.493516222968955,3191.19537998916
0.488695615358678,3191.20537998916
0.480856278240512,3191.21537998916
0.470800832170081,3191.22537998916
0.458887878893011,3191.23537998916
0.447228884758236,3191.24537998916
0.436707143744834,3191.25537998916
0.426878050182668,3191.26537998916
0.417953879022129,3191.27537998916
0.410513684428497,3191.28537998916
0.40452319465789,3191.29537998916
0.399798134230316,3191.30537998916
0.395969913922935,3191.31537998916
0.393175503478553,3191.32537998916
0.390753056326775,3191.33537998916
0.388083893194627,3191.34537998916
0.385337707777376,3191.35537998916
0.381260881177094,3191.36537998916
0.375947467498859,3191.37537998916
0.36970894924397,3191.38537998916
0.362458762393826,3191.39537998916
0.354673839784992,3191.40537998916
0.346303334009131,3191.41537998916
0.336974259362954,3191.42537998916
0.327060172254206,3191.43537998916
0.316600744880954,3191.44537998916
0.305679739097579,3191.45537998916
0.294760356877532,3191.46537998916
0.284054931723845,3191.47537998916
0.273508859874903,3191.48537998916
0.262834601862835,3191.49537998916
0.252018673714421,3191.50537998916
0.240443219440014,3191.51537998916
0.228633067019997,3191.52537998916
0.216994961953926,3191.53537998916
0.205352881249099,3191.54537998916
0.193635854296334,3191.55537998916
0.180853197809389,3191.56537998916
0.168267012726719,3191.57537998916
0.15505159782399,3191.58537998916
0.142224478267422,3191.59537998916
0.129859979297485,3191.60537998916
0.117217386912231,3191.61537998916
0.104301937172585,3191.62537998916
0.0907048431885001,3191.63537998916
0.0773959721700971,3191.64537998916
0.0642437047388358,3191.65537998916
0.0535405000627209,3191.66537998916
0.0472813525046998,3191.67537998916
0.0482919223236011,3191.68537998916
0.0595288289815638,3191.69537998916
0.0822528362541502,3191.70537998916
0.11559418402143,3191.71537998916
0.157344639469397,3191.72537998916
0.203806429385562,3191.73537998916
0.251276081045431,3191.74537998916
0.296895879646727,3191.75537998916
0.337710846244509,3191.76537998916
0.372486197028274,3191.77537998916
0.400750908297746,3191.78537998916
0.422087275023742,3191.79537998916
0.438224617794885,3191.80537998916
0.449360350850283,3191.81537998916
0.456883571997521,3191.82537998916
0.461689074722188,3191.83537998916
0.464513921273487,3191.84537998916
0.465765081848249,3191.85537998916
0.466524275357941,3191.86537998916
0.467398442940637,3191.87537998916
0.469003250313613,3191.88537998916
0.470268851434509,3191.89537998916
0.471323481796613,3191.90537998916
0.471694343014767,3191.91537998916
0.470276322158325,3191.92537998916
0.466491113785433,3191.93537998916
0.460776765388743,3191.94537998916
0.453005752054604,3191.95537998916
0.443865057241698,3191.96537998916
0.432671045547238,3191.97537998916
0.421007994183025,3191.98537998916
0.409433912748226,3191.99537998916
0.398060379466749,3192.00537998916
0.387603622308858,3192.01537998916
0.378716465570511,3192.02537998916
0.371433831359681,3192.03537998916
0.36558443812175,3192.04537998916
0.360318212184995,3192.05537998916
0.355732499308472,3192.06537998916
0.350983345321309,3192.07537998916
0.346096291598861,3192.08537998916
0.340177326384166,3192.09537998916
0.333089646480404,3192.10537998916
0.325070403333596,3192.11537998916
0.316317373404454,3192.12537998916
0.307236095069228,3192.13537998916
0.298167604408273,3192.14537998916
0.289078631318595,3192.15537998916
0.279668188378493,3192.16537998916
0.269697934607075,3192.17537998916
0.259316536115703,3192.18537998916
0.247879392327976,3192.19537998916
0.235222081643237,3192.20537998916
0.221991068200622,3192.21537998916
0.208164170461004,3192.22537998916
0.193881025576445,3192.23537998916
0.179840895263105,3192.24537998916
0.165744489722013,3192.25537998916
0.1517211582721,3192.26537998916
0.138427836198877,3192.27537998916
0.125049831955885,3192.28537998916
0.112716449471632,3192.29537998916
0.0996054945443492,3192.30537998916
0.0865366248257272,3192.31537998916
0.0728110703941049,3192.32537998916
0.0582987206672141,3192.33537998916
0.0435319719676016,3192.34537998916
0.0286823908150451,3192.35537998916
0.0143567355570511,3192.36537998916
-6.70990103092427e-05,3192.37537998916
-0.0140869122570051,3192.38537998916
-0.0281956944252655,3192.39537998916
-0.0424142966160875,3192.40537998916
-0.0563041178483258,3192.41537998916
-0.0703405144368149,3192.42537998916
-0.0831490702638414,3192.43537998916
-0.0929923023995154,3192.44537998916
-0.0971458203911367,3192.45537998916
-0.09279857561013,3192.46537998916
-0.077428523710319,3192.47537998916
-0.0514635608585531,3192.48537998916
-0.0170127886851059,3192.49537998916
0.0237015081694875,3192.50537998916
0.0663489322940849,3192.51537998916
0.107463789362565,3192.52537998916
0.145110025490049,3192.53537998916
0.177561334517157,3192.54537998916
0.203207003442367,3192.55537998916
0.222404039422309,3192.56537998916
0.235652212095168,3192.57537998916
0.244021677768425,3192.58537998916
0.248460157225789,3192.59537998916
0.250947241452124,3192.60537998916
0.251557804337089,3192.61537998916
0.250877831446609,3192.62537998916
0.249785326493445,3192.63537998916
0.248521831667875,3192.64537998916
0.2475817418161,3192.65537998916
0.246236868995673,3192.66537998916
0.245130124478763,3192.67537998916
0.243183219862972,3192.68537998916
0.241013720885824,3192.69537998916
0.237641613937722,3192.70537998916
0.232366927982893,3192.71537998916
0.224748035229982,3192.72537998916
0.215740221317361,3192.73537998916
0.205789000302811,3192.74537998916
0.195300138592482,3192.75537998916
0.185251693821413,3192.76537998916
0.176171832720253,3192.77537998916
0.167563302625457,3192.78537998916
0.160104483314955,3192.79537998916
0.153526527961963,3192.80537998916
0.14846688323296,3192.81537998916
0.144213228874506,3192.82537998916
0.141369607226981,3192.83537998916
0.139411008180826,3192.84537998916
0.138124095995177,3192.85537998916
0.137419753451167,3192.86537998916
0.135851154114917,3192.87537998916
0.133638788892671,3192.88537998916
0.130780841815656,3192.89537998916
0.126627322265777,3192.90537998916
0.121473731104887,3192.91537998916
0.11507389928908,3192.92537998916
0.107668247376909,3192.93537998916
0.0995270283769653,3192.94537998916
0.0912191429376128,3192.95537998916
0.0830307501884898,3192.96537998916
0.0752184401318864,3192.97537998916
0.0670232187393493,3192.98537998916
0.0586267829184773,3192.99537998916
0.0501144984768429,3193.00537998916
0.0411476239928684,3193.01537998916
0.0320669735617598,3193.02537998916
0.0225539574547916,3193.03537998916
0.0125465896203683,3193.04537998916
0.00189612161041674,3193.05537998916
-0.00923124454084714,3193.06537998916
-0.0215095511759406,3193.07537998916
-0.0342576085834351,3193.08537998916
-0.047127392864133,3193.09537998916
-0.0602500429714225,3193.10537998916
-0.0733920884793648,3193.11537998916
-0.0871968848058125,3193.12537998916
-0.101682073875105,3193.13537998916
-0.115676016232691,3193.14537998916
-0.130577919805047,3193.15537998916
-0.145623323994256,3193.16537998916
-0.160523666847715,3193.17537998916
-0.174595775244756,3193.18537998916
-0.185138181520633,3193.19537998916
-0.190235638264396,3193.20537998916
-0.186374839606001,3193.21537998916
-0.172365083385508,3193.22537998916
-0.147915886902479,3193.23537998916
-0.115387080801242,3193.24537998916
-0.0772385255729961,3193.25537998916
-0.0367169642987938,3193.26537998916
0.00239075476932635,3193.27537998916
0.0375102218745872,3193.28537998916
0.0671997495636539,3193.29537998916
0.0906117391607967,3193.30537998916
0.107836996023617,3193.31537998916
0.119400829740915,3193.32537998916
0.126915281895088,3193.33537998916
0.131224398472036,3193.34537998916
0.132722566943711,3193.35537998916
0.132113433194723,3193.36537998916
0.131059540083588,3193.37537998916
0.129778517660518,3193.38537998916
0.128704071442029,3193.39537998916
0.127689347396471,3193.40537998916
0.127003492017955,3193.41537998916
0.126344918128094,3193.42537998916
0.125342247656533,3193.43537998916
0.123772282973286,3193.44537998916
0.120535692395492,3193.45537998916
0.114992817357182,3193.46537998916
0.107308345014438,3193.47537998916
0.098157158838539,3193.48537998916
0.0876008248260272,3193.49537998916
0.0772337268276696,3193.50537998916
0.0666932289137314,3193.51537998916
0.05777284127082,3193.52537998916
0.0501867446546933,3193.53537998916
0.0445473539738405,3193.54537998916
0.0399343558103378,3193.55537998916
0.0357245303063322,3193.56537998916
0.0321418774034449,3193.57537998916
0.0279924790955747,3193.58537998916
0.0236773964569841,3193.59537998916
0.019211715482411,3193.60537998916
0.0140538847424393,3193.61537998916
0.00801208458242897,3193.62537998916
0.00139044149980561,3193.63537998916
-0.00580770095747415,3193.64537998916
-0.0132577041006587,3193.65537998916
-0.0216308333914824,3193.66537998916
-0.0302665212723141,3193.67537998916
-0.0389189666023581,3193.68537998916
-0.0481490693110011,3193.69537998916
-0.0575483915590239,3193.70537998916
-0.0670453183252346,3193.71537998916
-0.0772624249422728,3193.72537998916
-0.0872035706075778,3193.73537998916
-0.0972906569054597,3193.74537998916
-0.107622602817888,3193.75537998916
-0.117812702136504,3193.76537998916
-0.128435980414283,3193.77537998916
-0.139779115865869,3193.78537998916
-0.151470322270714,3193.79537998916
-0.163132324206119,3193.80537998916
-0.174765612927169,3193.81537998916
-0.186065069752567,3193.82537998916
-0.196629465342192,3193.83537998916
-0.207593088721897,3193.84537998916
-0.218595762154626,3193.85537998916
-0.229692350768423,3193.86537998916
-0.241131420856253,3193.87537998916
-0.252182372619098,3193.88537998916
-0.263234961633335,3193.89537998916
-0.274272966162843,3193.90537998916
-0.285655867740918,3193.91537998916
-0.296922314140737,3193.92537998916
-0.308626896602032,3193.93537998916
-0.32087014413838,3193.94537998916
-0.332878815247424,3193.95537998916
-0.345348941005289,3193.96537998916
-0.357544180067061,3193.97537998916
-0.367417105381977,3193.98537998916
-0.373624183259197,3193.99537998916
-0.372481628879591,3194.00537998916
-0.361725536740872,3194.01537998916
-0.340813838981267,3194.02537998916
-0.311006855432564,3194.03537998916
-0.274679926202952,3194.04537998916
-0.235003833730364,3194.05537998916
-0.194836955669194,3194.06537998916
-0.157394097681802,3194.07537998916
-0.124953602945205,3194.08537998916
-0.0982934919322463,3194.09537998916
-0.0782514894331174,3194.10537998916
-0.0637412802784065,3194.11537998916
-0.0534633211142963,3194.12537998916
-0.0466424295281296,3194.13537998916
-0.0417098177088842,3194.14537998916
-0.0381801088095284,3194.15537998916
-0.0358535512764937,3194.16537998916
-0.0347858515985814,3194.17537998916
-0.0339548129822241,3194.18537998916
-0.0333286856215362,3194.19537998916
-0.0329343170997352,3194.20537998916
-0.0322511190905553,3194.21537998916
-0.0319905243605913,3194.22537998916
-0.0320144259780326,3194.23537998916
-0.0328828603620028,3194.24537998916
-0.0348256547634545,3194.25537998916
-0.0383269034988599,3194.26537998916
-0.0439938535095431,3194.27537998916
-0.0504190627905851,3194.28537998916
-0.0575253148092617,3194.29537998916
-0.0649317585209286,3194.30537998916
-0.0717497617752196,3194.31537998916
-0.0786994899919806,3194.32537998916
-0.0846600259158778,3194.33537998916
-0.0899076318762779,3194.34537998916
-0.0944681530016814,3194.35537998916
-0.0978086555433472,3194.36537998916
-0.100687725902885,3194.37537998916
-0.102907288470968,3194.38537998916
-0.104590681006485,3194.39537998916
-0.106238765915882,3194.40537998916
-0.108009322599197,3194.41537998916
-0.109904195227,3194.42537998916
-0.112168820667645,3194.43537998916
-0.115082550468883,3194.44537998916
-0.11812262518611,3194.45537998916
-0.121342696518454,3194.46537998916
-0.124937914138268,3194.47537998916
-0.128416218857939,3194.48537998916
-0.131910341052638,3194.49537998916
-0.135675813569358,3194.50537998916
-0.140045392397648,3194.51537998916
-0.145642321792631,3194.52537998916
-0.152008805800851,3194.53537998916
-0.159374001573266,3194.54537998916
-0.1668334684783,3194.55537998916
-0.175035445582986,3194.56537998916
-0.18308603678881,3194.57537998916
-0.190756602480213,3194.58537998916
-0.19791986697129,3194.59537998916
-0.205362178182115,3194.60537998916
-0.212725790860485,3194.61537998916
-0.220602097169944,3194.62537998916
-0.229357620114596,3194.63537998916
-0.238447080014229,3194.64537998916
-0.248085330013623,3194.65537998916
-0.257107079121711,3194.66537998916
-0.266576704552984,3194.67537998916
-0.2755756389242,3194.68537998916
-0.284318820753683,3194.69537998916
-0.292997883267993,3194.70537998916
-0.302561586176888,3194.71537998916
-0.312006888142591,3194.72537998916
-0.321482985064569,3194.73537998916
-0.331776186164018,3194.74537998916
-0.34207327721069,3194.75537998916
-0.351899667362852,3194.76537998916
-0.361724821865945,3194.77537998916
-0.371181306622322,3194.78537998916
-0.379979201969029,3194.79537998916
-0.38695123859078,3194.80537998916
-0.390726351659064,3194.81537998916
-0.389174590076176,3194.82537998916
-0.37946553438531,3194.83537998916
-0.361208468070902,3194.84537998916
-0.334497004630041,3194.85537998916
-0.301243083210543,3194.86537998916
-0.263760471471838,3194.87537998916
-0.225142600415593,3194.88537998916
-0.187970747549392,3194.89537998916
-0.154225127050964,3194.90537998916
-0.125207522952033,3194.91537998916
-0.101151490443643,3194.92537998916
-0.0828055205648282,3194.93537998916
-0.0691048799414874,3194.94537998916
-0.0593760580240161,3194.95537998916
-0.0520785275662699,3194.96537998916
-0.0466089530524881,3194.97537998916
-0.0426634871557254,3194.98537998916
-0.0397159455226761,3194.99537998916
-0.0375635573013838,3195.00537998916
-0.0366057754549532,3195.01537998916
-0.0360503337854719,3195.02537998916
-0.0355957074592043,3195.03537998916
-0.0354544932185566,3195.04537998916
-0.0357514145172943,3195.05537998916
-0.0371369029415556,3195.06537998916
-0.0400030209274821,3195.07537998916
-0.0446661899211432,3195.08537998916
-0.0512668132806244,3195.09537998916
-0.0591768835311528,3195.10537998916
-0.0678521505865223,3195.11537998916
-0.0761197290820554,3195.12537998916
-0.0842571078037587,3195.13537998916
-0.0917082516329575,3195.14537998916
-0.0979306851746704,3195.15537998916
-0.102800102967067,3195.16537998916
-0.107122526153966,3195.17537998916
-0.109567028063967,3195.18537998916
-0.111382677804617,3195.19537998916
-0.111741572118408,3195.20537998916
-0.111715770256259,3195.21537998916
-0.111232584332946,3195.22537998916
-0.111043292346469,3195.23537998916
-0.111502171702071,3195.24537998916
-0.112833617724235,3195.25537998916
-0.115607035311244,3195.26537998916
-0.119266785025264,3195.27537998916
-0.122931849717655,3195.28537998916
-0.126804906997016,3195.29537998916
-0.130343388596459,3195.30537998916
-0.134491359021112,3195.31537998916
-0.139358867301513,3195.32537998916
-0.144531869604825,3195.33537998916
-0.150132595278869,3195.34537998916
-0.155506893906083,3195.35537998916
-0.160973083516196,3195.36537998916
-0.167063644608677,3195.37537998916
-0.173489127513955,3195.38537998916
-0.179901794813973,3195.39537998916
-0.187120254309116,3195.40537998916
-0.194627843880581,3195.41537998916
-0.202883521121744,3195.42537998916
-0.211263407018577,3195.43537998916
-0.219756262455293,3195.44537998916
-0.228394308650956,3195.45537998916
-0.237605845368887,3195.46537998916
-0.246690204654358,3195.47537998916
-0.256412674294614,3195.48537998916
-0.266386268035935,3195.49537998916
-0.276830162466728,3195.50537998916
-0.287209115614096,3195.51537998916
-0.297354682940789,3195.52537998916
-0.307204889831793,3195.53537998916
-0.314746188646427,3195.54537998916
-0.319811822104684,3195.55537998916
-0.319701478835508,3195.56537998916
-0.312704529136965,3195.57537998916
-0.297015384018368,3195.58537998916
-0.271853006002664,3195.59537998916
-0.238893015115812,3195.60537998916
-0.19957546900563,3195.61537998916
-0.156753661283773,3195.62537998916
-0.113673366995099,3195.63537998916
-0.0727795363361516,3195.64537998916
-0.0360249403578725,3195.65537998916
-0.00494886778669614,3195.66537998916
0.0210842467167878,3195.67537998916
0.0421006319953343,3195.68537998916
0.0584725333976476,3195.69537998916
0.0714344615887195,3195.70537998916
0.0807500272464357,3195.71537998916
0.0877367817086002,3195.72537998916
0.0928102669885709,3195.73537998916
0.0969055465258142,3195.74537998916
0.100356184512094,3195.75537998916
0.103170753352467,3195.76537998916
0.105298335418052,3195.77537998916
0.107728313679798,3195.78537998916
0.108936255106729,3195.79537998916
0.109263456790147,3195.80537998916
0.10818288249458,3195.81537998916
0.104744251706404,3195.82537998916
0.0996000481084067,3195.83537998916
0.0930225909926896,3195.84537998916
0.0856909950292722,3195.85537998916
0.0789205713689464,3195.86537998916
0.0730374235601083,3195.87537998916
0.0681886737755613,3195.88537998916
0.0648094200144242,3195.89537998916
0.0619928257927822,3195.90537998916
0.0604999692576825,3195.91537998916
0.060183527163504,3195.92537998916
0.0607196943683583,3195.93537998916
0.0624407390929399,3195.94537998916
0.064921769130174,3195.95537998916
0.06703093832053,3195.96537998916
0.06887325869129,3195.97537998916
0.0698878309454523,3195.98537998916
0.0701241663990099,3195.99537998916
0.0696788893244551,3196.00537998916
0.0674180418616973,3196.01537998916
0.063437461442692,3196.02537998916
0.0582216619712326,3196.03537998916
0.051400711213055,3196.04537998916
0.0443562643841995,3196.05537998916
0.036637306147078,3196.06537998916
0.0286784253946868,3196.07537998916
0.0197682197654435,3196.08537998916
0.00990806787706168,3196.09537998916
-0.000289302233203615,3196.10537998916
-0.0110330397359936,3196.11537998916
-0.0211493260592528,3196.12537998916
-0.030875096832238,3196.13537998916
-0.0404843284870819,3196.14537998916
-0.0494983757633262,3196.15537998916
-0.0588547049005166,3196.16537998916
-0.068212363373255,3196.17537998916
-0.0777025197962002,3196.18537998916
-0.0876306971738984,3196.19537998916
-0.0974724211403178,3196.20537998916
-0.107549187606226,3196.21537998916
-0.117825565690679,3196.22537998916
-0.128064680437429,3196.23537998916
-0.138075508509775,3196.24537998916
-0.148119334531088,3196.25537998916
-0.157926790912555,3196.26537998916
-0.168124372790908,3196.27537998916
-0.178050507596619,3196.28537998916
-0.187498700318062,3196.29537998916
-0.195839750650116,3196.30537998916
-0.200699069884915,3196.31537998916
-0.200073262315076,3196.32537998916
-0.191162667251158,3196.33537998916
-0.172847607239629,3196.34537998916
-0.144681327671033,3196.35537998916
-0.107056643907158,3196.36537998916
-0.0624740254106367,3196.37537998916
-0.0139287870405327,3196.38537998916
0.0353230806072956,3196.39537998916
0.0826606862880981,3196.40537998916
0.125705836326672,3196.41537998916
0.163293164828529,3196.42537998916
0.194095977376983,3196.43537998916
0.218678040486826,3196.44537998916
0.237633236860901,3196.45537998916
0.252377176741869,3196.46537998916
0.263693766349629,3196.47537998916
0.272718930085538,3196.48537998916
0.280143043355464,3196.49537998916
0.286207818526663,3196.50537998916
0.291126842877316,3196.51537998916
0.295189241687051,3196.52537998916
0.299027765026822,3196.53537998916
0.302462258603719,3196.54537998916
0.30560301175369,3196.55537998916
0.30811240478881,3196.56537998916
0.310250239992552,3196.57537998916
0.310805438087761,3196.58537998916
0.309639635310259,3196.59537998916
0.305763099812821,3196.60537998916
0.299098676684399,3196.61537998916
0.290850254994549,3196.62537998916
0.281531660743174,3196.63537998916
0.272436923803635,3196.64537998916
0.263601693615986,3196.65537998916
0.255800893609666,3196.66537998916
0.248079477159041,3196.67537998916
0.241417633916922,3196.68537998916
0.235534398639451,3196.69537998916
0.229890623885523,3196.70537998916
0.225676299080963,3196.71537998916
0.222014402840105,3196.72537998916
0.218864973640791,3196.73537998916
0.215729638559627,3196.74537998916
0.212169116294082,3196.75537998916
0.207857609540126,3196.76537998916
0.202469068555017,3196.77537998916
0.195831309493697,3196.78537998916
0.188367118037189,3196.79537998916
0.17996367794431,3196.80537998916
0.171400515587787,3196.81537998916
0.162654272763209,3196.82537998916
0.153141348099173,3196.83537998916
0.144073396395557,3196.84537998916
0.13458948908061,3196.85537998916
0.125160679622447,3196.86537998916
0.115797960453173,3196.87537998916
0.10603795222139,3196.88537998916
0.0963027333921503,3196.89537998916
0.0862544477452446,3196.90537998916
0.0758814810288052,3196.91537998916
0.0652619218936216,3196.92537998916
0.0541982893750095,3196.93537998916
0.0432910192846333,3196.94537998916
0.0316863822637347,3196.95537998916
0.0200193231639053,3196.96537998916
0.00781985283134732,3196.97537998916
-0.00452286387775684,3196.98537998916
-0.0168563544495585,3196.99537998916
-0.0291039575955165,3197.00537998916
-0.041564392337883,3197.01537998916
-0.0540437402804281,3197.02537998916
-0.0660437191644061,3197.03537998916
-0.0774049352324046,3197.04537998916
-0.0886221417599496,3197.05537998916
-0.0996219549573077,3197.06537998916
-0.109651989531134,3197.07537998916
-0.118395514397749,3197.08537998916
-0.123927481321784,3197.09537998916
-0.123528234227423,3197.10537998916
-0.114263720475415,3197.11537998916
-0.0942279258595504,3197.12537998916
-0.0631073312546594,3197.13537998916
-0.0233952107041926,3197.14537998916
0.0222315461313753,3197.15537998916
0.0706940048285438,3197.16537998916
0.119219457326895,3197.17537998916
0.165001918987963,3197.18537998916
0.205675358758419,3197.19537998916
0.240765497654313,3197.20537998916
0.269296900362177,3197.21537998916
0.291631416549733,3197.22537998916
0.308544115009638,3197.23537998916
0.320966685817788,3197.24537998916
0.329692047439546,3197.25537998916
0.335861993578019,3197.26537998916
0.340208050879229,3197.27537998916
0.343488730055082,3197.28537998916
0.345494053534843,3197.29537998916
0.347525972375027,3197.30537998916
0.348629219256631,3197.31537998916
0.349699489240392,3197.32537998916
0.349656909771213,3197.33537998916
0.348352529402089,3197.34537998916
0.34497245933492,3197.35537998916
0.339801077296822,3197.36537998916
0.332957342946738,3197.37537998916
0.324483875687153,3197.38537998916
0.314766446660815,3197.39537998916
0.304154144770173,3197.40537998916
0.293468763494952,3197.41537998916
0.283006588511496,3197.42537998916
0.273094727007068,3197.43537998916
0.264153001674175,3197.44537998916
0.256564015755907,3197.45537998916
0.250398145083538,3197.46537998916
0.245614052214295,3197.47537998916
0.241674895254694,3197.48537998916
0.238041995024257,3197.49537998916
0.235240612695712,3197.50537998916
0.231674411152913,3197.51537998916
0.227878864701964,3197.52537998916
0.223268295777462,3197.53537998916
0.21797210795321,3197.54537998916
0.21195413980936,3197.55537998916
0.204877126746844,3197.56537998916
0.197258364840358,3197.57537998916
0.188954003340611,3197.58537998916
0.180197315774493,3197.59537998916
0.170744549157117,3197.60537998916
0.161300074279278,3197.61537998916
0.151055224684995,3197.62537998916
0.140179718180121,3197.63537998916
0.129187283352341,3197.64537998916
0.118421053106774,3197.65537998916
0.107657721159582,3197.66537998916
0.0970320488910563,3197.67537998916
0.0866003017306458,3197.68537998916
0.0759151111588283,3197.69537998916
0.0652582920256711,3197.70537998916
0.0542328742391904,3197.71537998916
0.0433333857351553,3197.72537998916
0.0321568740491998,3197.73537998916
0.0210841469403515,3197.74537998916
0.00978337122040784,3197.75537998916
-0.00105068120961969,3197.76537998916
-0.0118327106208791,3197.77537998916
-0.0227980781931404,3197.78537998916
-0.0342072905756334,3197.79537998916
-0.0455211097684041,3197.80537998916
-0.0574505931574718,3197.81537998916
-0.0693845639345735,3197.82537998916
-0.0813003787713082,3197.83537998916
-0.0928070226691981,3197.84537998916
-0.103539333647006,3197.85537998916
-0.114224043996405,3197.86537998916
-0.12541240206704,3197.87537998916
-0.136607995976892,3197.88537998916
-0.148152339351403,3197.89537998916
-0.159169424958679,3197.90537998916
-0.167904637889927,3197.91537998916
-0.173263900511773,3197.92537998916
-0.172181930203091,3197.93537998916
-0.16119886727809,3197.94537998916
-0.139620874814814,3197.95537998916
-0.106647464634554,3197.96537998916
-0.0637342704724737,3197.97537998916
-0.0154651387954581,3197.98537998916
0.0360750996993858,3197.99537998916
0.086987336591966,3198.00537998916
0.135426583818967,3198.01537998916
0.178878223797854,3198.02537998916
0.215616060056378,3198.03537998916
0.24547470325785,3198.04537998916
0.268795918498596,3198.05537998916
0.286884435401991,3198.06537998916
0.299879076091298,3198.07537998916
0.309177178012803,3198.08537998916
0.31599709159187,3198.09537998916
0.321316969823796,3198.10537998916
0.325189713272677,3198.11537998916
0.327809280340436,3198.12537998916
0.329412769019198,3198.13537998916
0.330053618941928,3198.14537998916
0.330091759904207,3198.15537998916
0.329540239606303,3198.16537998916
0.327489680158417,3198.17537998916
0.324224186834384,3198.18537998916
0.319733009412745,3198.19537998916
0.313809799099012,3198.20537998916
0.306442629981006,3198.21537998916
0.297378676478921,3198.22537998916
0.287228308964706,3198.23537998916
0.276451434588503,3198.24537998916
0.266259885749493,3198.25537998916
0.255943271028171,3198.26537998916
0.24689726730056,3198.27537998916
0.238617345163795,3198.28537998916
0.231287287163079,3198.29537998916
0.225409095006825,3198.30537998916
0.220096930720103,3198.31537998916
0.21571452085873,3198.32537998916
0.211867243517652,3198.33537998916
0.207855012581189,3198.34537998916
0.203234068440178,3198.35537998916
0.198402316101279,3198.36537998916
0.192981737669774,3198.37537998916
0.186754220731167,3198.38537998916
0.179981436515939,3198.39537998916
0.172508498689195,3198.40537998916
0.16406532029996,3198.41537998916
0.154840828265123,3198.42537998916
0.145402316401741,3198.43537998916
0.135759685559417,3198.44537998916
0.125993507131122,3198.45537998916
0.115562974764921,3198.46537998916
0.105216465688746,3198.47537998916
0.0948553406650965,3198.48537998916
0.0844017525772503,3198.49537998916
0.0739015919769648,3198.50537998916
0.0634974483496426,3198.51537998916
0.0526633543656211,3198.52537998916
0.0415328559058471,3198.53537998916
0.0300930229809846,3198.54537998916
0.0190998802413088,3198.55537998916
0.00812173697990148,3198.56537998916
-0.002601073939672,3198.57537998916
-0.0133681209825184,3198.58537998916
-0.0241550444713048,3198.59537998916
-0.0348922093762277,3198.60537998916
-0.0462031097526544,3198.61537998916
-0.057780400860154,3198.62537998916
-0.0697936893756459,3198.63537998916
-0.0817235847186471,3198.64537998916
-0.0935187786241459,3198.65537998916
-0.105594311094559,3198.66537998916
-0.117118658729805,3198.67537998916
-0.128972857633337,3198.68537998916
-0.140654423932708,3198.69537998916
-0.152614448054803,3198.70537998916
-0.163556968526291,3198.71537998916
-0.171960112411879,3198.72537998916
-0.175610034400739,3198.73537998916
-0.171295556421889,3198.74537998916
-0.157058547082036,3198.75537998916
-0.132207239428468,3198.76537998916
-0.0972165313163887,3198.77537998916
-0.0546260503789498,3198.78537998916
-0.00659651499150484,3198.79537998916
0.0430886064895307,3198.80537998916
0.0914394904073931,3198.81537998916
0.135607865107739,3198.82537998916
0.174838160248473,3198.83537998916
0.20748807391381,3198.84537998916
0.234019934744262,3198.85537998916
0.254338894297847,3198.86537998916
0.269132230566665,3198.87537998916
0.280024869548317,3198.88537998916
0.287300505978433,3198.89537998916
0.291913106279639,3198.90537998916
0.29519137827252,3198.91537998916
0.296621218530923,3198.92537998916
0.297217282547235,3198.93537998916
0.297614144311686,3198.94537998916
0.297081726193792,3198.95537998916
0.295935052969688,3198.96537998916
0.294075585792861,3198.97537998916
0.290800201790204,3198.98537998916
0.285553074542987,3198.99537998916
0.2782453901349,3199.00537998916
0.268513612581726,3199.01537998916
0.257842944457996,3199.02537998916
0.246171519996881,3199.03537998916
0.234412817454077,3199.04537998916
0.222956477406972,3199.05537998916
0.212386890437494,3199.06537998916
0.202869712716255,3199.07537998916
0.194717568345595,3199.08537998916
0.188388928326382,3199.09537998916
0.182984124959764,3199.10537998916
0.178555946977173,3199.11537998916
0.175321789962071,3199.12537998916
0.172561252341766,3199.13537998916
0.170572883598575,3199.14537998916
0.168438771292451,3199.15537998916
0.165992794017671,3199.16537998916
0.162733132349246,3199.17537998916
0.158008254001948,3199.18537998916
0.152293416070421,3199.19537998916
0.145326344282473,3199.20537998916
0.137216294315726,3199.21537998916
0.129010856576786,3199.22537998916
0.120394124019397,3199.23537998916
0.111679786330792,3199.24537998916
0.103528007871666,3199.25537998916
0.0947513631962559,3199.26537998916
0.0858578379880905,3199.27537998916
0.0770456298576241,3199.28537998916
0.0674114768900197,3199.29537998916
0.0575383341467213,3199.30537998916
0.0474855135745932,3199.31537998916
0.0375024314370598,3199.32537998916
0.027406115955527,3199.33537998916
0.0173487506975336,3199.34537998916
0.00700952154427636,3199.35537998916
-0.00316832133022142,3199.36537998916
-0.0136563244974522,3199.37537998916
-0.0237801064045462,3199.38537998916
-0.032949974261583,3199.39537998916
-0.0416495158514539,3199.40537998916
-0.0502041669792907,3199.41537998916
-0.058758830349132,3199.42537998916
-0.0676373380778222,3199.43537998916
-0.0762328895152314,3199.44537998916
-0.084729389201825,3199.45537998916
-0.0922786272464043,3199.46537998916
-0.0994398324428736,3199.47537998916
-0.104686644391208,3199.48537998916
-0.106199028078106,3199.49537998916
-0.101871355718212,3199.50537998916
-0.0885489124383085,3199.51537998916
-0.0642223352204611,3199.52537998916
-0.0289394900765524,3199.53537998916
0.0150705869384485,3199.54537998916
0.0647440718431462,3199.55537998916
0.116316829942363,3199.56537998916
0.167232751131648,3199.57537998916
0.214813025685542,3199.58537998916
0.257854717257275,3199.59537998916
0.294482740987457,3199.60537998916
0.325040262040025,3199.61537998916
0.349592483672598,3199.62537998916
0.367924732114454,3199.63537998916
0.381526215549502,3199.64537998916
0.390349213471666,3199.65537998916
0.396793949506117,3199.66537998916
0.40106582902491,3199.67537998916
0.403673042461584,3199.68537998916
0.405392204603719,3199.69537998916
0.405719148250745,3199.70537998916
0.404362605879845,3199.71537998916
0.402370023149597,3199.72537998916
0.399216688513881,3199.73537998916
0.394948811127071,3199.74537998916
0.389181719052365,3199.75537998916
0.381725543726939,3199.76537998916
0.372624503987444,3199.77537998916
0.361849745698826,3199.78537998916
0.350012062656038,3199.79537998916
0.338020849232268,3199.80537998916
0.325672735140933,3199.81537998916
0.313562672594725,3199.82537998916
0.302603290175523,3199.83537998916
0.293195125986752,3199.84537998916
0.285573274471592,3199.85537998916
0.279365034009582,3199.86537998916
0.27446200013363,3199.87537998916
0.271187409482827,3199.88537998916
0.268629069986026,3199.89537998916
0.266781132270102,3199.90537998916
0.264934606808525,3199.91537998916
0.262089666124886,3199.92537998916
0.257757043184109,3199.93537998916
0.252043736898283,3199.94537998916
0.245231723474732,3199.95537998916
0.237682548908124,3199.96537998916
0.229486033781695,3199.97537998916
0.220815305589732,3199.98537998916
0.211472727449947,3199.99537998916
0.202221560971615,3200.00537998916
0.192737543834126,3200.01537998916
0.183480237217097,3200.02537998916
0.17409333747897,3200.03537998916
0.164351203064889,3200.04537998916
0.154094194278889,3200.05537998916
0.143458359284329,3200.06537998916
0.132504352479083,3200.07537998916
0.121341218345084,3200.08537998916
0.110820078022061,3200.09537998916
0.100040522300158,3200.10537998916
0.0891089703153314,3200.11537998916
0.0781949014026441,3200.12537998916
0.0673313504033449,3200.13537998916
0.0560904910358466,3200.14537998916
0.0448219219558049,3200.15537998916
0.0338361059256561,3200.16537998916
0.0229175767646327,3200.17537998916
0.0122342518282092,3200.18537998916
0.00118241352388867,3200.19537998916
-0.00939161965995552,3200.20537998916
-0.0203421185966394,3200.21537998916
-0.0321707418222129,3200.22537998916
-0.0449177125601366,3200.23537998916
-0.0575142818762826,3200.24537998916
-0.0700954595191193,3200.25537998916
-0.0822016005388971,3200.26537998916
-0.0928144119506082,3200.27537998916
-0.100687050459842,3200.28537998916
-0.102457393195626,3200.29537998916
-0.0950757435782937,3200.30537998916
-0.076138779497446,3200.31537998916
-0.0443771509993812,3200.32537998916
-0.001625664012682,3200.33537998916
0.0495406316181035,3200.34537998916
0.105446192812911,3200.35537998916
0.162639917849217,3200.36537998916
0.217605189815539,3200.37537998916
0.268475878463566,3200.38537998916
0.314166474653227,3200.39537998916
0.353059920017657,3200.40537998916
0.385565539654531,3200.41537998916
0.411858253288144,3200.42537998916
0.432772010173528,3200.43537998916
0.448652725122503,3200.44537998916
0.460256044999718,3200.45537998916
0.469015255125425,3200.46537998916
0.475220436432778,3200.47537998916
0.480341961445815,3200.48537998916
0.484345069134751,3200.49537998916
0.486667176209538,3200.50537998916
0.488496297203246,3200.51537998916
0.489503083949935,3200.52537998916
0.489538107503823,3200.53537998916
0.48855976985746,3200.54537998916
0.48554124353865,3200.55537998916
0.480243622305262,3200.56537998916
0.47304394815811,3200.57537998916
0.463420753140232,3200.58537998916
0.452277471139273,3200.59537998916
0.440481269948632,3200.60537998916
0.429259368909851,3200.61537998916
0.419139077494659,3200.62537998916
0.410222421407313,3200.63537998916
0.402225889500485,3200.64537998916
0.395420811964658,3200.65537998916
0.389061561881591,3200.66537998916
0.383686297696251,3200.67537998916
0.379755761960199,3200.68537998916
0.376478492994764,3200.69537998916
0.373914860620443,3200.70537998916
0.37177762190444,3200.71537998916
0.369336273436399,3200.72537998916
0.366197053293602,3200.73537998916
0.361531539321044,3200.74537998916
0.355076976557153,3200.75537998916
0.347558036989419,3200.76537998916
0.338572705473696,3200.77537998916
0.329138092223028,3200.78537998916
0.320041523341567,3200.79537998916
0.310600857029041,3200.80537998916
0.301038178793554,3200.81537998916
0.290792604411499,3200.82537998916
0.280344706650043,3200.83537998916
0.269874980568198,3200.84537998916
0.259131228548627,3200.85537998916
0.248654589039565,3200.86537998916
0.2378622948792,3200.87537998916
0.226672535822563,3200.88537998916
0.215886396650518,3200.89537998916
0.204564807474698,3200.90537998916
0.193371011135046,3200.91537998916
0.182854846036103,3200.92537998916
0.172513429505361,3200.93537998916
0.161996586927356,3200.94537998916
0.150806060635813,3200.95537998916
0.138377649985493,3200.96537998916
0.124983021065126,3200.97537998916
0.11152037956353,3200.98537998916
0.0981732544687989,3200.99537998916
0.0854694839753858,3201.00537998916
0.0731641574194192,3201.01537998916
0.0618044112123113,3201.02537998916
0.0504614678070904,3201.03537998916
0.0386784036736099,3201.04537998916
0.0262869514563348,3201.05537998916
0.0140283473144895,3201.06537998916
0.00272035681192991,3201.07537998916
-0.00477214025508543,3201.08537998916
-0.00594538095635581,3201.09537998916
0.00272939443287571,3201.10537998916
0.0236460593311366,3201.11537998916
0.0571083701696557,3201.12537998916
0.101786973761609,3201.13537998916
0.154584651859805,3201.14537998916
0.212185878264285,3201.15537998916
0.270591908629183,3201.16537998916
0.326627387131738,3201.17537998916
0.378567106250441,3201.18537998916
0.424254584508179,3201.19537998916
0.462775321061051,3201.20537998916
0.493732234747907,3201.21537998916
0.517535572701222,3201.22537998916
0.535427734900532,3201.23537998916
0.548850005860951,3201.24537998916
0.558602419218854,3201.25537998916
0.56607177944139,3201.26537998916
0.571625650576734,3201.27537998916
0.57581825239532,3201.28537998916
0.577693640995273,3201.29537998916
0.578443434111114,3201.30537998916
0.578417158904459,3201.31537998916
0.577255949550073,3201.32537998916
0.574839255823788,3201.33537998916
0.572110014808528,3201.34537998916
0.56793014557934,3201.35537998916
0.562352974575296,3201.36537998916
0.554513598312207,3201.37537998916
0.544284922627284,3201.38537998916
0.532549088510882,3201.39537998916
0.520231674848052,3201.40537998916
0.50752929154621,3201.41537998916
0.495294761250691,3201.42537998916
0.483720207994555,3201.43537998916
0.473340311250882,3201.44537998916
0.464076602111128,3201.45537998916
0.456145633771284,3201.46537998916
0.449997157959818,3201.47537998916
0.445519194029185,3201.48537998916
0.441822626197975,3201.49537998916
0.438542356783569,3201.50537998916
0.435292364166522,3201.51537998916
0.43168571057985,3201.52537998916
0.426585171673317,3201.53537998916
0.42001130639516,3201.54537998916
0.412136532686912,3201.55537998916
0.403374912169181,3201.56537998916
0.394001430536691,3201.57537998916
0.384157542642718,3201.58537998916
0.37377626432842,3201.59537998916
0.363698461371071,3201.60537998916
0.352960200770759,3201.61537998916
0.342269252107625,3201.62537998916
0.331733762261343,3201.63537998916
0.320647121359661,3201.64537998916
0.309461979200511,3201.65537998916
0.29783713886288,3201.66537998916
0.285925938793033,3201.67537998916
0.273404621364987,3201.68537998916
0.261607538941561,3201.69537998916
0.249861621047492,3201.70537998916
0.237794474271648,3201.71537998916
0.225710805419066,3201.72537998916
0.212984773454584,3201.73537998916
0.200484942811143,3201.74537998916
0.187432573756251,3201.75537998916
0.173742283865671,3201.76537998916
0.160758390238362,3201.77537998916
0.147414052415104,3201.78537998916
0.134047362869068,3201.79537998916
0.120537209842742,3201.80537998916
0.106688547711899,3201.81537998916
0.0930653690290285,3201.82537998916
0.0793360381427144,3201.83537998916
0.066156405809085,3201.84537998916
0.0530489440282881,3201.85537998916
0.0413670968906156,3201.86537998916
0.0321501707135342,3201.87537998916
0.0285928359568186,3201.88537998916
0.0328791225678196,3201.89537998916
0.0486299077512225,3201.90537998916
0.0765470600004099,3201.91537998916
0.115818086117717,3201.92537998916
0.164507468700025,3201.93537998916
0.219402058418307,3201.94537998916
0.27601286838217,3201.95537998916
0.332271029144197,3201.96537998916
0.384909083556779,3201.97537998916
0.431213903818531,3201.98537998916
0.471357564342432,3201.99537998916
0.504174843378528,3202.00537998916
0.530303233541966,3202.01537998916
0.550531349061055,3202.02537998916
0.565247083595914,3202.03537998916
0.57543287346214,3202.04537998916
0.581919369246522,3202.05537998916
0.585137047453646,3202.06537998916
0.58671570823049,3202.07537998916
0.586493782987161,3202.08537998916
0.585188807446582,3202.09537998916
0.58370514590621,3202.10537998916
0.581314839409361,3202.11537998916
0.577757193180059,3202.12537998916
0.573457911721048,3202.13537998916
0.567049355694505,3202.14537998916
0.55899939522077,3202.15537998916
0.548754123048007,3202.16537998916
0.536611862537873,3202.17537998916
0.523875343284268,3202.18537998916
0.510586872115214,3202.19537998916
0.498113769629363,3202.20537998916
0.485806972477507,3202.21537998916
0.474858612759505,3202.22537998916
0.464659457503417,3202.23537998916
0.456314694162271,3202.24537998916
0.450208242923117,3202.25537998916
0.445727524530161,3202.26537998916
0.44266407942367,3202.27537998916
0.440196752925059,3202.28537998916
0.437373288670833,3202.29537998916
0.434241212784717,3202.30537998916
0.430064115688715,3202.31537998916
0.424414877551797,3202.32537998916
0.417726399802399,3202.33537998916
0.409371570651794,3202.34537998916
0.400501128528153,3202.35537998916
0.391067038984839,3202.36537998916
0.381634234185315,3202.37537998916
0.372701154170737,3202.38537998916
0.364123756742461,3202.39537998916
0.355203083787216,3202.40537998916
0.345600020828325,3202.41537998916
0.335875170472069,3202.42537998916
0.325653370341403,3202.43537998916
0.315823060692089,3202.44537998916
0.306619797416393,3202.45537998916
0.297906086593873,3202.46537998916
0.290298271644036,3202.47537998916
0.283390020481059,3202.48537998916
0.276922437353956,3202.49537998916
0.270615201539199,3202.50537998916
0.263549778292539,3202.51537998916
0.255675185765723,3202.52537998916
0.24665099207659,3202.53537998916
0.236699984720025,3202.54537998916
0.225869196013498,3202.55537998916
0.214415479611715,3202.56537998916
0.202486941660934,3202.57537998916
0.1898071298663,3202.58537998916
0.176426605192226,3202.59537998916
0.162885813222263,3202.60537998916
0.149482634952025,3202.61537998916
0.136680130892686,3202.62537998916
0.125609371083818,3202.63537998916
0.117065951818907,3202.64537998916
0.114200576011272,3202.65537998916
0.121316328215982,3202.66537998916
0.140378687045584,3202.67537998916
0.172137740959424,3202.68537998916
0.216098431938806,3202.69537998916
0.269643868770955,3202.70537998916
0.329371003764239,3202.71537998916
0.391426872256036,3202.72537998916
0.452246822424217,3202.73537998916
0.508866706795722,3202.74537998916
0.558761927912648,3202.75537998916
0.600335981408969,3202.76537998916
0.633958838498764,3202.77537998916
0.660090404276052,3202.78537998916
0.679896815837009,3202.79537998916
0.694598108048474,3202.80537998916
0.704243908735765,3202.81537998916
0.711106138175241,3202.82537998916
0.714710878033359,3202.83537998916
0.716012620349007,3202.84537998916
0.716276167351799,3202.85537998916
0.715030135199507,3202.86537998916
0.713115543358262,3202.87537998916
0.710135965789149,3202.88537998916
0.70621798060045,3202.89537998916
0.700646984701446,3202.90537998916
0.693341563521987,3202.91537998916
0.68371765491893,3202.92537998916
0.671779982563879,3202.93537998916
0.658361823451839,3202.94537998916
0.64405408315343,3202.95537998916
0.629104703539037,3202.96537998916
0.61505621830027,3202.97537998916
0.60155197302169,3202.98537998916
0.589447344230116,3202.99537998916
0.578527232821804,3203.00537998916
0.569737798823541,3203.01537998916
0.562177507792626,3203.02537998916
0.555950295930475,3203.03537998916
0.551373360251873,3203.04537998916
0.548032664643644,3203.05537998916
0.545257730946028,3203.06537998916
0.542892196385765,3203.07537998916
0.539844852395046,3203.08537998916
0.535456405695658,3203.09537998916
0.530222133331847,3203.10537998916
0.523806887410351,3203.11537998916
0.516307653846242,3203.12537998916
0.508105307134628,3203.13537998916
0.498955235362092,3203.14537998916
0.489101540201618,3203.15537998916
0.479050220181772,3203.16537998916
0.468770561386004,3203.17537998916
0.45888304188402,3203.18537998916
0.448669427231878,3203.19537998916
0.438213631432855,3203.20537998916
0.42676731876449,3203.21537998916
0.415098410403702,3203.22537998916
0.403207531309274,3203.23537998916
0.391102821866412,3203.24537998916
0.37878330480096,3203.25537998916
0.36634966690202,3203.26537998916
0.353634223457894,3203.27537998916
0.341187368323494,3203.28537998916
0.328746695065704,3203.29537998916
0.316416316941632,3203.30537998916
0.30381476082335,3203.31537998916
0.290654296856051,3203.32537998916
0.27651512082052,3203.33537998916
0.261681471877407,3203.34537998916
0.246552807948986,3203.35537998916
0.2314930797544,3203.36537998916
0.217336937150222,3203.37537998916
0.203827138709215,3203.38537998916
0.190622732749747,3203.39537998916
0.177745612583236,3203.40537998916
0.165675825928024,3203.41537998916
0.157208841963046,3203.42537998916
0.153498743474279,3203.43537998916
0.15935219129306,3203.44537998916
0.177160792405894,3203.45537998916
0.208921177440169,3203.46537998916
0.253660965140844,3203.47537998916
0.309330870604561,3203.48537998916
0.37265931469119,3203.49537998916
0.439505097972135,3203.50537998916
0.505996459715656,3203.51537998916
0.569554150345112,3203.52537998916
0.626724131101335,3203.53537998916
0.676112893392853,3203.54537998916
0.717332219316545,3203.55537998916
0.750357398217204,3203.56537998916
0.776444321407499,3203.57537998916
0.796470868507017,3203.58537998916
0.811079245650893,3203.59537998916
0.821247814027334,3203.60537998916
0.82858510546303,3203.61537998916
0.833946045475284,3203.62537998916
0.837967378908069,3203.63537998916
0.840718206599467,3203.64537998916
0.842633874421988,3203.65537998916
0.842978953114875,3203.66537998916
0.842543592362735,3203.67537998916
0.840860091411056,3203.68537998916
0.838010183959698,3203.69537998916
0.833436245886084,3203.70537998916
0.825859653116506,3203.71537998916
0.815878852850338,3203.72537998916
0.803478947161006,3203.73537998916
0.789815184814348,3203.74537998916
0.775708965745328,3203.75537998916
0.761633828638738,3203.76537998916
0.748855035377022,3203.77537998916
0.737356925165024,3203.78537998916
0.726767550631505,3203.79537998916
0.717864746926974,3203.80537998916
0.709842571993769,3203.81537998916
0.702813988050773,3203.82537998916
0.696894710702611,3203.83537998916
0.692196712683643,3203.84537998916
0.687760987705316,3203.85537998916
0.683760440166337,3203.86537998916
0.678636717250524,3203.87537998916
0.672862947904282,3203.88537998916
0.665551487173563,3203.89537998916
0.657131487037033,3203.90537998916
0.647871099759715,3203.91537998916
0.637592123588838,3203.92537998916
0.627212987272312,3203.93537998916
0.616175743007409,3203.94537998916
0.604852169746667,3203.95537998916
0.593527303598753,3203.96537998916
0.581385090335377,3203.97537998916
0.568422086206984,3203.98537998916
0.555172069291276,3203.99537998916
0.541072337189894,3204.00537998916
