PPG,time
0.183638301776665,2844.30880194904
0.348290700841788,2844.31880194904
0.286530503322447,2844.32880194904
0.296118794638473,2844.33880194904
0.265113031195235,2844.34880194904
0.264398242560304,2844.35880194904
0.239922427270296,2844.36880194904
0.234059378449204,2844.37880194904
0.201430637361411,2844.38880194904
0.198051950929466,2844.39880194904
0.0451836550742416,2844.40880194904
-0.0428294622664561,2844.41880194904
-0.0268287924423266,2844.42880194904
-0.0363627451565256,2844.43880194904
-0.0226323167913041,2844.44880194904
-0.0169957472487386,2844.45880194904
-0.00206753401840485,2844.46880194904
0.008498577095915,2844.47880194904
0.020527364097739,2844.48880194904
0.0283528762462894,2844.49880194904
0.0340650985079995,2844.50880194904
0.036026535803193,2844.51880194904
0.0335217237948069,2844.52880194904
0.0285195901642856,2844.53880194904
0.0213093450858552,2844.54880194904
0.0129607778310293,2844.55880194904
0.00365323472406373,2844.56880194904
-0.00654652273755839,2844.57880194904
-0.0174890123068461,2844.58880194904
-0.0298526201163188,2844.59880194904
-0.0424503424769674,2844.60880194904
-0.0561274745070819,2844.61880194904
-0.0704837917724458,2844.62880194904
-0.0852357722186801,2844.63880194904
-0.100633358706237,2844.64880194904
-0.116163349805475,2844.65880194904
-0.131439693215636,2844.66880194904
-0.146424940334007,2844.67880194904
-0.161781083938843,2844.68880194904
-0.177047076521265,2844.69880194904
-0.193032295646926,2844.70880194904
-0.20934227343756,2844.71880194904
-0.225591971021329,2844.72880194904
-0.240979328609928,2844.73880194904
-0.254986775251874,2844.74880194904
-0.267445124515213,2844.75880194904
-0.276633333949243,2844.76880194904
-0.278368142659181,2844.77880194904
-0.265315080502208,2844.78880194904
-0.229402010146889,2844.79880194904
-0.167170781329737,2844.80880194904
-0.0827870838653935,2844.81880194904
0.0142072271456024,2844.82880194904
0.110917617292488,2844.83880194904
0.19626768612299,2844.84880194904
0.263267639982404,2844.85880194904
0.309545366464561,2844.86880194904
0.336716871458986,2844.87880194904
0.348097492420533,2844.88880194904
0.348616402561958,2844.89880194904
0.341266657034276,2844.90880194904
0.330128221951498,2844.91880194904
0.316624938493166,2844.92880194904
0.301986216665697,2844.93880194904
0.286683205090029,2844.94880194904
0.271169958318358,2844.95880194904
0.255651587950084,2844.96880194904
0.239983697411893,2844.97880194904
0.225251024704554,2844.98880194904
0.211589419497866,2844.99880194904
0.199378767751332,2845.00880194904
0.188049528033102,2845.01880194904
0.176754448608327,2845.02880194904
0.164946709070949,2845.03880194904
0.150660547020902,2845.04880194904
0.133276083192156,2845.05880194904
0.112228960255032,2845.06880194904
0.0892405936729268,2845.07880194904
0.064831930993125,2845.08880194904
0.0413628158868393,2845.09880194904
0.0197724960226359,2845.10880194904
0.00290423402040936,2845.11880194904
-0.00821857349441391,2845.12880194904
-0.0138023231656439,2845.13880194904
-0.0138053244550364,2845.14880194904
-0.00937695462990238,2845.15880194904
-0.00215340927402683,2845.16880194904
0.00644798630017359,2845.17880194904
0.0155561627377386,2845.18880194904
0.0235592257937357,2845.19880194904
0.0307209493371758,2845.20880194904
0.0349715412097921,2845.21880194904
0.0369200874668654,2845.22880194904
0.0356858433267218,2845.23880194904
0.0317893154778162,2845.24880194904
0.0254532943765626,2845.25880194904
0.0170915005339091,2845.26880194904
0.0074643384284646,2845.27880194904
-0.00299308870749779,2845.28880194904
-0.0140903505316815,2845.29880194904
-0.0256249059440962,2845.30880194904
-0.03696784392374,2845.31880194904
-0.0490032814054311,2845.32880194904
-0.0618191780044081,2845.33880194904
-0.0752502861157751,2845.34880194904
-0.0893160385019394,2845.35880194904
-0.104312397020725,2845.36880194904
-0.119950914526557,2845.37880194904
-0.135216690397396,2845.38880194904
-0.150062233195693,2845.39880194904
-0.164713607788305,2845.40880194904
-0.17876372010487,2845.41880194904
-0.193264814175607,2845.42880194904
-0.207806670545145,2845.43880194904
-0.223679802196426,2845.44880194904
-0.239756576534725,2845.45880194904
-0.255575656923186,2845.46880194904
-0.270564952943811,2845.47880194904
-0.28421523574637,2845.48880194904
-0.296919664809287,2845.49880194904
-0.307518871747678,2845.50880194904
-0.315096905099826,2845.51880194904
-0.315008854456488,2845.52880194904
-0.300150977885924,2845.53880194904
-0.262045616904919,2845.54880194904
-0.19712151073702,2845.55880194904
-0.109581197772868,2845.56880194904
-0.00984941307190812,2845.57880194904
0.088621258602502,2845.58880194904
0.174488098113641,2845.59880194904
0.241800649699026,2845.60880194904
0.288312330284114,2845.61880194904
0.315761421322861,2845.62880194904
0.327687030451405,2845.63880194904
0.327975517364288,2845.64880194904
0.320697265891489,2845.65880194904
0.307905543353553,2845.66880194904
0.292509599459794,2845.67880194904
0.274824273099673,2845.68880194904
0.25711464280861,2845.69880194904
0.239598217225435,2845.70880194904
0.222853311138164,2845.71880194904
0.207838625110746,2845.72880194904
0.194091149110195,2845.73880194904
0.181539295617795,2845.74880194904
0.170703958633918,2845.75880194904
0.160454602891476,2845.76880194904
0.1505190004449,2845.77880194904
0.139417191122976,2845.78880194904
0.125428676662175,2845.79880194904
0.108259870351074,2845.80880194904
0.087512719604042,2845.81880194904
0.0642592291664154,2845.82880194904
0.0396956240502294,2845.83880194904
0.0158980949492492,2845.84880194904
-0.00494242138892083,2845.85880194904
-0.0208000097975608,2845.86880194904
-0.0308159698105248,2845.87880194904
-0.0348414182640435,2845.88880194904
-0.0336766711288023,2845.89880194904
-0.0282658782991071,2845.90880194904
-0.0202813537262751,2845.91880194904
-0.0108710191792278,2845.92880194904
-0.00207675681485487,2845.93880194904
0.00567070520141115,2845.94880194904
0.0108868082894999,2845.95880194904
0.0136191389637471,2845.96880194904
0.0133523719289092,2845.97880194904
0.0102422438310839,2845.98880194904
0.00492884185922801,2845.99880194904
-0.00254347546520919,2846.00880194904
-0.0111619476941051,2846.01880194904
-0.0212796109189405,2846.02880194904
-0.0314699615655393,2846.03880194904
-0.0422140274395569,2846.04880194904
-0.0533405315137035,2846.05880194904
-0.0648818576625953,2846.06880194904
-0.0772523739070076,2846.07880194904
-0.0900180466652777,2846.08880194904
-0.103459906695012,2846.09880194904
-0.117444907531732,2846.10880194904
-0.131551461304533,2846.11880194904
-0.144945121237696,2846.12880194904
-0.157568866436457,2846.13880194904
-0.170429718824715,2846.14880194904
-0.18312776720089,2846.15880194904
-0.195830357089001,2846.16880194904
-0.208910888623449,2846.17880194904
-0.221428539844924,2846.18880194904
-0.234445611317251,2846.19880194904
-0.247186981241677,2846.20880194904
-0.260143112695886,2846.21880194904
-0.27364665756319,2846.22880194904
-0.287907009147678,2846.23880194904
-0.302177268429968,2846.24880194904
-0.316093405976401,2846.25880194904
-0.329565657475913,2846.26880194904
-0.342150610976701,2846.27880194904
-0.354378680212197,2846.28880194904
-0.364974948058982,2846.29880194904
-0.372961720378735,2846.30880194904
-0.373107503935312,2846.31880194904
-0.356587614676634,2846.32880194904
-0.315026908567928,2846.33880194904
-0.24443029963119,2846.34880194904
-0.149728215988118,2846.35880194904
-0.0433292352625804,2846.36880194904
0.0605164488670703,2846.37880194904
0.150380174215877,2846.38880194904
0.219376910948949,2846.39880194904
0.265554441739935,2846.40880194904
0.291592272345275,2846.41880194904
0.300680544736313,2846.42880194904
0.297704032040606,2846.43880194904
0.286899308879728,2846.44880194904
0.271033640501329,2846.45880194904
0.252681196074911,2846.46880194904
0.232463479965249,2846.47880194904
0.212609494076013,2846.48880194904
0.192742748439286,2846.49880194904
0.174167280425388,2846.50880194904
0.156178928171718,2846.51880194904
0.139068055536054,2846.52880194904
0.123334911837046,2846.53880194904
0.108578847761421,2846.54880194904
0.0946643213336516,2846.55880194904
0.0807137881057815,2846.56880194904
0.0650736992853806,2846.57880194904
0.0469784431654771,2846.58880194904
0.0258205097477999,2846.59880194904
0.000877040344498275,2846.60880194904
-0.0255686973918953,2846.61880194904
-0.0518845686818305,2846.62880194904
-0.0748491021117547,2846.63880194904
-0.0920432482815386,2846.64880194904
-0.101678202996355,2846.65880194904
-0.103565286596532,2846.66880194904
-0.0977650006515652,2846.67880194904
-0.0867976598054448,2846.68880194904
-0.0724695143097081,2846.69880194904
-0.0566101172114833,2846.70880194904
-0.0421739056867729,2846.71880194904
-0.029017780085426,2846.72880194904
-0.0186647199480992,2846.73880194904
-0.0122561253738838,2846.74880194904
-0.00932624471358441,2846.75880194904
-0.00983719895823611,2846.76880194904
-0.0130291832892873,2846.77880194904
-0.0183621233436268,2846.78880194904
-0.0257879197410853,2846.79880194904
-0.0342561659251396,2846.80880194904
-0.0440594557174062,2846.81880194904
-0.0542964788094419,2846.82880194904
-0.0650657919004051,2846.83880194904
-0.0764554368960812,2846.84880194904
-0.0881235640821544,2846.85880194904
-0.100046025124706,2846.86880194904
-0.112156162123237,2846.87880194904
-0.123787148844225,2846.88880194904
-0.13555631511127,2846.89880194904
-0.147079877373153,2846.90880194904
-0.15866045897355,2846.91880194904
-0.170014562054029,2846.92880194904
-0.181771668104943,2846.93880194904
-0.193863715905935,2846.94880194904
-0.206357459355163,2846.95880194904
-0.218862587969555,2846.96880194904
-0.231418282152484,2846.97880194904
-0.244246499463612,2846.98880194904
-0.257308472880318,2846.99880194904
-0.270135833562113,2847.00880194904
-0.282838220292728,2847.01880194904
-0.29448005126584,2847.02880194904
-0.305255592402985,2847.03880194904
-0.315688766760489,2847.04880194904
-0.324011277908738,2847.05880194904
-0.32706629159025,2847.06880194904
-0.319107393509662,2847.07880194904
-0.291719936237349,2847.08880194904
-0.238044242603372,2847.09880194904
-0.15890972601092,2847.10880194904
-0.0618314434314549,2847.11880194904
0.0405854893239701,2847.12880194904
0.135519051012047,2847.13880194904
0.215185940157807,2847.14880194904
0.274954697753188,2847.15880194904
0.314832617587212,2847.16880194904
0.336807606989816,2847.17880194904
0.344377606437821,2847.18880194904
0.341344683010442,2847.19880194904
0.330621698161458,2847.20880194904
0.315641826737667,2847.21880194904
0.298780642722899,2847.22880194904
0.281274437542334,2847.23880194904
0.263763062953094,2847.24880194904
0.24646313967542,2847.25880194904
0.229232910830052,2847.26880194904
0.212231874026844,2847.27880194904
0.196490339681804,2847.28880194904
0.181199166734837,2847.29880194904
0.166904144526255,2847.30880194904
0.153118150774743,2847.31880194904
0.139359683154474,2847.32880194904
0.12419963748213,2847.33880194904
0.106498316876331,2847.34880194904
0.0861017501177533,2847.35880194904
0.0632358695292803,2847.36880194904
0.0398102472500538,2847.37880194904
0.017984175361046,2847.38880194904
0.00027976238535013,2847.39880194904
-0.0109360421322989,2847.40880194904
-0.0161131371689214,2847.41880194904
-0.0144243973987791,2847.42880194904
-0.00808143215663351,2847.43880194904
0.00187117387805194,2847.44880194904
0.0137781480935412,2847.45880194904
0.0259604507813463,2847.46880194904
0.0371721472795531,2847.47880194904
0.0466657687993677,2847.48880194904
0.0536220334679007,2847.49880194904
0.0571085654194316,2847.50880194904
0.0578625307169407,2847.51880194904
0.0559154576160385,2847.52880194904
0.051850898395482,2847.53880194904
0.0454307443746285,2847.54880194904
0.0371396672868759,2847.55880194904
0.027698654337098,2847.56880194904
0.0168444929313145,2847.57880194904
0.00498828308473816,2847.58880194904
-0.0078076512569011,2847.59880194904
-0.0210081176468448,2847.60880194904
-0.0344999312278218,2847.61880194904
-0.0481089142100487,2847.62880194904
-0.0609283051996419,2847.63880194904
-0.0739430070384662,2847.64880194904
-0.0864671797988377,2847.65880194904
-0.0977698809789163,2847.66880194904
-0.109022753569063,2847.67880194904
-0.120424339203897,2847.68880194904
-0.132116230922164,2847.69880194904
-0.143890318633411,2847.70880194904
-0.154929702324993,2847.71880194904
-0.165484204470788,2847.72880194904
-0.176251327396988,2847.73880194904
-0.187322890920645,2847.74880194904
-0.199258855109947,2847.75880194904
-0.212394885168761,2847.76880194904
-0.225723807503958,2847.77880194904
-0.239696444177983,2847.78880194904
-0.253476020735178,2847.79880194904
-0.266260754995313,2847.80880194904
-0.278698868362639,2847.81880194904
-0.289052378335472,2847.82880194904
-0.295099270639274,2847.83880194904
-0.291367427321663,2847.84880194904
-0.268775811685964,2847.85880194904
-0.219289243927663,2847.86880194904
-0.141686491146358,2847.87880194904
-0.0425542855304772,2847.88880194904
0.0655023597418156,2847.89880194904
0.169688555705301,2847.90880194904
0.26013687126898,2847.91880194904
0.330858602851414,2847.92880194904
0.381630602152947,2847.93880194904
0.41385152874586,2847.94880194904
0.430328296768565,2847.95880194904
0.43539894718908,2847.96880194904
0.43286148830151,2847.97880194904
0.424327364838426,2847.98880194904
0.412519060419119,2847.99880194904
0.398731032881905,2848.00880194904
0.384391106192658,2848.01880194904
0.369478528573119,2848.02880194904
0.355190970989816,2848.03880194904
0.34181928468683,2848.04880194904
0.329511012432023,2848.05880194904
0.318622569050798,2848.06880194904
0.3087805587125,2848.07880194904
0.299505722674608,2848.08880194904
0.29007743858627,2848.09880194904
0.279848969191708,2848.10880194904
0.267532864157177,2848.11880194904
0.252533702186649,2848.12880194904
0.234033504154641,2848.13880194904
0.212455547561254,2848.14880194904
0.188969002182271,2848.15880194904
0.16538872061237,2848.16880194904
0.143721816684197,2848.17880194904
0.126816827663034,2848.18880194904
0.115391774045128,2848.19880194904
0.110501889257942,2848.20880194904
0.111309649972635,2848.21880194904
0.116676745710496,2848.22880194904
0.125308869729303,2848.23880194904
0.135229519758711,2848.24880194904
0.145298156544548,2848.25880194904
0.154149261108473,2848.26880194904
0.161238950095907,2848.27880194904
0.165725158035487,2848.28880194904
0.167572507033699,2848.29880194904
0.166698316022106,2848.30880194904
0.162667290998296,2848.31880194904
0.156817757644322,2848.32880194904
0.148864619763497,2848.33880194904
0.139377047240317,2848.34880194904
0.12873219710318,2848.35880194904
0.116847857017886,2848.36880194904
0.10487652244818,2848.37880194904
0.0921259674551295,2848.38880194904
0.07942482738696,2848.39880194904
0.0660280040011154,2848.40880194904
0.0519436647256748,2848.41880194904
0.0373705361927159,2848.42880194904
0.0231433580875515,2848.43880194904
0.00874093303075085,2848.44880194904
-0.00498055586967116,2848.45880194904
-0.0183377427037155,2848.46880194904
-0.0314334733002863,2848.47880194904
-0.0441397846080131,2848.48880194904
-0.0568071111929041,2848.49880194904
-0.0689529965244376,2848.50880194904
-0.0811965456458516,2848.51880194904
-0.0934077255472702,2848.52880194904
-0.105175639435282,2848.53880194904
-0.117586122503607,2848.54880194904
-0.130290349441234,2848.55880194904
-0.143829952492662,2848.56880194904
-0.158297005406426,2848.57880194904
-0.173489228909015,2848.58880194904
-0.188374881260251,2848.59880194904
-0.202906111083493,2848.60880194904
-0.215833762205523,2848.61880194904
-0.227443829255107,2848.62880194904
-0.236941899894342,2848.63880194904
-0.240839527985547,2848.64880194904
-0.231866236782995,2848.65880194904
-0.201022256258052,2848.66880194904
-0.142341298935257,2848.67880194904
-0.0566568711756343,2848.68880194904
0.046289575386418,2848.69880194904
0.153526076525216,2848.70880194904
0.252930131297959,2848.71880194904
0.336243367618454,2848.72880194904
0.399411789472702,2848.73880194904
0.442599289837339,2848.74880194904
0.467916262172765,2848.75880194904
0.478925754995753,2848.76880194904
0.479455730104238,2848.77880194904
0.471988544162451,2848.78880194904
0.460308459021494,2848.79880194904
0.445878591390819,2848.80880194904
0.429946969143991,2848.81880194904
0.413628816716839,2848.82880194904
0.397661741616027,2848.83880194904
0.382322240646317,2848.84880194904
0.368460630330603,2848.85880194904
0.355784592785342,2848.86880194904
0.344339767172309,2848.87880194904
0.334062298464569,2848.88880194904
0.324066164422115,2848.89880194904
0.313761674024215,2848.90880194904
0.301726481712729,2848.91880194904
0.286698593536677,2848.92880194904
0.267943869560386,2848.93880194904
0.245683891876794,2848.94880194904
0.220040345304232,2848.95880194904
0.19391103638868,2848.96880194904
0.169462714022108,2848.97880194904
0.149180675259527,2848.98880194904
0.134523374127879,2848.99880194904
0.126843183016717,2849.00880194904
0.125614682334302,2849.01880194904
0.129829801909886,2849.02880194904
0.138460830740872,2849.03880194904
0.148666253663181,2849.04880194904
0.159943201934888,2849.05880194904
0.170373905811885,2849.06880194904
0.178921576127774,2849.07880194904
0.184621569883177,2849.08880194904
0.187442810167261,2849.09880194904
0.187688762978552,2849.10880194904
0.185162156728493,2849.11880194904
0.18015823872265,2849.12880194904
0.173241479501017,2849.13880194904
0.163819567780282,2849.14880194904
0.152936419525175,2849.15880194904
0.140532786539148,2849.16880194904
0.126947416254954,2849.17880194904
0.113090037775266,2849.18880194904
0.0986217693374392,2849.19880194904
0.0832921248658106,2849.20880194904
0.0678651852054738,2849.21880194904
0.0514156349331868,2849.22880194904
0.0347055906116981,2849.23880194904
0.0183495238894411,2849.24880194904
0.00257548165012831,2849.25880194904
-0.0126419722601456,2849.26880194904
-0.0269424755934759,2849.27880194904
-0.0402239094842822,2849.28880194904
-0.0535371222125937,2849.29880194904
-0.0656693685470569,2849.30880194904
-0.0777975386578021,2849.31880194904
-0.0902107412890479,2849.32880194904
-0.102551946322506,2849.33880194904
-0.115362062725214,2849.34880194904
-0.129306825123157,2849.35880194904
-0.143357890192867,2849.36880194904
-0.157471782646443,2849.37880194904
-0.171834563577884,2849.38880194904
-0.186480663713811,2849.39880194904
-0.200611828680816,2849.40880194904
-0.214307298265396,2849.41880194904
-0.227744794051156,2849.42880194904
-0.240480935916617,2849.43880194904
-0.252311152464839,2849.44880194904
-0.262329980465533,2849.45880194904
-0.267592291454145,2849.46880194904
-0.261061338397103,2849.47880194904
-0.233278172666811,2849.48880194904
-0.176823413065813,2849.49880194904
-0.0933335010163761,2849.50880194904
0.00963225336281098,2849.51880194904
0.117792563598668,2849.52880194904
0.218757540386563,2849.53880194904
0.303155614018801,2849.54880194904
0.366230409471571,2849.55880194904
0.407701661579924,2849.56880194904
0.430897199090281,2849.57880194904
0.439611614351222,2849.58880194904
0.437435324990742,2849.59880194904
0.428159977092309,2849.60880194904
0.41411836109616,2849.61880194904
0.397200787048142,2849.62880194904
0.379147544281616,2849.63880194904
0.360523911429733,2849.64880194904
0.342068189081941,2849.65880194904
0.324106828479793,2849.66880194904
0.306218253433815,2849.67880194904
0.28970512215627,2849.68880194904
0.27462040283048,2849.69880194904
0.260466857334634,2849.70880194904
0.246752988581227,2849.71880194904
0.23270128173586,2849.72880194904
0.216210037953726,2849.73880194904
0.1965616049956,2849.74880194904
0.173769527316452,2849.75880194904
0.147941411746077,2849.76880194904
0.121619565773013,2849.77880194904
0.0976167242106524,2849.78880194904
0.0786541981967927,2849.79880194904
0.0661277119677565,2849.80880194904
0.0606004737070712,2849.81880194904
0.0620939043454945,2849.82880194904
0.0695446081761968,2849.83880194904
0.08085127656081,2849.84880194904
0.0941744136344878,2849.85880194904
0.108625646523579,2849.86880194904
0.121788346390502,2849.87880194904
0.132795534203654,2849.88880194904
0.140539763444125,2849.89880194904
0.144433234031943,2849.90880194904
0.14492284358109,2849.91880194904
0.142641734305383,2849.92880194904
0.137666349277661,2849.93880194904
0.131109437069688,2849.94880194904
0.12335851651061,2849.95880194904
0.114709800855223,2849.96880194904
0.104783042111463,2849.97880194904
0.0941512725108219,2849.98880194904
0.0826495057775538,2849.99880194904
0.070023152664475,2850.00880194904
0.0567466971992304,2850.01880194904
0.0436494440372968,2850.02880194904
0.030550366237423,2850.03880194904
0.0178851261824104,2850.04880194904
0.00555821854747843,2850.05880194904
-0.00642909656626469,2850.06880194904
-0.0183651826603573,2850.07880194904
-0.0304108477870944,2850.08880194904
-0.0426467428030281,2850.09880194904
-0.0547270547403287,2850.10880194904
-0.0664733582030528,2850.11880194904
-0.0785306519436497,2850.12880194904
-0.0915824993343974,2850.13880194904
-0.104902243982756,2850.14880194904
-0.118992744302305,2850.15880194904
-0.133008572337455,2850.16880194904
-0.147235335426034,2850.17880194904
-0.160609127384297,2850.18880194904
-0.173256949540634,2850.19880194904
-0.185562738106864,2850.20880194904
-0.196073345150517,2850.21880194904
-0.204741671890891,2850.22880194904
-0.207523162384939,2850.23880194904
-0.197353626424294,2850.24880194904
-0.165910085835114,2850.25880194904
-0.108744275752837,2850.26880194904
-0.0268585517493385,2850.27880194904
0.0705919098710699,2850.28880194904
0.171438299779036,2850.29880194904
0.265318971529665,2850.30880194904
0.344530051220012,2850.31880194904
0.405290687009485,2850.32880194904
0.447207702915978,2850.33880194904
0.4728669675856,2850.34880194904
0.48526162307821,2850.35880194904
0.487765351931878,2850.36880194904
0.483682584996424,2850.37880194904
0.473980538909046,2850.38880194904
0.461617809211464,2850.39880194904
0.44771557387349,2850.40880194904
0.433637669884887,2850.41880194904
0.419411025373641,2850.42880194904
0.405691566899211,2850.43880194904
0.392581992664951,2850.44880194904
0.379484032397832,2850.45880194904
0.367356107689869,2850.46880194904
0.356170928147153,2850.47880194904
0.345296777411304,2850.48880194904
0.333639279681564,2850.49880194904
0.320514862658502,2850.50880194904
0.304050131343201,2850.51880194904
0.284156453215099,2850.52880194904
0.261442264588171,2850.53880194904
0.236612920377481,2850.54880194904
0.212452399292951,2850.55880194904
0.192251379202587,2850.56880194904
0.177424312535491,2850.57880194904
0.169274203915557,2850.58880194904
0.167072994372941,2850.59880194904
0.170138598980688,2850.60880194904
0.177046254507537,2850.61880194904
0.186352158686011,2850.62880194904
0.197023715198521,2850.63880194904
0.207210065216986,2850.64880194904
0.215544313896694,2850.65880194904
0.221320425058077,2850.66880194904
0.224223635202836,2850.67880194904
0.224474158182583,2850.68880194904
0.222238082637806,2850.69880194904
0.21769882204821,2850.70880194904
0.211521200525764,2850.71880194904
0.203015222897202,2850.72880194904
0.192807025527815,2850.73880194904
0.181002355700404,2850.74880194904
0.168069204370332,2850.75880194904
0.15393718122922,2850.76880194904
0.139241061555675,2850.77880194904
0.123908924046501,2850.78880194904
0.108215169951534,2850.79880194904
0.0930550504769308,2850.80880194904
0.0783874073497451,2850.81880194904
0.0637514658808693,2850.82880194904
0.0496158169675061,2850.83880194904
0.0363254922542231,2850.84880194904
0.0236718231928996,2850.85880194904
0.0110643823424924,2850.86880194904
-0.000927590381912243,2850.87880194904
-0.0127527113188864,2850.88880194904
-0.0240381583957023,2850.89880194904
-0.0348554558572516,2850.90880194904
-0.0463602871872667,2850.91880194904
-0.0586964395916966,2850.92880194904
-0.0725453960605748,2850.93880194904
-0.0879719092037846,2850.94880194904
-0.104225585735406,2850.95880194904
-0.120888623047227,2850.96880194904
-0.13743188698559,2850.97880194904
-0.153619490379915,2850.98880194904
-0.168901279832903,2850.99880194904
-0.182074795903077,2851.00880194904
-0.192608354415042,2851.01880194904
-0.197716376914069,2851.02880194904
-0.190138634223246,2851.03880194904
-0.161367611178375,2851.04880194904
-0.105870758083084,2851.05880194904
-0.0234941636631196,2851.06880194904
0.0769168027764037,2851.07880194904
0.183745592840247,2851.08880194904
0.285414750018151,2851.09880194904
0.373611415702337,2851.10880194904
0.443952403255271,2851.11880194904
0.495453486213913,2851.12880194904
0.530673474096725,2851.13880194904
0.551840852221684,2851.14880194904
0.561803037657491,2851.15880194904
0.564073322160485,2851.16880194904
0.560456778239421,2851.17880194904
0.552686777068187,2851.18880194904
0.542483726730001,2851.19880194904
0.530577255774214,2851.20880194904
0.518839484196149,2851.21880194904
0.507140757996452,2851.22880194904
0.495726234550674,2851.23880194904
0.485252100548783,2851.24880194904
0.475571713010482,2851.25880194904
0.466137955971322,2851.26880194904
0.457790171158434,2851.27880194904
0.448387650443666,2851.28880194904
0.437693909379967,2851.29880194904
0.424855643535005,2851.30880194904
0.40851475898235,2851.31880194904
0.388298994784834,2851.32880194904
0.364456993990756,2851.33880194904
0.338672994039312,2851.34880194904
0.313136496119186,2851.35880194904
0.290444406002801,2851.36880194904
0.272575087376264,2851.37880194904
0.260826282813088,2851.38880194904
0.255284485194009,2851.39880194904
0.254872324059769,2851.40880194904
0.258509794735085,2851.41880194904
0.264885390278456,2851.42880194904
0.273202998615304,2851.43880194904
0.281370387575224,2851.44880194904
0.289299851958646,2851.45880194904
0.294842435171948,2851.46880194904
0.298206647922826,2851.47880194904
0.297818562772333,2851.48880194904
0.294624506258021,2851.49880194904
0.288339263676127,2851.50880194904
0.280251803194862,2851.51880194904
0.27012561976585,2851.52880194904
0.258532752511287,2851.53880194904
0.246004003660244,2851.54880194904
0.231522237501598,2851.55880194904
0.216271603853567,2851.56880194904
0.200168645580036,2851.57880194904
0.183503876020811,2851.58880194904
0.166614413481576,2851.59880194904
0.150017166525293,2851.60880194904
0.134205163631509,2851.61880194904
0.118550019818988,2851.62880194904
0.102561223159894,2851.63880194904
0.0864867098742052,2851.64880194904
0.0706221484713163,2851.65880194904
0.0550846271919828,2851.66880194904
0.0399794280918642,2851.67880194904
0.0251298831718926,2851.68880194904
0.0104557917903826,2851.69880194904
-0.00392167047332859,2851.70880194904
-0.0182505301704798,2851.71880194904
-0.0326155077290873,2851.72880194904
-0.0469635400945864,2851.73880194904
-0.0627470698912568,2851.74880194904
-0.0791683069215811,2851.75880194904
-0.0966249129376783,2851.76880194904
-0.114280231171578,2851.77880194904
-0.13147919344501,2851.78880194904
-0.147902425039437,2851.79880194904
-0.163116329818614,2851.80880194904
-0.176763523598643,2851.81880194904
-0.188958842415747,2851.82880194904
-0.197669872437121,2851.83880194904
-0.198442062348747,2851.84880194904
-0.18328337374224,2851.85880194904
-0.143468568638012,2851.86880194904
-0.0742060736040515,2851.87880194904
0.0197865292509081,2851.88880194904
0.127493300769397,2851.89880194904
0.236052196934778,2851.90880194904
0.334204494263602,2851.91880194904
0.414766112868685,2851.92880194904
0.474950753648203,2851.93880194904
0.516438086019943,2851.94880194904
0.54194122877533,2851.95880194904
0.554574768908454,2851.96880194904
0.557312611850339,2851.97880194904
0.55291147086738,2851.98880194904
0.543705218885096,2851.99880194904
0.53143750488583,2852.00880194904
0.517592366124854,2852.01880194904
0.502322052788879,2852.02880194904
0.486488714159935,2852.03880194904
0.470991380337044,2852.04880194904
0.456162738101554,2852.05880194904
0.441844064931552,2852.06880194904
0.428194288823079,2852.07880194904
0.415575450141129,2852.08880194904
0.402944065051589,2852.09880194904
0.38888386892351,2852.10880194904
0.371911335851839,2852.11880194904
0.351216349392752,2852.12880194904
0.325978822049363,2852.13880194904
0.297854401912609,2852.14880194904
0.268510126746618,2852.15880194904
0.240647543438192,2852.16880194904
0.216224446092005,2852.17880194904
0.197457108843434,2852.18880194904
0.186106203902496,2852.19880194904
0.181624870527849,2852.20880194904
0.183966601342191,2852.21880194904
0.191105450550397,2852.22880194904
0.200989272707148,2852.23880194904
0.212022116753845,2852.24880194904
0.221970334589473,2852.25880194904
0.230460073211431,2852.26880194904
0.236329442522256,2852.27880194904
0.239721409421677,2852.28880194904
0.240314275590482,2852.29880194904
0.237509502286791,2852.30880194904
0.232299367914078,2852.31880194904
0.224105030909175,2852.32880194904
0.214119937248124,2852.33880194904
0.202601750043468,2852.34880194904
0.190617225563981,2852.35880194904
0.177522947766311,2852.36880194904
0.163227137479922,2852.37880194904
0.148286721929811,2852.38880194904
0.132307472264758,2852.39880194904
0.115922813209183,2852.40880194904
0.0999755101595334,2852.41880194904
0.0840055010064175,2852.42880194904
0.0683409802294603,2852.43880194904
0.052405390122506,2852.44880194904
0.0369967014270644,2852.45880194904
0.0218727341158173,2852.46880194904
0.00695591214658821,2852.47880194904
-0.00782953299076139,2852.48880194904
-0.0228537602060377,2852.49880194904
-0.0376899045580666,2852.50880194904
-0.0518737411786516,2852.51880194904
-0.0663026884487067,2852.52880194904
-0.0807074609805195,2852.53880194904
-0.0958974822557703,2852.54880194904
-0.11106240765219,2852.55880194904
-0.126383009090821,2852.56880194904
-0.141144211243893,2852.57880194904
-0.154786905978767,2852.58880194904
-0.167269127409878,2852.59880194904
-0.179253043227353,2852.60880194904
-0.190163104209979,2852.61880194904
-0.198190848031244,2852.62880194904
-0.198276553198976,2852.63880194904
-0.182078236079823,2852.64880194904
-0.140963952517768,2852.65880194904
-0.0716185738430585,2852.66880194904
0.0207716232882857,2852.67880194904
0.125446075853496,2852.68880194904
0.23020620252818,2852.69880194904
0.324161335924271,2852.70880194904
0.401221176317532,2852.71880194904
0.458252492405306,2852.72880194904
0.49667517049815,2852.73880194904
0.517977253148158,2852.74880194904
0.52650762792639,2852.75880194904
0.525736190242117,2852.76880194904
0.518654539903699,2852.77880194904
0.507205034224041,2852.78880194904
0.493446605659772,2852.79880194904
0.478182206899716,2852.80880194904
0.461402548494714,2852.81880194904
0.44398592950864,2852.82880194904
0.426335194104647,2852.83880194904
0.409158230875361,2852.84880194904
0.392920521414966,2852.85880194904
0.377338657899362,2852.86880194904
0.36242938000604,2852.87880194904
0.347393014050314,2852.88880194904
0.330855653064142,2852.89880194904
0.311126396198129,2852.90880194904
0.287478733696739,2852.91880194904
0.261122169598286,2852.92880194904
0.233049121374812,2852.93880194904
0.205942060984752,2852.94880194904
0.183282812947668,2852.95880194904
0.167159433188301,2852.96880194904
0.158523398005712,2852.97880194904
0.157716112508779,2852.98880194904
0.163185617491899,2852.99880194904
0.173041321778767,2853.00880194904
0.184987236644545,2853.01880194904
0.196861023471776,2853.02880194904
0.207738490688926,2853.03880194904
0.215891707674239,2853.04880194904
0.221038769757156,2853.05880194904
0.222715254035454,2853.06880194904
0.221870909980269,2853.07880194904
0.217254491746087,2853.08880194904
0.210671520800699,2853.09880194904
0.202204540754753,2853.10880194904
0.192067218537315,2853.11880194904
0.181054972027213,2853.12880194904
0.169291252665695,2853.13880194904
0.15711743486997,2853.14880194904
0.144216193418083,2853.15880194904
0.130517401662265,2853.16880194904
0.116656051288899,2853.17880194904
0.102006623045806,2853.18880194904
0.0872361185996445,2853.19880194904
0.0724166992707423,2853.20880194904
0.0583043821292834,2853.21880194904
0.0437277261181903,2853.22880194904
0.0292245573720462,2853.23880194904
0.0149849642384151,2853.24880194904
0.00115239717770302,2853.25880194904
-0.0123129699526704,2853.26880194904
-0.0253138326676007,2853.27880194904
-0.0384090581900852,2853.28880194904
-0.0517608127739216,2853.29880194904
-0.0652964808247222,2853.30880194904
-0.0803242034760645,2853.31880194904
-0.0961663516672218,2853.32880194904
-0.112646273433035,2853.33880194904
-0.129687104899756,2853.34880194904
-0.145870284180463,2853.35880194904
-0.161461014860649,2853.36880194904
-0.175826145533404,2853.37880194904
-0.18825581896635,2853.38880194904
-0.196283699923775,2853.39880194904
-0.193985606817194,2853.40880194904
-0.172724109757964,2853.41880194904
-0.125094208341965,2853.42880194904
-0.0490488925322638,2853.43880194904
0.0492043241388622,2853.44880194904
0.157650027684099,2853.45880194904
0.2646969977119,2853.46880194904
0.359960650829946,2853.47880194904
0.437642640331009,2853.48880194904
0.496873410832611,2853.49880194904
0.538472322177934,2853.50880194904
0.565567045575522,2853.51880194904
0.580975828940884,2853.52880194904
0.587705675815796,2853.53880194904
0.587806574517795,2853.54880194904
0.582663025048222,2853.55880194904
0.573508092533936,2853.56880194904
0.562320386152495,2853.57880194904
0.550084687913289,2853.58880194904
0.537937184745084,2853.59880194904
0.5265349473909,2853.60880194904
0.515067410725615,2853.61880194904
0.50360001220729,2853.62880194904
0.491997204144146,2853.63880194904
0.480049061579663,2853.64880194904
0.468077626143802,2853.65880194904
0.455806669505982,2853.66880194904
0.441062833898036,2853.67880194904
0.423038377241633,2853.68880194904
0.401301999037556,2853.69880194904
0.375985695947936,2853.70880194904
0.348304914456921,2853.71880194904
0.321070426862537,2853.72880194904
0.296392770889319,2853.73880194904
0.277164425764144,2853.74880194904
0.264157031347719,2853.75880194904
0.257272561158612,2853.76880194904
0.256432242061402,2853.77880194904
0.259802148326568,2853.78880194904
0.265997986883153,2853.79880194904
0.273591848674755,2853.80880194904
0.280991978333586,2853.81880194904
0.286719193305817,2853.82880194904
0.290275607151719,2853.83880194904
0.291574815378397,2853.84880194904
0.290001988268882,2853.85880194904
0.286657884360988,2853.86880194904
0.280843172686993,2853.87880194904
0.273400815909154,2853.88880194904
0.264048736095613,2853.89880194904
0.2529060765839,2853.90880194904
0.239806079560529,2853.91880194904
0.22525449319407,2853.92880194904
0.209797281305492,2853.93880194904
0.193557737960841,2853.94880194904
0.176544131062291,2853.95880194904
0.158533894392114,2853.96880194904
0.140542549638887,2853.97880194904
0.122433723600599,2853.98880194904
0.10532689041004,2853.99880194904
0.0889459587285649,2854.00880194904
0.0730934251498087,2854.01880194904
0.0581729802707146,2854.02880194904
0.0434792679315058,2854.03880194904
0.0296335003578075,2854.04880194904
0.0160126294083729,2854.05880194904
0.00248658902295962,2854.06880194904
-0.0105540403298487,2854.07880194904
-0.0242097989413099,2854.08880194904
-0.0383582768978856,2854.09880194904
-0.0534877918355003,2854.10880194904
-0.0694951580407131,2854.11880194904
-0.0862346025000294,2854.12880194904
-0.10323744745308,2854.13880194904
-0.120608530481534,2854.14880194904
-0.137202257571807,2854.15880194904
-0.153503770011805,2854.16880194904
-0.168136134759996,2854.17880194904
-0.181261624366505,2854.18880194904
-0.18977536691262,2854.19880194904
-0.188361064590939,2854.20880194904
-0.16747452003533,2854.21880194904
-0.119297444612832,2854.22880194904
-0.0424751955768795,2854.23880194904
0.057319141036057,2854.24880194904
0.167684896106944,2854.25880194904
0.276763516814098,2854.26880194904
0.37436289045557,2854.27880194904
0.455606353424349,2854.28880194904
0.518198189975342,2854.29880194904
0.563158806803599,2854.30880194904
0.592204778960154,2854.31880194904
0.608626285999664,2854.32880194904
0.615059087321683,2854.33880194904
0.614378802043612,2854.34880194904
0.609390678263784,2854.35880194904
0.601176993867508,2854.36880194904
0.590939829387839,2854.37880194904
0.578690636684434,2854.38880194904
0.565265048219171,2854.39880194904
0.550846313081624,2854.40880194904
0.536584264984215,2854.41880194904
0.523316510827032,2854.42880194904
0.512371172574816,2854.43880194904
0.501672081582356,2854.44880194904
0.490310680722884,2854.45880194904
0.477685824489444,2854.46880194904
0.461787294199278,2854.47880194904
0.441603762734963,2854.48880194904
0.417030404259852,2854.49880194904
0.390378363432954,2854.50880194904
0.360995774659387,2854.51880194904
0.332198235753993,2854.52880194904
0.305774066304181,2854.53880194904
0.284466237975708,2854.54880194904
0.269272918662328,2854.55880194904
0.261459129036641,2854.56880194904
0.259639760137057,2854.57880194904
0.262467481494486,2854.58880194904
0.267934503232943,2854.59880194904
0.274881892901916,2854.60880194904
0.281215955254039,2854.61880194904
0.286698294929184,2854.62880194904
0.290512895639242,2854.63880194904
0.292532125351689,2854.64880194904
0.291913774299898,2854.65880194904
0.288362956366957,2854.66880194904
0.281936841655922,2854.67880194904
0.272801319458387,2854.68880194904
0.26177667748773,2854.69880194904
0.249254087006257,2854.70880194904
0.235586753006129,2854.71880194904
0.22097529358152,2854.72880194904
0.205019667764376,2854.73880194904
0.187645106839568,2854.74880194904
0.170148008064356,2854.75880194904
0.151773792471802,2854.76880194904
0.134024603967807,2854.77880194904
0.116724680039343,2854.78880194904
0.0993153674058927,2854.79880194904
0.0818601946593685,2854.80880194904
0.0639327139894806,2854.81880194904
0.0455766276878013,2854.82880194904
0.0276747706842557,2854.83880194904
0.0103150143307143,2854.84880194904
-0.00525635472555454,2854.85880194904
-0.0201103055254107,2854.86880194904
-0.034779026562715,2854.87880194904
-0.049857464306501,2854.88880194904
-0.0644156283212199,2854.89880194904
-0.0787199523086011,2854.90880194904
-0.0926539473216944,2854.91880194904
-0.105533065087004,2854.92880194904
-0.118780675723273,2854.93880194904
-0.134014974628459,2854.94880194904
-0.150203492560051,2854.95880194904
-0.167919226805493,2854.96880194904
-0.186501699919069,2854.97880194904
-0.205209494733224,2854.98880194904
-0.223033458528417,2854.99880194904
-0.240045805955092,2855.00880194904
-0.256398878845635,2855.01880194904
-0.271385127002617,2855.02880194904
-0.283412769677179,2855.03880194904
-0.28806377338492,2855.04880194904
-0.27697775377257,2855.05880194904
-0.239351564427045,2855.06880194904
-0.16990031886938,2855.07880194904
-0.070545576202798,2855.08880194904
0.0464323958970047,2855.09880194904
0.166198329165904,2855.10880194904
0.276751978959673,2855.11880194904
0.369027382429662,2855.12880194904
0.440427782914708,2855.13880194904
0.490776599261395,2855.14880194904
0.522659652936288,2855.15880194904
0.539260113161138,2855.16880194904
0.544480861274452,2855.17880194904
0.541561032584148,2855.18880194904
0.533127406931397,2855.19880194904
0.521762722926329,2855.20880194904
0.507534219372319,2855.21880194904
0.491594476273258,2855.22880194904
0.47437237111199,2855.23880194904
0.456412198042647,2855.24880194904
0.439419145570127,2855.25880194904
0.422923702558389,2855.26880194904
0.408188433312754,2855.27880194904
0.394425035607759,2855.28880194904
0.380517861765312,2855.29880194904
0.365265704506844,2855.30880194904
0.348219911392531,2855.31880194904
0.32751634303127,2855.32880194904
0.303225495841072,2855.33880194904
0.275298475032007,2855.34880194904
0.245559519274375,2855.35880194904
0.215916507129279,2855.36880194904
0.188702574196786,2855.37880194904
0.167217572706181,2855.38880194904
0.152319649422162,2855.39880194904
0.145377378185803,2855.40880194904
0.145418643856971,2855.41880194904
0.15033684380015,2855.42880194904
0.158163778016457,2855.43880194904
0.167501367837813,2855.44880194904
0.177337512933524,2855.45880194904
0.186725728333828,2855.46880194904
0.194596856681333,2855.47880194904
0.200180846883421,2855.48880194904
0.202457297015209,2855.49880194904
0.200167990300811,2855.50880194904
0.194304011340842,2855.51880194904
0.185491658148193,2855.52880194904
0.174561551340551,2855.53880194904
0.162219508742869,2855.54880194904
0.149658052273562,2855.55880194904
0.135708268757132,2855.56880194904
0.12067779367426,2855.57880194904
0.104147670515049,2855.58880194904
0.0868312384447428,2855.59880194904
0.0689608342598915,2855.60880194904
0.0509326428757383,2855.61880194904
0.0337424207138385,2855.62880194904
0.0171932230989783,2855.63880194904
0.000113115876435314,2855.64880194904
-0.0169003799661563,2855.65880194904
-0.0340441768380484,2855.66880194904
-0.0511151741393214,2855.67880194904
-0.0674627846166068,2855.68880194904
-0.0827600280890988,2855.69880194904
-0.0971188570002834,2855.70880194904
-0.111563019956203,2855.71880194904
-0.125818581657765,2855.72880194904
-0.140864310103056,2855.73880194904
-0.156339442185807,2855.74880194904
-0.172321700668477,2855.75880194904
-0.188377111440049,2855.76880194904
-0.204774196742936,2855.77880194904
-0.220672046414795,2855.78880194904
-0.236774178570106,2855.79880194904
-0.251807791498551,2855.80880194904
-0.266364300927746,2855.81880194904
-0.279058311519713,2855.82880194904
-0.28903103937365,2855.83880194904
-0.295370700770176,2855.84880194904
-0.290927638771912,2855.85880194904
-0.26723559987156,2855.86880194904
-0.215007723670394,2855.87880194904
-0.13200319531317,2855.88880194904
-0.0253996726389215,2855.89880194904
0.0914223883832021,2855.90880194904
0.203445482998507,2855.91880194904
0.299546922590378,2855.92880194904
0.373604846052217,2855.93880194904
0.425867027328531,2855.94880194904
0.459084598045943,2855.95880194904
0.476676165772504,2855.96880194904
0.483442956602928,2855.97880194904
0.481543907170874,2855.98880194904
0.472987525873071,2855.99880194904
0.459505890262328,2856.00880194904
0.44272774921583,2856.01880194904
0.424477525523115,2856.02880194904
0.406018140837262,2856.03880194904
0.387947687495738,2856.04880194904
0.370170400475799,2856.05880194904
0.352737297016317,2856.06880194904
0.335690360584565,2856.07880194904
0.319062905680791,2856.08880194904
0.30280723555048,2856.09880194904
0.285864399184969,2856.10880194904
0.267423971720182,2856.11880194904
0.24531536472338,2856.12880194904
0.218679262406815,2856.13880194904
0.188463260696243,2856.14880194904
0.157192765199783,2856.15880194904
0.128258912299553,2856.16880194904
0.104844061265888,2856.17880194904
0.0898313638722802,2856.18880194904
0.0835710735232576,2856.19880194904
0.0844723680546884,2856.20880194904
0.091888308854871,2856.21880194904
0.103122074694904,2856.22880194904
0.116087064423325,2856.23880194904
0.129429339519124,2856.24880194904
0.142035080591187,2856.25880194904
0.15136035414872,2856.26880194904
0.156877386366291,2856.27880194904
0.158175517661266,2856.28880194904
0.156116841015534,2856.29880194904
0.150581199125682,2856.30880194904
0.143023552993242,2856.31880194904
0.134424369427614,2856.32880194904
0.124525188680981,2856.33880194904
0.113258210842573,2856.34880194904
0.10091865579459,2856.35880194904
0.0870377523689617,2856.36880194904
0.0727066052979769,2856.37880194904
0.0581448030981972,2856.38880194904
0.0438221959088488,2856.39880194904
0.029283723763495,2856.40880194904
0.0138293137093156,2856.41880194904
-0.00232646643893127,2856.42880194904
-0.0184619162897575,2856.43880194904
-0.0345468058691704,2856.44880194904
-0.0494179258389041,2856.45880194904
-0.0633072470745987,2856.46880194904
-0.0760255955233708,2856.47880194904
-0.0893555396268213,2856.48880194904
-0.102312096362423,2856.49880194904
-0.115823333953028,2856.50880194904
-0.130030426062606,2856.51880194904
-0.144321379099724,2856.52880194904
-0.159027911142768,2856.53880194904
-0.174824850615313,2856.54880194904
-0.191470688186712,2856.55880194904
-0.208705808753254,2856.56880194904
-0.225989662581682,2856.57880194904
-0.24146202093781,2856.58880194904
-0.254768544135567,2856.59880194904
-0.265144568529943,2856.60880194904
-0.269301112710469,2856.61880194904
-0.261932660614888,2856.62880194904
-0.233030443561795,2856.63880194904
-0.175280021228296,2856.64880194904
-0.0881941248660434,2856.65880194904
0.0196424097216181,2856.66880194904
0.134187223491704,2856.67880194904
0.242392556724729,2856.68880194904
0.334277088296872,2856.69880194904
0.40502638861946,2856.70880194904
0.45513819920769,2856.71880194904
0.48704473234795,2856.72880194904
0.505080586436337,2856.73880194904
0.51292161775284,2856.74880194904
0.512492426764321,2856.75880194904
0.505769991979115,2856.76880194904
0.494899291446398,2856.77880194904
0.48183919312538,2856.78880194904
0.467262390265131,2856.79880194904
0.453079892659978,2856.80880194904
0.439668991681617,2856.81880194904
0.426337332481907,2856.82880194904
0.413729287259926,2856.83880194904
0.402033336065265,2856.84880194904
0.390726959079277,2856.85880194904
0.379668303008325,2856.86880194904
0.368240089276606,2856.87880194904
0.356153136479298,2856.88880194904
0.341303660971425,2856.89880194904
0.322691599486336,2856.90880194904
0.29888932258847,2856.91880194904
0.272048710676917,2856.92880194904
0.24399445108733,2856.93880194904
0.217554859564372,2856.94880194904
0.195639305792122,2856.95880194904
0.180317533734601,2856.96880194904
0.17066702172107,2856.97880194904
0.167267349153478,2856.98880194904
0.169203906198353,2856.99880194904
0.17548622336168,2857.00880194904
0.184262533312783,2857.01880194904
0.193629577741771,2857.02880194904
0.202755232799012,2857.03880194904
0.209143412893802,2857.04880194904
0.213001354043199,2857.05880194904
0.213409622154683,2857.06880194904
0.211270259783905,2857.07880194904
0.206324047186988,2857.08880194904
0.198886331088611,2857.09880194904
0.189172699236305,2857.10880194904
0.17753980045161,2857.11880194904
0.163883474648523,2857.12880194904
0.148838013370064,2857.13880194904
0.133520331191819,2857.14880194904
0.117786170087643,2857.15880194904
0.102658954070635,2857.16880194904
0.0869510729275596,2857.17880194904
0.0705560361058238,2857.18880194904
0.0536611831012368,2857.19880194904
0.0367596838626996,2857.20880194904
0.0200762992272321,2857.21880194904
0.00432689993736193,2857.22880194904
-0.0111019223827702,2857.23880194904
-0.0263031816870475,2857.24880194904
-0.0413052129027964,2857.25880194904
-0.0554836295739924,2857.26880194904
-0.0688197134581025,2857.27880194904
-0.08122586632664,2857.28880194904
-0.091968528690599,2857.29880194904
-0.102943405443766,2857.30880194904
-0.115655237109175,2857.31880194904
-0.130627791268758,2857.32880194904
-0.146824462346105,2857.33880194904
-0.164515445008096,2857.34880194904
-0.182009940348512,2857.35880194904
-0.198335810185901,2857.36880194904
-0.213449176651418,2857.37880194904
-0.228107301131863,2857.38880194904
-0.241989735931864,2857.39880194904
-0.252204317600544,2857.40880194904
-0.25612186216171,2857.41880194904
-0.244797129365387,2857.42880194904
-0.208502542578402,2857.43880194904
-0.143209597019891,2857.44880194904
-0.052683052187369,2857.45880194904
0.0524383691917918,2857.46880194904
0.159648649022091,2857.47880194904
0.257134488579846,2857.48880194904
0.337358632309397,2857.49880194904
0.398234283257147,2857.50880194904
0.438659070038047,2857.51880194904
0.460548369422557,2857.52880194904
0.466906970780856,2857.53880194904
0.462283638123704,2857.54880194904
0.450178215230396,2857.55880194904
0.43410744286911,2857.56880194904
0.416938588195628,2857.57880194904
0.398895859973646,2857.58880194904
0.380315437453344,2857.59880194904
0.361654285509024,2857.60880194904
0.343585048129534,2857.61880194904
0.326953618226789,2857.62880194904
0.312257020765132,2857.63880194904
0.30031644985047,2857.64880194904
0.290240301303685,2857.65880194904
0.27987446340155,2857.66880194904
0.268141977826789,2857.67880194904
0.254655140134963,2857.68880194904
0.238032463336567,2857.69880194904
0.218865349907211,2857.70880194904
0.197741939734873,2857.71880194904
0.174459160988249,2857.72880194904
0.149808730944236,2857.73880194904
0.125310617158254,2857.74880194904
0.10404712325853,2857.75880194904
0.0883840510631413,2857.76880194904
0.0800517707603455,2857.77880194904
0.079375713644979,2857.78880194904
0.084657061915709,2857.79880194904
0.0931976444853157,2857.80880194904
0.102711017761382,2857.81880194904
0.112006119833444,2857.82880194904
0.119917932733276,2857.83880194904
0.126599889528993,2857.84880194904
0.132735996354601,2857.85880194904
0.136179965181531,2857.86880194904
0.135877069990847,2857.87880194904
0.131080161471125,2857.88880194904
0.122810301865617,2857.89880194904
0.111824740173788,2857.90880194904
0.100240714869491,2857.91880194904
0.0894920997400435,2857.92880194904
0.078540705177741,2857.93880194904
0.0663955069990722,2857.94880194904
0.0523276491683929,2857.95880194904
0.0372102492901624,2857.96880194904
0.0212782946873213,2857.97880194904
0.00504102333646555,2857.98880194904
-0.0099090741292759,2857.99880194904
-0.0249637883886076,2858.00880194904
-0.040966294758199,2858.01880194904
-0.0579278921191107,2858.02880194904
-0.0748273011396522,2858.03880194904
-0.0916429077246293,2858.04880194904
-0.106666538378099,2858.05880194904
-0.119066272555919,2858.06880194904
-0.130473966509458,2858.07880194904
-0.142291952745413,2858.08880194904
-0.155095819105827,2858.09880194904
-0.169231112235616,2858.10880194904
-0.183961024777763,2858.11880194904
-0.19880647021574,2858.12880194904
-0.212510911339389,2858.13880194904
-0.226160677140721,2858.14880194904
-0.240845829892983,2858.15880194904
-0.256001764150262,2858.16880194904
-0.271536791631154,2858.17880194904
-0.286700649482625,2858.18880194904
-0.299805694561735,2858.19880194904
-0.310310060307056,2858.20880194904
-0.317321806561334,2858.21880194904
-0.316977421088387,2858.22880194904
-0.301364068538847,2858.23880194904
-0.260566399009421,2858.24880194904
-0.191513104185476,2858.25880194904
-0.0985770896655955,2858.26880194904
0.00651131516269842,2858.27880194904
0.10923720771187,2858.28880194904
0.200251251791111,2858.29880194904
0.270681308378653,2858.30880194904
0.317333955736206,2858.31880194904
0.342146242215644,2858.32880194904
0.349444678046453,2858.33880194904
0.344340404267678,2858.34880194904
0.331665456820281,2858.35880194904
0.316045993308216,2858.36880194904
0.29825122322335,2858.37880194904
0.279385838903081,2858.38880194904
0.258744970756223,2858.39880194904
0.238750326935484,2858.40880194904
0.219123949377522,2858.41880194904
0.2009691734845,2858.42880194904
0.185432586168494,2858.43880194904
0.171137243100523,2858.44880194904
0.156865254206406,2858.45880194904
0.141645466764763,2858.46880194904
0.126372071508239,2858.47880194904
0.110412258203004,2858.48880194904
0.0938444000412311,2858.49880194904
0.075384413547464,2858.50880194904
0.0548993914517409,2858.51880194904
0.0313043922569298,2858.52880194904
0.00667847382137303,2858.53880194904
-0.0157890182630481,2858.54880194904
-0.0335361706625248,2858.55880194904
-0.044292124284,2858.56880194904
-0.0459522156868236,2858.57880194904
-0.0413410117861285,2858.58880194904
-0.0327666200112826,2858.59880194904
-0.0226445982879022,2858.60880194904
-0.0119063234326472,2858.61880194904
-0.00143305332361842,2858.62880194904
0.00811730255350537,2858.63880194904
0.0170672749300291,2858.64880194904
0.0239701338474432,2858.65880194904
0.0269341418808611,2858.66880194904
0.0259903802034554,2858.67880194904
0.0221198343991567,2858.68880194904
0.0156233050268886,2858.69880194904
0.00784801462351876,2858.70880194904
0.000426980915490028,2858.71880194904
-0.00800677099791777,2858.72880194904
-0.0181385983872018,2858.73880194904
-0.0306908137348053,2858.74880194904
-0.0443059516876709,2858.75880194904
-0.0580167585721878,2858.76880194904
-0.0714757005853799,2858.77880194904
-0.0833355997234891,2858.78880194904
-0.0944694864142413,2858.79880194904
-0.107013937218811,2858.80880194904
-0.120123033340414,2858.81880194904
-0.133644500229928,2858.82880194904
-0.146605629349853,2858.83880194904
-0.158117828456325,2858.84880194904
-0.167138227727783,2858.85880194904
-0.175669081589826,2858.86880194904
-0.185811970947805,2858.87880194904
-0.197980462834552,2858.88880194904
-0.211312676293806,2858.89880194904
-0.225750626067154,2858.90880194904
-0.239449715256044,2858.91880194904
-0.251598670147358,2858.92880194904
-0.263536072647323,2858.93880194904
-0.276001270758944,2858.94880194904
-0.289480303078513,2858.95880194904
-0.302947139045114,2858.96880194904
-0.314762516294902,2858.97880194904
-0.323042825666573,2858.98880194904
-0.323744698925089,2858.99880194904
-0.311921437908942,2859.00880194904
-0.280825926129875,2859.01880194904
-0.226983395074649,2859.02880194904
-0.151837068908427,2859.03880194904
-0.0633712018912596,2859.04880194904
0.0278155318768549,2859.05880194904
0.112898172815514,2859.06880194904
0.183538276242427,2859.07880194904
0.235486592329929,2859.08880194904
0.267427792286719,2859.09880194904
0.28276096975922,2859.10880194904
0.284756213450362,2859.11880194904
0.278020823657693,2859.12880194904
0.266904422230815,2859.13880194904
0.252357065588385,2859.14880194904
0.235341275881689,2859.15880194904
0.21660367762907,2859.16880194904
0.197714199847428,2859.17880194904
0.179883395043178,2859.18880194904
0.164226472230708,2859.19880194904
0.152466588793225,2859.20880194904
0.142284091292504,2859.21880194904
0.132700907295531,2859.22880194904
0.122041257780778,2859.23880194904
0.11138424099823,2859.24880194904
0.100383176347291,2859.25880194904
0.0881225755624397,2859.26880194904
0.0737415587869538,2859.27880194904
0.0566058823550076,2859.28880194904
0.0376360365626328,2859.29880194904
0.0172376152396764,2859.30880194904
-0.00361084501480716,2859.31880194904
-0.0232062932288208,2859.32880194904
-0.0390413583488841,2859.33880194904
-0.0494161800181742,2859.34880194904
-0.0537434185004619,2859.35880194904
-0.0514898002138165,2859.36880194904
-0.0451950563955376,2859.37880194904
-0.0374727760762088,2859.38880194904
-0.0305373787116269,2859.39880194904
-0.0237937620273042,2859.40880194904
-0.01817496940003,2859.41880194904
-0.0136765199756226,2859.42880194904
-0.00874134027965406,2859.43880194904
-0.00602033950090207,2859.44880194904
-0.00655524232954179,2859.45880194904
-0.010149499470587,2859.46880194904
-0.0160148328481569,2859.47880194904
-0.0242080622681323,2859.48880194904
-0.032713610238938,2859.49880194904
-0.0406787179092189,2859.50880194904
-0.0493863272471487,2859.51880194904
-0.0599389783648292,2859.52880194904
-0.072380125452286,2859.53880194904
-0.0859955426072843,2859.54880194904
-0.100360528995029,2859.55880194904
-0.114145690732218,2859.56880194904
-0.126022610236476,2859.57880194904
-0.137159876702687,2859.58880194904
-0.147846177234401,2859.59880194904
-0.159537924843434,2859.60880194904
-0.171120552108587,2859.61880194904
-0.182519656216263,2859.62880194904
-0.193308517658516,2859.63880194904
-0.201844735850961,2859.64880194904
-0.210284284287244,2859.65880194904
-0.219193602322976,2859.66880194904
-0.229301326157244,2859.67880194904
-0.240216532684892,2859.68880194904
-0.251411887294774,2859.69880194904
-0.263175781064183,2859.70880194904
-0.273932211802189,2859.71880194904
-0.284780476255501,2859.72880194904
-0.296955879564835,2859.73880194904
-0.309601888212165,2859.74880194904
-0.322837395485999,2859.75880194904
-0.335657274652561,2859.76880194904
-0.34649154739845,2859.77880194904
-0.35277445184356,2859.78880194904
-0.352496905903043,2859.79880194904
-0.339748950370133,2859.80880194904
-0.308327218134266,2859.81880194904
-0.252984842373187,2859.82880194904
-0.176452856518128,2859.83880194904
-0.0863098274198202,2859.84880194904
0.00774357150368783,2859.85880194904
0.093418707040086,2859.86880194904
0.163403473972879,2859.87880194904
0.213960039806132,2859.88880194904
0.245655215477875,2859.89880194904
0.261688909408537,2859.90880194904
0.266020137895175,2859.91880194904
0.263491066431833,2859.92880194904
0.255304079788939,2859.93880194904
0.243012958033796,2859.94880194904
0.227873276261356,2859.95880194904
0.211907136439076,2859.96880194904
0.196192782408742,2859.97880194904
0.181563449511907,2859.98880194904
0.169130781731645,2859.99880194904
0.157975722599325,2860.00880194904
0.147260936327389,2860.01880194904
0.13701183022988,2860.02880194904
0.127147342228925,2860.03880194904
0.117389218070137,2860.04880194904
0.108188355834453,2860.05880194904
0.0994543046490759,2860.06880194904
0.0883467448920101,2860.07880194904
0.0738053320383746,2860.08880194904
0.0548252505515888,2860.09880194904
0.0331435361747787,2860.10880194904
0.0105194934552808,2860.11880194904
-0.00963312582089395,2860.12880194904
-0.0249344449453205,2860.13880194904
-0.0354826873438958,2860.14880194904
-0.0417086340286366,2860.15880194904
-0.0443534829048442,2860.16880194904
-0.0434829222034364,2860.17880194904
-0.040028194987177,2860.18880194904
-0.0339338848397911,2860.19880194904
-0.0257836887706492,2860.20880194904
-0.0169189199162669,2860.21880194904
-0.0100600088667942,2860.22880194904
-0.00567083987176474,2860.23880194904
-0.00444535333307455,2860.24880194904
-0.0061331822157773,2860.25880194904
-0.00962283952298052,2860.26880194904
-0.0145674815414408,2860.27880194904
-0.0199931950016375,2860.28880194904
-0.0252797640930205,2860.29880194904
-0.0311866910387415,2860.30880194904
-0.0392551104504672,2860.31880194904
-0.0498365630375552,2860.32880194904
-0.0621346747602474,2860.33880194904
-0.0749417305988677,2860.34880194904
-0.0876320555557898,2860.35880194904
-0.0989345335739083,2860.36880194904
-0.109869817144214,2860.37880194904
-0.122265850217436,2860.38880194904
-0.13594582236823,2860.39880194904
-0.149565549879823,2860.40880194904
-0.162982312496091,2860.41880194904
-0.175204203398598,2860.42880194904
-0.185267364442882,2860.43880194904
-0.194719127933413,2860.44880194904
-0.203783644414089,2860.45880194904
-0.214145674440892,2860.46880194904
-0.2249264229143,2860.47880194904
-0.236273049984718,2860.48880194904
-0.247496874739736,2860.49880194904
-0.257447800308635,2860.50880194904
-0.268069401120185,2860.51880194904
-0.279967836957245,2860.52880194904
-0.293613805041492,2860.53880194904
-0.307591379291716,2860.54880194904
-0.321592368573208,2860.55880194904
-0.334474522267871,2860.56880194904
-0.344896933445678,2860.57880194904
-0.354145819188634,2860.58880194904
-0.363192094015234,2860.59880194904
-0.370971198063035,2860.60880194904
-0.373077103476466,2860.61880194904
-0.362491326946051,2860.62880194904
-0.330152206349309,2860.63880194904
-0.270797587839018,2860.64880194904
-0.187832066294696,2860.65880194904
-0.0926067434462683,2860.66880194904
0.00305486263961146,2860.67880194904
0.0888104195653994,2860.68880194904
0.157802150275536,2860.69880194904
0.207970806042018,2860.70880194904
0.240502567405708,2860.71880194904
0.256481436165467,2860.72880194904
0.258479276461428,2860.73880194904
0.250845198597784,2860.74880194904
0.237149585360002,2860.75880194904
0.220132371662902,2860.76880194904
0.202744629798805,2860.77880194904
0.186218003703686,2860.78880194904
0.170350882201782,2860.79880194904
0.154096697502739,2860.80880194904
0.137753857267768,2860.81880194904
0.122189623722342,2860.82880194904
0.10760866401779,2860.83880194904
0.0961888289732757,2860.84880194904
0.0865625300217672,2860.85880194904
0.0785029681939572,2860.86880194904
0.0688442306535895,2860.87880194904
0.0560571235284295,2860.88880194904
0.0394332365363393,2860.89880194904
0.0185809436947862,2860.90880194904
-0.00388644820914407,2860.91880194904
-0.0259894491537998,2860.92880194904
-0.046408928884979,2860.93880194904
-0.0637492676822733,2860.94880194904
-0.0771061826020617,2860.95880194904
-0.0848449817115254,2860.96880194904
-0.0864418804026793,2860.97880194904
-0.0811675981353909,2860.98880194904
-0.0701397319679663,2860.99880194904
-0.0573763385715448,2861.00880194904
-0.0445499027691682,2861.01880194904
-0.0337769291934088,2861.02880194904
-0.0252984408180343,2861.03880194904
-0.0193131053270145,2861.04880194904
-0.0156904633585128,2861.05880194904
-0.012636487384783,2861.06880194904
-0.0119569752241223,2861.07880194904
-0.0140530142513689,2861.08880194904
-0.0196413314562916,2861.09880194904
-0.0277286688768815,2861.10880194904
-0.03662425592684,2861.11880194904
-0.0465278950393919,2861.12880194904
-0.0550977201273202,2861.13880194904
-0.0637924607101899,2861.14880194904
-0.073587656410468,2861.15880194904
-0.0858786879446186,2861.16880194904
-0.0984463258388701,2861.17880194904
-0.111067156166141,2861.18880194904
-0.122435849335561,2861.19880194904
-0.131395270464827,2861.20880194904
-0.139837846072438,2861.21880194904
-0.149300435731726,2861.22880194904
-0.159709579095799,2861.23880194904
-0.171119068749604,2861.24880194904
-0.182816784928736,2861.25880194904
-0.194289818473276,2861.26880194904
-0.205686947140731,2861.27880194904
-0.216748072693948,2861.28880194904
-0.226270494289659,2861.29880194904
-0.236334513249567,2861.30880194904
-0.24615961799562,2861.31880194904
-0.257210174229996,2861.32880194904
-0.268026950959665,2861.33880194904
-0.278643543227183,2861.34880194904
-0.288313781387024,2861.35880194904
-0.295267635974238,2861.36880194904
-0.299160208930567,2861.37880194904
-0.295846530756716,2861.38880194904
-0.278981939133664,2861.39880194904
-0.240754533860295,2861.40880194904
-0.179075648716292,2861.41880194904
-0.0984392803575816,2861.42880194904
-0.00631013235022164,2861.43880194904
0.0846556121225955,2861.44880194904
0.164568559799511,2861.45880194904
0.227182326895625,2861.46880194904
0.271252113080638,2861.47880194904
0.297738768416788,2861.48880194904
0.309372514886145,2861.49880194904
0.311638768577404,2861.50880194904
0.305302771956138,2861.51880194904
0.292902031369822,2861.52880194904
0.276841729498646,2861.53880194904
0.259414013742927,2861.54880194904
0.241845500736747,2861.55880194904
0.225816601545193,2861.56880194904
0.212674962350243,2861.57880194904
0.200525374928663,2861.58880194904
0.188893752638152,2861.59880194904
0.176693972620948,2861.60880194904
0.165061089998063,2861.61880194904
0.153901515154129,2861.62880194904
0.143299376552155,2861.63880194904
0.133389293424921,2861.64880194904
0.121652729429137,2861.65880194904
0.106130832118387,2861.66880194904
0.0869274244711752,2861.67880194904
0.0651168067647052,2861.68880194904
0.0433371429267212,2861.69880194904
0.0251307929955304,2861.70880194904
0.0138553795816284,2861.71880194904
0.00850800256819968,2861.72880194904
0.00907377416199865,2861.73880194904
0.0130709688624591,2861.74880194904
0.0201828154104679,2861.75880194904
0.0280526031917222,2861.76880194904
0.0374261329777914,2861.77880194904
0.0475026896076188,2861.78880194904
0.0565198972781226,2861.79880194904
0.0632850245437338,2861.80880194904
0.0667273493925278,2861.81880194904
0.0669356907751733,2861.82880194904
0.0645274682388008,2861.83880194904
0.0607304772879422,2861.84880194904
0.057062252834469,2861.85880194904
0.0519990562155103,2861.86880194904
0.0446759906504342,2861.87880194904
0.0351290641529526,2861.88880194904
0.025083811720479,2861.89880194904
0.0139916965090303,2861.90880194904
0.00309868872578777,2861.91880194904
-0.00678840454397746,2861.92880194904
-0.0165779637283388,2861.93880194904
-0.0273035571872071,2861.94880194904
-0.0391789700236668,2861.95880194904
-0.0510937296758731,2861.96880194904
-0.0632756744901182,2861.97880194904
-0.0745063389229671,2861.98880194904
-0.0837001108253978,2861.99880194904
-0.0919580998630847,2862.00880194904
-0.100561804357859,2862.01880194904
-0.110247729762375,2862.02880194904
-0.120452441355509,2862.03880194904
-0.131569284735344,2862.04880194904
-0.142290193536028,2862.05880194904
-0.152506268173451,2862.06880194904
-0.163273849189224,2862.07880194904
-0.175389984685554,2862.08880194904
-0.189180852470704,2862.09880194904
-0.20207142019713,2862.10880194904
-0.214201889581059,2862.11880194904
-0.224156518543677,2862.12880194904
-0.230490240870012,2862.13880194904
-0.232673621897461,2862.14880194904
-0.226970217217716,2862.15880194904
-0.20622573489074,2862.16880194904
-0.163808963629117,2862.17880194904
-0.0975777139678987,2862.18880194904
-0.0118115644830179,2862.19880194904
0.0841259986831341,2862.20880194904
0.178274400486747,2862.21880194904
0.261594567811982,2862.22880194904
0.327395095187838,2862.23880194904
0.375062053720013,2862.24880194904
0.404768734480853,2862.25880194904
0.420095698747156,2862.26880194904
0.423824548441294,2862.27880194904
0.420362080170273,2862.28880194904
0.412707742835006,2862.29880194904
0.403138502342924,2862.30880194904
0.391411384062118,2862.31880194904
0.378229591414544,2862.32880194904
0.364827552501125,2862.33880194904
0.351708948124523,2862.34880194904
0.340740837375852,2862.35880194904
0.332072938721235,2862.36880194904
0.324809957419591,2862.37880194904
0.31818230996556,2862.38880194904
0.311543838337866,2862.39880194904
0.304936402573903,2862.40880194904
0.297796209731176,2862.41880194904
0.289414761587011,2862.42880194904
0.27979826653459,2862.43880194904
0.266848814781886,2862.44880194904
0.249808592789947,2862.45880194904
0.229830412720642,2862.46880194904
0.209133707734623,2862.47880194904
0.190442935334126,2862.48880194904
0.176096470404654,2862.49880194904
0.168064561759591,2862.50880194904
0.165490338222286,2862.51880194904
0.167192213527078,2862.52880194904
0.170987558867093,2862.53880194904
0.17688351701096,2862.54880194904
0.183445701252578,2862.55880194904
0.19037938753508,2862.56880194904
0.197686191890821,2862.57880194904
0.203670365110217,2862.58880194904
0.207775265621376,2862.59880194904
0.209037978509784,2862.60880194904
0.207280240805462,2862.61880194904
0.203451530844417,2862.62880194904
0.198222393326884,2862.63880194904
0.193111158544413,2862.64880194904
0.186958043848363,2862.65880194904
0.179059714919984,2862.66880194904
0.169362764923007,2862.67880194904
0.158012930596165,2862.68880194904
0.145441080744888,2862.69880194904
0.132378002568,2862.70880194904
0.120262240165081,2862.71880194904
0.10822390934686,2862.72880194904
0.0956337531831178,2862.73880194904
0.0821848547139744,2862.74880194904
0.0684968026240506,2862.75880194904
0.0546792820721958,2862.76880194904
0.0424513336964897,2862.77880194904
0.0322319524208045,2862.78880194904
0.0227932965239131,2862.79880194904
0.0138257095267958,2862.80880194904
0.00386419249411756,2862.81880194904
-0.00604666121836731,2862.82880194904
-0.0166843652606285,2862.83880194904
-0.0271381379608911,2862.84880194904
-0.036418446382984,2862.85880194904
-0.0463418403453085,2862.86880194904
-0.05705379422837,2862.87880194904
-0.0698150333885389,2862.88880194904
-0.0826536744980063,2862.89880194904
-0.0953705831875497,2862.90880194904
-0.106600842691089,2862.91880194904
-0.115547324419981,2862.92880194904
-0.122643625446355,2862.93880194904
-0.126765925123221,2862.94880194904
-0.123384826873597,2862.95880194904
-0.105267324667235,2862.96880194904
-0.065798959505636,2862.97880194904
-0.00206078250131505,2862.98880194904
0.0810981964775888,2862.99880194904
0.174523113255697,2863.00880194904
0.265823599710414,2863.01880194904
0.345472631286238,2863.02880194904
0.408692350934812,2863.03880194904
0.452766934435627,2863.04880194904
0.480538161120246,2863.05880194904
0.495467683819374,2863.06880194904
0.499718439885742,2863.07880194904
0.495464700040719,2863.08880194904
0.484970146285399,2863.09880194904
0.471096041142835,2863.10880194904
0.455424970777774,2863.11880194904
0.43982290198501,2863.12880194904
0.426621459351822,2863.13880194904
0.415036120474299,2863.14880194904
0.403989071766955,2863.15880194904
0.392732519189878,2863.16880194904
0.382250493331905,2863.17880194904
0.372107599971679,2863.18880194904
0.362819081649247,2863.19880194904
0.35560810854811,2863.20880194904
0.347043391385819,2863.21880194904
0.335898779464123,2863.22880194904
0.320025621297182,2863.23880194904
0.300440346165685,2863.24880194904
0.277655395527923,2863.25880194904
0.254557700479147,2863.26880194904
0.233221786760329,2863.27880194904
0.215713875480876,2863.28880194904
0.205120960899385,2863.29880194904
0.20024945641864,2863.30880194904
0.199839305947671,2863.31880194904
0.202583039330167,2863.32880194904
0.207683629296017,2863.33880194904
0.214052022132056,2863.34880194904
0.221668368025417,2863.35880194904
0.230039976183794,2863.36880194904
0.236889451211785,2863.37880194904
0.241220194572794,2863.38880194904
0.241903690010831,2863.39880194904
0.239360613414241,2863.40880194904
0.234865307866404,2863.41880194904
0.228215688825911,2863.42880194904
0.221789223763533,2863.43880194904
0.214256056579315,2863.44880194904
0.20554475484903,2863.45880194904
0.195146739377435,2863.46880194904
0.183377432902124,2863.47880194904
0.170681239359451,2863.48880194904
0.158320086449892,2863.49880194904
0.146985638620857,2863.50880194904
0.135667741238871,2863.51880194904
0.122981175645997,2863.52880194904
0.108374389441364,2863.53880194904
0.0931413902437869,2863.54880194904
0.0779078880860646,2863.55880194904
0.0635488023911954,2863.56880194904
0.0510921510512865,2863.57880194904
0.0394539239676935,2863.58880194904
0.0281915124819581,2863.59880194904
0.0162636745358521,2863.60880194904
0.00432225828833817,2863.61880194904
-0.00752257677307583,2863.62880194904
-0.018574045365492,2863.63880194904
-0.0281157295074464,2863.64880194904
-0.0377112113038814,2863.65880194904
-0.048251243533638,2863.66880194904
-0.0606198270290315,2863.67880194904
-0.0747744780371026,2863.68880194904
-0.0891058774444602,2863.69880194904
-0.10298727306197,2863.70880194904
-0.115140863299933,2863.71880194904
-0.125932327649632,2863.72880194904
-0.136544085632892,2863.73880194904
-0.14682533364395,2863.74880194904
-0.155446393149362,2863.75880194904
-0.15798308848796,2863.76880194904
-0.147791291823795,2863.77880194904
-0.11590491020199,2863.78880194904
-0.05966207394692,2863.79880194904
0.016814516552904,2863.80880194904
0.104859340819013,2863.81880194904
0.194850079481335,2863.82880194904
0.276720937127207,2863.83880194904
0.343813238334266,2863.84880194904
0.394336218472961,2863.85880194904
0.426460689591567,2863.86880194904
0.441941069626364,2863.87880194904
0.443932835585266,2863.88880194904
0.43637555256403,2863.89880194904
0.423178145506524,2863.90880194904
0.40668261589582,2863.91880194904
0.38979332471301,2863.92880194904
0.373500547636512,2863.93880194904
0.356879629030513,2863.94880194904
0.339997747736601,2863.95880194904
0.323426138652494,2863.96880194904
0.307932902868038,2863.97880194904
0.294777613377851,2863.98880194904
0.284936600015073,2863.99880194904
0.276241228929445,2864.00880194904
0.266948674768539,2864.01880194904
0.255170475689053,2864.02880194904
0.240449730083553,2864.03880194904
0.222142840682272,2864.04880194904
0.201515160368798,2864.05880194904
0.180467136958177,2864.06880194904
0.160019160578618,2864.07880194904
0.141296926449253,2864.08880194904
0.126614953037109,2864.09880194904
0.117501720068432,2864.10880194904
0.113871076168216,2864.11880194904
0.116499563204321,2864.12880194904
0.124675634941509,2864.13880194904
0.135138075253258,2864.14880194904
0.145655397480531,2864.15880194904
0.153425814451329,2864.16880194904
0.159788733461287,2864.17880194904
0.163126293623681,2864.18880194904
0.165241964025179,2864.19880194904
0.166876718752625,2864.20880194904
0.165876997936286,2864.21880194904
0.162876388530664,2864.22880194904
0.157347333494332,2864.23880194904
0.150001716056945,2864.24880194904
0.14146703343993,2864.25880194904
0.13227894285488,2864.26880194904
0.122160514685029,2864.27880194904
0.112027426684647,2864.28880194904
0.102618645179197,2864.29880194904
0.0926280579940289,2864.30880194904
0.0814857690270064,2864.31880194904
0.0690027699636392,2864.32880194904
0.0565968701753071,2864.33880194904
0.0445628071631293,2864.34880194904
0.0330061717272189,2864.35880194904
0.023697788912911,2864.36880194904
0.0143428297688317,2864.37880194904
0.00368305122944774,2864.38880194904
-0.00770372739586492,2864.39880194904
-0.0196538555720097,2864.40880194904
-0.0319119692845016,2864.41880194904
-0.0429858875675797,2864.42880194904
-0.0522228502978536,2864.43880194904
-0.0615731674536525,2864.44880194904
-0.0720726875983159,2864.45880194904
-0.0848753830876645,2864.46880194904
-0.0984544082681225,2864.47880194904
-0.111969239067257,2864.48880194904
-0.124363717429462,2864.49880194904
-0.133706440001232,2864.50880194904
-0.141803720014987,2864.51880194904
-0.149978040759801,2864.52880194904
-0.157523459739501,2864.53880194904
-0.160190871546588,2864.54880194904
-0.151524315173781,2864.55880194904
-0.123702177633481,2864.56880194904
-0.0723645663759732,2864.57880194904
-0.00139985770822368,2864.58880194904
0.0805806668840555,2864.59880194904
0.164091137319472,2864.60880194904
0.240819072355096,2864.61880194904
0.304095659245456,2864.62880194904
0.350550077728942,2864.63880194904
0.382070359799713,2864.64880194904
0.399202595308274,2864.65880194904
0.40315753727823,2864.66880194904
0.397852658800971,2864.67880194904
0.386292654184143,2864.68880194904
0.371399869053157,2864.69880194904
0.356215532650528,2864.70880194904
0.342725997472727,2864.71880194904
0.330468182933732,2864.72880194904
0.318403550061995,2864.73880194904
0.305927418792423,2864.74880194904
0.294408785406073,2864.75880194904
0.284141514701012,2864.76880194904
0.275517281530064,2864.77880194904
0.269357437354903,2864.78880194904
0.262842526491529,2864.79880194904
0.254412495721139,2864.80880194904
0.242536648235676,2864.81880194904
0.22733274584484,2864.82880194904
0.209034300361087,2864.83880194904
0.188892361021207,2864.84880194904
0.170318140900799,2864.85880194904
0.153385137469759,2864.86880194904
0.139421547659604,2864.87880194904
0.128935394489663,2864.88880194904
0.123287765459554,2864.89880194904
0.121228637252386,2864.90880194904
0.123144679572883,2864.91880194904
0.12918126389586,2864.92880194904
0.136396061185273,2864.93880194904
0.143432835758004,2864.94880194904
0.148345970238282,2864.95880194904
0.1513406072918,2864.96880194904
0.152829891630991,2864.97880194904
0.152647820767669,2864.98880194904
0.152153247885691,2864.99880194904
0.149986386812124,2865.00880194904
0.145611513086025,2865.01880194904
0.138646600665277,2865.02880194904
0.129779156872234,2865.03880194904
0.118872633790895,2865.04880194904
0.107858965221749,2865.05880194904
0.0978669850853662,2865.06880194904
0.0875827273648134,2865.07880194904
0.0769985077536901,2865.08880194904
0.0648917229527904,2865.09880194904
0.0522263021514151,2865.10880194904
0.0381847389082924,2865.11880194904
0.0247100573043201,2865.12880194904
0.0128880075982654,2865.13880194904
0.00234399654570739,2865.14880194904
-0.00780798661292252,2865.15880194904
-0.0184593775120395,2865.16880194904
-0.0286433636236298,2865.17880194904
-0.0391628034622923,2865.18880194904
-0.0490414287576168,2865.19880194904
-0.0575837383325826,2865.20880194904
-0.0659861463269033,2865.21880194904
-0.0752222574512653,2865.22880194904
-0.0855963469138187,2865.23880194904
-0.0962114757570879,2865.24880194904
-0.106752085521774,2865.25880194904
-0.117058149199103,2865.26880194904
-0.127910020051636,2865.27880194904
-0.139717577550023,2865.28880194904
-0.150318491605702,2865.29880194904
-0.161701036165308,2865.30880194904
-0.174053230590648,2865.31880194904
-0.187257555532018,2865.32880194904
-0.199913440238431,2865.33880194904
-0.211490754187429,2865.34880194904
-0.219214853087762,2865.35880194904
-0.218140251999737,2865.36880194904
-0.202487440720143,2865.37880194904
-0.168133720752205,2865.38880194904
-0.111866582076235,2865.39880194904
-0.0362459340215506,2865.40880194904
0.0497667195000981,2865.41880194904
0.137595478630665,2865.42880194904
0.219742448621059,2865.43880194904
0.287660831506266,2865.44880194904
0.33786830720851,2865.45880194904
0.369910657491709,2865.46880194904
0.386455855715591,2865.47880194904
0.390924900537616,2865.48880194904
0.386990802630669,2865.49880194904
0.379648881835546,2865.50880194904
0.369447754052133,2865.51880194904
0.358120191795852,2865.52880194904
0.345616444937124,2865.53880194904
0.333304320895623,2865.54880194904
0.321940395655726,2865.55880194904
0.312214621245771,2865.56880194904
0.305030343731379,2865.57880194904
0.299320341278886,2865.58880194904
0.292799359622095,2865.59880194904
0.28570482038978,2865.60880194904
0.27817440832163,2865.61880194904
0.269879980192642,2865.62880194904
0.260966552784946,2865.63880194904
0.251923339839834,2865.64880194904
0.24026239073179,2865.65880194904
0.225070831250345,2865.66880194904
0.207133409163205,2865.67880194904
0.188173259470062,2865.68880194904
0.170697888022187,2865.69880194904
0.155934388199269,2865.70880194904
0.147150710266568,2865.71880194904
0.142345411271753,2865.72880194904
0.140891590877554,2865.73880194904
0.141938835128377,2865.74880194904
0.145343057517437,2865.75880194904
0.149850329124143,2865.76880194904
0.155259649174335,2865.77880194904
0.161414527784243,2865.78880194904
0.166639475540613,2865.79880194904
0.16862225566847,2865.80880194904
0.167494616932388,2865.81880194904
0.163741270014226,2865.82880194904
0.15853433732502,2865.83880194904
0.152044179644049,2865.84880194904
0.14593316850405,2865.85880194904
0.139856261552751,2865.86880194904
0.131818645898946,2865.87880194904
0.121846484991617,2865.88880194904
0.110560171280953,2865.89880194904
0.0983080694253814,2865.90880194904
0.0852966727231556,2865.91880194904
0.0730948509920795,2865.92880194904
0.0605355289287808,2865.93880194904
0.0463932686761121,2865.94880194904
0.0314412067179188,2865.95880194904
0.0160151748138797,2865.96880194904
0.00159302434092917,2865.97880194904
-0.0118654780689711,2865.98880194904
-0.0229259430519599,2865.99880194904
-0.0329367626984452,2866.00880194904
-0.0432998900687025,2866.01880194904
-0.0546210838626975,2866.02880194904
-0.0662627057528781,2866.03880194904
-0.0780976153064245,2866.04880194904
-0.0886041816392284,2866.05880194904
-0.0972611566831067,2866.06880194904
-0.105600506972811,2866.07880194904
-0.11446619086931,2866.08880194904
-0.124629261104736,2866.09880194904
-0.135891740399331,2866.10880194904
-0.147744751483821,2866.11880194904
-0.159756850045285,2866.12880194904
-0.170702647740632,2866.13880194904
-0.181988552788614,2866.14880194904
-0.194284191256078,2866.15880194904
-0.207581798552778,2866.16880194904
-0.220337849376601,2866.17880194904
-0.232735858588911,2866.18880194904
-0.243206531101493,2866.19880194904
-0.249065638242681,2866.20880194904
-0.247961144042301,2866.21880194904
-0.234606383579076,2866.22880194904
-0.20226235121212,2866.23880194904
-0.147720971521048,2866.24880194904
-0.07356065393271,2866.25880194904
0.0125666902341525,2866.26880194904
0.0998044316717544,2866.27880194904
0.180425860116184,2866.28880194904
0.249035856615857,2866.29880194904
0.300733840931549,2866.30880194904
0.335620916870215,2866.31880194904
0.353783364185492,2866.32880194904
0.359613944697898,2866.33880194904
0.355994589540273,2866.34880194904
0.34676212858032,2866.35880194904
0.335680424749268,2866.36880194904
0.323289987491201,2866.37880194904
0.309995761215856,2866.38880194904
0.295917610124843,2866.39880194904
0.282644544636297,2866.40880194904
0.269676238058497,2866.41880194904
0.258393192594996,2866.42880194904
0.249404381010488,2866.43880194904
0.242010275047233,2866.44880194904
0.234486243529489,2866.45880194904
0.226068010456505,2866.46880194904
0.216327357243004,2866.47880194904
0.204510923160199,2866.48880194904
0.190511197886111,2866.49880194904
0.174581901089254,2866.50880194904
0.15666206814513,2866.51880194904
0.136502003637388,2866.52880194904
0.11637939497155,2866.53880194904
0.0982200989678902,2866.54880194904
0.0837063879532795,2866.55880194904
0.0749407224653718,2866.56880194904
0.0722340893331469,2866.57880194904
0.0744976656355155,2866.58880194904
0.0789490508998981,2866.59880194904
0.0844333088138961,2866.60880194904
0.0896230877343051,2866.61880194904
0.095021773287946,2866.62880194904
0.0996797341255263,2866.63880194904
0.104959604375927,2866.64880194904
0.108327468224446,2866.65880194904
0.109215717909938,2866.66880194904
0.107037322986833,2866.67880194904
0.102437905897968,2866.68880194904
0.0958692690944519,2866.69880194904
0.0887814686589525,2866.70880194904
0.0824994341638118,2866.71880194904
0.0755140502899464,2866.72880194904
0.0668737551770813,2866.73880194904
0.0564114328937584,2866.74880194904
0.0440885450667812,2866.75880194904
0.0308677235346773,2866.76880194904
0.0176081313211893,2866.77880194904
0.00555198693146979,2866.78880194904
-0.00577550630941203,2866.79880194904
-0.0178523726942347,2866.80880194904
-0.0301810726845911,2866.81880194904
-0.0419587265308988,2866.82880194904
-0.053561695011569,2866.83880194904
-0.0644129973115315,2866.84880194904
-0.0738460137144171,2866.85880194904
-0.0826139222487007,2866.86880194904
-0.0928047412569351,2866.87880194904
-0.104164179142812,2866.88880194904
-0.116405895911204,2866.89880194904
-0.129743314851797,2866.90880194904
-0.142532961366887,2866.91880194904
-0.153518368860849,2866.92880194904
-0.164114778769029,2866.93880194904
-0.175154003609347,2866.94880194904
-0.186845228153355,2866.95880194904
-0.198785530474707,2866.96880194904
-0.210643618523235,2866.97880194904
-0.221172221756343,2866.98880194904
-0.229095267160337,2866.99880194904
-0.235207361510788,2867.00880194904
-0.236399411112623,2867.01880194904
-0.227922273542524,2867.02880194904
-0.204229133522016,2867.03880194904
-0.16140605311339,2867.04880194904
-0.100115316252522,2867.05880194904
-0.0252436428911574,2867.06880194904
0.0539688923769457,2867.07880194904
0.128542831813673,2867.08880194904
0.192301699854624,2867.09880194904
0.242579998342307,2867.10880194904
0.278744771878463,2867.11880194904
0.301922135903791,2867.12880194904
0.316057637509552,2867.13880194904
0.32084334356137,2867.14880194904
0.318916734988509,2867.15880194904
0.311485633638059,2867.16880194904
0.300573485231401,2867.17880194904
0.288122086700574,2867.18880194904
0.276405174353395,2867.19880194904
0.266979411528889,2867.20880194904
0.258918670127741,2867.21880194904
0.250930367281932,2867.22880194904
0.242683666665121,2867.23880194904
0.234463658425059,2867.24880194904
0.225963596904934,2867.25880194904
0.217690422286799,2867.26880194904
0.207678428627181,2867.27880194904
0.196088621343754,2867.28880194904
0.183346636526669,2867.29880194904
0.168280312096445,2867.30880194904
0.150974521307086,2867.31880194904
0.132593199680755,2867.32880194904
0.116260440867595,2867.33880194904
0.103796802038901,2867.34880194904
0.0965224762128422,2867.35880194904
0.0951168630896262,2867.36880194904
0.0972892214547462,2867.37880194904
0.101412004261419,2867.38880194904
0.105530251909524,2867.39880194904
0.109889649501579,2867.40880194904
0.114399238351376,2867.41880194904
0.118815346464096,2867.42880194904
0.123291174761161,2867.43880194904
0.127112993288106,2867.44880194904
0.12825931795208,2867.45880194904
0.126305480373968,2867.46880194904
0.121389041384253,2867.47880194904
0.11472360689619,2867.48880194904
0.107109600231912,2867.49880194904
0.100149110786469,2867.50880194904
0.0931174667365301,2867.51880194904
0.0840910285879037,2867.52880194904
0.0738859781683539,2867.53880194904
0.0621735972231868,2867.54880194904
0.049125860351407,2867.55880194904
0.0362502559435711,2867.56880194904
0.0246468418048601,2867.57880194904
0.0134250891917915,2867.58880194904
0.00131203193003451,2867.59880194904
-0.0111599084469363,2867.60880194904
-0.0240433165030969,2867.61880194904
-0.0370292477791539,2867.62880194904
-0.0487212675836196,2867.63880194904
-0.0584099106715322,2867.64880194904
-0.0671714666314296,2867.65880194904
-0.076208361179536,2867.66880194904
-0.0861709641244018,2867.67880194904
-0.096653679452611,2867.68880194904
-0.107716302673094,2867.69880194904
-0.118724793942046,2867.70880194904
-0.128826139348273,2867.71880194904
-0.138914588968274,2867.72880194904
-0.150351709921585,2867.73880194904
-0.163210242754727,2867.74880194904
-0.177302200254897,2867.75880194904
-0.192128199087919,2867.76880194904
-0.205814016158535,2867.77880194904
-0.217239714244939,2867.78880194904
-0.228077472142642,2867.79880194904
-0.238558006666098,2867.80880194904
-0.248260366261297,2867.81880194904
-0.254485572634924,2867.82880194904
-0.252146189351116,2867.83880194904
-0.23443846857172,2867.84880194904
-0.194732311901438,2867.85880194904
-0.13425185724929,2867.86880194904
-0.0570717968471901,2867.87880194904
0.0277175310635442,2867.88880194904
0.112843540260653,2867.89880194904
0.191036891613465,2867.90880194904
0.258634462334669,2867.91880194904
0.313774176527762,2867.92880194904
0.35504957541171,2867.93880194904
0.383178313399184,2867.94880194904
0.398988687670542,2867.95880194904
0.405876986383711,2867.96880194904
0.407215396212988,2867.97880194904
0.404700568238181,2867.98880194904
0.401325393829769,2867.99880194904
0.397205854881335,2868.00880194904
0.390982585650359,2868.01880194904
0.383953765354519,2868.02880194904
0.377074573933676,2868.03880194904
0.370389924456509,2868.04880194904
0.365557699418491,2868.05880194904
0.362726965778989,2868.06880194904
0.360774838857915,2868.07880194904
0.357602338783661,2868.08880194904
0.352239938908867,2868.09880194904
0.344190132639538,2868.10880194904
0.332943066070731,2868.11880194904
0.318742309316257,2868.12880194904
0.303244298541251,2868.13880194904
0.286006714334074,2868.14880194904
0.267812758942057,2868.15880194904
0.24992942490297,2868.16880194904
0.234069440541314,2868.17880194904
0.221805439684321,2868.18880194904
0.2147201355833,2868.19880194904
0.213427934438379,2868.20880194904
0.215532311825015,2868.21880194904
0.218898695630775,2868.22880194904
0.222363626479442,2868.23880194904
0.226188852373762,2868.24880194904
0.229124698257677,2868.25880194904
0.231739200987467,2868.26880194904
0.232880545666735,2868.27880194904
0.232649063869049,2868.28880194904
0.231588440947584,2868.29880194904
0.228567007562469,2868.30880194904
0.223163146160347,2868.31880194904
0.215122580544358,2868.32880194904
0.205770774941958,2868.33880194904
0.195099144226517,2868.34880194904
0.1844961162503,2868.35880194904
0.173955661156957,2868.36880194904
0.162985810752009,2868.37880194904
0.150545272937081,2868.38880194904
0.135771203868178,2868.39880194904
0.119568074720265,2868.40880194904
0.102486267020238,2868.41880194904
0.0857750111611977,2868.42880194904
0.0712428274263349,2868.43880194904
0.0577695785626656,2868.44880194904
0.0444524433306231,2868.45880194904
0.0303921611436228,2868.46880194904
0.0163929170484902,2868.47880194904
0.00292084216684905,2868.48880194904
-0.00997569337096943,2868.49880194904
-0.0204255694630864,2868.50880194904
-0.0298033942714633,2868.51880194904
-0.0398052263703186,2868.52880194904
-0.0507925096262751,2868.53880194904
-0.0630996475531561,2868.54880194904
-0.076422099164523,2868.55880194904
-0.0897075921713755,2868.56880194904
-0.101243168911075,2868.57880194904
-0.112855900011986,2868.58880194904
-0.125822803532426,2868.59880194904
-0.140529749980021,2868.60880194904
-0.156322999237646,2868.61880194904
-0.172267868525898,2868.62880194904
-0.187616848238102,2868.63880194904
-0.20047381592493,2868.64880194904
-0.211114277622034,2868.65880194904
-0.2190885425016,2868.66880194904
-0.222144140918225,2868.67880194904
-0.213474145727338,2868.68880194904
-0.186470070642751,2868.69880194904
-0.137573899500068,2868.70880194904
-0.0661151454035568,2868.71880194904
0.0192974283366615,2868.72880194904
0.109167769231177,2868.73880194904
0.195416074086022,2868.74880194904
0.27258817810615,2868.75880194904
0.3367671575251,2868.76880194904
0.38670916213615,2868.77880194904
0.424067156244127,2868.78880194904
0.449073683070205,2868.79880194904
0.463388429956842,2868.80880194904
0.467982970500219,2868.81880194904
0.466943438627276,2868.82880194904
0.462070727956082,2868.83880194904
0.455656917328774,2868.84880194904
0.4491206271178,2868.85880194904
0.441654609234613,2868.86880194904
0.432216115876119,2868.87880194904
0.421409657494617,2868.88880194904
0.41002009170588,2868.89880194904
0.39980790340577,2868.90880194904
0.390761312051652,2868.91880194904
0.38300477138964,2868.92880194904
0.375072382154707,2868.93880194904
0.364232969731971,2868.94880194904
0.34979391732096,2868.95880194904
0.331417302130732,2868.96880194904
0.309168529468276,2868.97880194904
0.285833023466329,2868.98880194904
0.263661485047015,2868.99880194904
0.242875719560212,2869.00880194904
0.224724535018491,2869.01880194904
0.210331493491647,2869.02880194904
0.199957751239371,2869.03880194904
0.193889687527919,2869.04880194904
0.191723127181992,2869.05880194904
0.193583235610538,2869.06880194904
0.197348395487705,2869.07880194904
0.200676270391396,2869.08880194904
0.202099209210923,2869.09880194904
0.2014713118431,2869.10880194904
0.199655210790974,2869.11880194904
0.197555504416416,2869.12880194904
0.195702593428331,2869.13880194904
0.19242260654649,2869.14880194904
0.186065911194415,2869.15880194904
0.176361860205979,2869.16880194904
0.165071920408365,2869.17880194904
0.152302100862483,2869.18880194904
0.139827333172632,2869.19880194904
0.128353875818089,2869.20880194904
0.11658286822668,2869.21880194904
0.103788456165437,2869.22880194904
0.0888285590512783,2869.23880194904
0.0724703509650146,2869.24880194904
0.0550236737881695,2869.25880194904
0.0370477220289407,2869.26880194904
0.0194284616501788,2869.27880194904
0.00229885244834301,2869.28880194904
-0.0128741746585517,2869.29880194904
-0.0278755814248071,2869.30880194904
-0.0429202403417463,2869.31880194904
-0.0582712170608373,2869.32880194904
-0.073370011354595,2869.33880194904
-0.0885006419933803,2869.34880194904
-0.10251087834587,2869.35880194904
-0.114546996938609,2869.36880194904
-0.126217850765182,2869.37880194904
-0.138149758982314,2869.38880194904
-0.150999878583459,2869.39880194904
-0.164680077511004,2869.40880194904
-0.179032014011527,2869.41880194904
-0.193268909133277,2869.42880194904
-0.206368349794961,2869.43880194904
-0.220014319513065,2869.44880194904
-0.234818700967469,2869.45880194904
-0.250658365168486,2869.46880194904
-0.266162885110363,2869.47880194904
-0.280907953755463,2869.48880194904
-0.294037106985604,2869.49880194904
-0.304994067259409,2869.50880194904
-0.313714615543945,2869.51880194904
-0.318753746997494,2869.52880194904
-0.314261483036163,2869.53880194904
-0.29196502959732,2869.54880194904
-0.245966064511085,2869.55880194904
-0.17566986140512,2869.56880194904
-0.0865637956967325,2869.57880194904
0.010951312742934,2869.58880194904
0.105465175102662,2869.59880194904
0.188801131379095,2869.60880194904
0.256937631271434,2869.61880194904
0.308370435858056,2869.62880194904
0.343919567632903,2869.63880194904
0.366965788554118,2869.64880194904
0.378602763506702,2869.65880194904
0.380849555111287,2869.66880194904
0.375388273688163,2869.67880194904
0.364828027222346,2869.68880194904
0.351459999810644,2869.69880194904
0.337199885751714,2869.70880194904
0.323947558517152,2869.71880194904
0.310789761502209,2869.72880194904
0.297768033503881,2869.73880194904
0.283828637332575,2869.74880194904
0.270151580245829,2869.75880194904
0.256456902609017,2869.76880194904
0.243532739140372,2869.77880194904
0.231458550324541,2869.78880194904
0.218271221128119,2869.79880194904
0.201753807923011,2869.80880194904
0.180260845088614,2869.81880194904
0.154914387363011,2869.82880194904
0.12780893614069,2869.83880194904
0.10175127244599,2869.84880194904
0.0807406045318365,2869.85880194904
0.0652169172518865,2869.86880194904
0.0553009234152277,2869.87880194904
0.0511875659538698,2869.88880194904
0.0515661183842504,2869.89880194904
0.0565293100353985,2869.90880194904
0.0644265470788444,2869.91880194904
0.0746121499281326,2869.92880194904
0.0840360712216017,2869.93880194904
0.0903688747643063,2869.94880194904
0.0931039894692704,2869.95880194904
0.0930335398307979,2869.96880194904
0.0900423645697446,2869.97880194904
0.0854684608824399,2869.98880194904
0.0809023297221282,2869.99880194904
0.0749890167016669,2870.00880194904
0.0668970597306802,2870.01880194904
0.0568435036961103,2870.02880194904
0.045575546125316,2870.03880194904
0.033462558542641,2870.04880194904
0.0212940059994424,2870.05880194904
0.0104094708884013,2870.06880194904
-0.00105466079291103,2870.07880194904
-0.0133112320925121,2870.08880194904
-0.0271945651755429,2870.09880194904
-0.0424365652920457,2870.10880194904
-0.0575022329216315,2870.11880194904
-0.0719988354961399,2870.12880194904
-0.084243706978048,2870.13880194904
-0.0951767066410559,2870.14880194904
-0.106437615024148,2870.15880194904
-0.118626653142046,2870.16880194904
-0.131715641570235,2870.17880194904
-0.145336742318365,2870.18880194904
-0.158208809671089,2870.19880194904
-0.169909989870641,2870.20880194904
-0.181740655743337,2870.21880194904
-0.194551095336492,2870.22880194904
-0.208836389760342,2870.23880194904
-0.224051428367192,2870.24880194904
-0.239980205890056,2870.25880194904
-0.255112380423825,2870.26880194904
-0.269629941933496,2870.27880194904
-0.283057118218261,2870.28880194904
-0.293793471352121,2870.29880194904
-0.303041930198329,2870.30880194904
-0.309631615666325,2870.31880194904
-0.308686327731464,2870.32880194904
-0.292111125821288,2870.33880194904
-0.25215191636172,2870.34880194904
-0.187605662376892,2870.35880194904
-0.101952623544612,2870.36880194904
-0.00508605096069673,2870.37880194904
0.0906880735604385,2870.38880194904
0.177689489969931,2870.39880194904
0.250950774487395,2870.40880194904
0.308715326615954,2870.41880194904
0.351220617331846,2870.42880194904
0.381277486931544,2870.43880194904
0.399762862939845,2870.44880194904
0.408063203123865,2870.45880194904
0.4085553119001,2870.46880194904
0.4031979749393,2870.47880194904
0.394273618655159,2870.48880194904
0.383101030206214,2870.49880194904
0.372138662680706,2870.50880194904
0.360784593653655,2870.51880194904
0.348461433733964,2870.52880194904
0.335217201777144,2870.53880194904
0.322089186957695,2870.54880194904
0.309217338446275,2870.55880194904
0.29748702606401,2870.56880194904
0.287218599662687,2870.57880194904
0.275326555492829,2870.58880194904
0.260530603248595,2870.59880194904
0.24090857874423,2870.60880194904
0.217276848509134,2870.61880194904
0.190979208771309,2870.62880194904
0.164888682469558,2870.63880194904
0.14270777777184,2870.64880194904
0.125141055803131,2870.65880194904
0.112175997281347,2870.66880194904
0.104725751433982,2870.67880194904
0.102075906478854,2870.68880194904
0.103393153669938,2870.69880194904
0.107297111321682,2870.70880194904
0.113347083821075,2870.71880194904
0.119624784074855,2870.72880194904
0.124311678018613,2870.73880194904
0.126699751092067,2870.74880194904
0.127421748544712,2870.75880194904
0.125900242623778,2870.76880194904
0.122508343825472,2870.77880194904
0.118341589388573,2870.78880194904
0.112541949587545,2870.79880194904
0.104518596385808,2870.80880194904
0.0931556955654025,2870.81880194904
0.0804360418069652,2870.82880194904
0.0664425313497427,2870.83880194904
0.0517647724556393,2870.84880194904
0.0379284823429696,2870.85880194904
0.0239284295875021,2870.86880194904
0.00848482711204056,2870.87880194904
-0.00797098731412391,2870.88880194904
-0.0245401702034607,2870.89880194904
-0.0413839996756229,2870.90880194904
-0.0572453811207819,2870.91880194904
-0.0707671525546366,2870.92880194904
-0.0836459160287724,2870.93880194904
-0.0967631662313047,2870.94880194904
-0.110175687299779,2870.95880194904
-0.124021139664327,2870.96880194904
-0.137594721392182,2870.97880194904
-0.150170142829721,2870.98880194904
-0.161196147651621,2870.99880194904
-0.172632775179494,2871.00880194904
-0.185187949433633,2871.01880194904
-0.199862364454712,2871.02880194904
-0.215953993174585,2871.03880194904
-0.233491627909363,2871.04880194904
-0.250192592381626,2871.05880194904
-0.26512642015483,2871.06880194904
-0.279591610793686,2871.07880194904
-0.293815394416863,2871.08880194904
-0.308516768651255,2871.09880194904
-0.322888456674908,2871.10880194904
-0.334630449203491,2871.11880194904
-0.33925161640418,2871.12880194904
-0.327733701322446,2871.13880194904
-0.293121326548675,2871.14880194904
-0.23157841205628,2871.15880194904
-0.14620143958497,2871.16880194904
-0.0451313851086379,2871.17880194904
0.0609629107702063,2871.18880194904
0.161738469569676,2871.19880194904
0.252092863490367,2871.20880194904
0.326349009004137,2871.21880194904
0.382760243887017,2871.22880194904
0.422239260117923,2871.23880194904
0.447416671741218,2871.24880194904
0.461559988583591,2871.25880194904
0.46756028517039,2871.26880194904
0.467495259980554,2871.27880194904
0.464137717795449,2871.28880194904
0.45870360741152,2871.29880194904
0.451829452441749,2871.30880194904
0.443611833918291,2871.31880194904
0.433307353690681,2871.32880194904
0.422360026496007,2871.33880194904
0.410576885136289,2871.34880194904
0.399374551655588,2871.35880194904
0.389611471217566,2871.36880194904
0.38070360188248,2871.37880194904
0.370996603022833,2871.38880194904
0.359107526921035,2871.39880194904
0.344524159888495,2871.40880194904
0.325411355489261,2871.41880194904
0.302856915107905,2871.42880194904
0.278606522998239,2871.43880194904
0.252859363892102,2871.44880194904
0.226350110440496,2871.45880194904
0.201853674826098,2871.46880194904
0.181217088756998,2871.47880194904
0.165876971898576,2871.48880194904
0.156333215154806,2871.49880194904
0.15358983923304,2871.50880194904
0.155714157808254,2871.51880194904
0.159920680384529,2871.52880194904
0.164131886517573,2871.53880194904
0.168193874612212,2871.54880194904
0.170666754794188,2871.55880194904
0.172137100698698,2871.56880194904
0.173203079333455,2871.57880194904
0.17225001381896,2871.58880194904
0.168815168729387,2871.59880194904
0.161808157934564,2871.60880194904
0.152362848794177,2871.61880194904
0.140887093731174,2871.62880194904
0.128514810173504,2871.63880194904
0.117084991295689,2871.64880194904
0.105097430265307,2871.65880194904
0.0916320230840715,2871.66880194904
0.0767407688992117,2871.67880194904
0.0602919140176378,2871.68880194904
0.0426466440970732,2871.69880194904
0.0243082644861505,2871.70880194904
0.00699572928459433,2871.71880194904
-0.0103900940285544,2871.72880194904
-0.0283502582382614,2871.73880194904
-0.0467584531830768,2871.74880194904
-0.0649400590510608,2871.75880194904
-0.0826514525741896,2871.76880194904
-0.0985184339667648,2871.77880194904
-0.111850610936059,2871.78880194904
-0.124583059633075,2871.79880194904
-0.137368465148933,2871.80880194904
-0.151055039042651,2871.81880194904
-0.16470572267466,2871.82880194904
-0.178957754367263,2871.83880194904
-0.192064779708296,2871.84880194904
-0.204194931450524,2871.85880194904
-0.216662860538361,2871.86880194904
-0.230926037784822,2871.87880194904
-0.247167222722715,2871.88880194904
-0.264404618467582,2871.89880194904
-0.282305726990581,2871.90880194904
-0.299168177556119,2871.91880194904
-0.314248090195911,2871.92880194904
-0.327961807516882,2871.93880194904
-0.341348198781456,2871.94880194904
-0.354081433946003,2871.95880194904
-0.363355922432569,2871.96880194904
-0.363416710083929,2871.97880194904
-0.34449341452414,2871.98880194904
-0.297418705915099,2871.99880194904
-0.220495378065123,2872.00880194904
-0.11989234838058,2872.01880194904
-0.00887387917353772,2872.02880194904
0.100506556280583,2872.03880194904
0.198783474732743,2872.04880194904
0.280317514953625,2872.05880194904
0.345402411759173,2872.06880194904
0.393372223840114,2872.07880194904
0.425967909818304,2872.08880194904
0.444968102327542,2872.09880194904
0.453314908832353,2872.10880194904
0.453535580715354,2872.11880194904
0.448055333464748,2872.12880194904
0.440494463485994,2872.13880194904
0.429622445743223,2872.14880194904
0.416105022284187,2872.15880194904
0.401074694607038,2872.16880194904
0.385617073882516,2872.17880194904
0.370322641738054,2872.18880194904
0.357306572746455,2872.19880194904
0.3459707674583,2872.20880194904
0.335715045744124,2872.21880194904
0.32483868917478,2872.22880194904
0.31182353677372,2872.23880194904
0.296222459264993,2872.24880194904
0.276842210457624,2872.25880194904
0.254438979223773,2872.26880194904
0.227974208073504,2872.27880194904
0.199343393277388,2872.28880194904
0.171771304511093,2872.29880194904
0.146181075874598,2872.30880194904
0.123926620086208,2872.31880194904
0.106607816095222,2872.32880194904
0.0950982271673063,2872.33880194904
0.0892151108281822,2872.34880194904
0.0891217936992853,2872.35880194904
0.0939866781229837,2872.36880194904
0.100892546776569,2872.37880194904
0.107570926862524,2872.38880194904
0.112180975617214,2872.39880194904
0.114660541049532,2872.40880194904
0.114963579584339,2872.41880194904
0.11327320745715,2872.42880194904
0.110734269623723,2872.43880194904
0.106301208318422,2872.44880194904
0.0991622491033514,2872.45880194904
0.089078117998181,2872.46880194904
0.077429904329037,2872.47880194904
0.0640184114413397,2872.48880194904
0.0505192444505145,2872.49880194904
0.0380634731250918,2872.50880194904
0.0251714739542064,2872.51880194904
0.0110381026761206,2872.52880194904
-0.00528791661129147,2872.53880194904
-0.023231196046898,2872.54880194904
-0.0432298068525637,2872.55880194904
-0.0625256629872963,2872.56880194904
-0.0804565727326948,2872.57880194904
-0.0976799945110137,2872.58880194904
-0.114791061416257,2872.59880194904
-0.132307121467979,2872.60880194904
-0.149665787136057,2872.61880194904
-0.166409566142833,2872.62880194904
-0.181651578304082,2872.63880194904
-0.194793460320578,2872.64880194904
-0.20778836763735,2872.65880194904
-0.221148458484143,2872.66880194904
-0.236046257716021,2872.67880194904
-0.250800738291143,2872.68880194904
-0.264932750564143,2872.69880194904
-0.278806299725754,2872.70880194904
-0.291356154305637,2872.71880194904
-0.304370567555,2872.72880194904
-0.319046381854843,2872.73880194904
-0.33571558058974,2872.74880194904
-0.353602314032157,2872.75880194904
-0.371979533971231,2872.76880194904
-0.389530696635009,2872.77880194904
-0.404749639956154,2872.78880194904
-0.419246066785419,2872.79880194904
-0.4334849740116,2872.80880194904
-0.447450431294809,2872.81880194904
-0.459142857294006,2872.82880194904
-0.463105247455771,2872.83880194904
-0.449909664375904,2872.84880194904
-0.408183156391468,2872.85880194904
-0.332643544058446,2872.86880194904
-0.228696971861455,2872.87880194904
-0.108598065591191,2872.88880194904
0.012426077950051,2872.89880194904
0.120261493325572,2872.90880194904
0.208702135471492,2872.91880194904
0.275739886730179,2872.92880194904
0.321417686648142,2872.93880194904
0.348660216224884,2872.94880194904
0.360188158100502,2872.95880194904
0.360759364012567,2872.96880194904
0.353274691415286,2872.97880194904
0.340756347356038,2872.98880194904
0.326355401050036,2872.99880194904
0.310507221928756,2873.00880194904
0.292574725802566,2873.01880194904
0.273080092371261,2873.02880194904
0.253720215817729,2873.03880194904
0.234357625397261,2873.04880194904
0.216485419668179,2873.05880194904
0.200972800299314,2873.06880194904
0.186303876838721,2873.07880194904
0.17068956397786,2873.08880194904
0.153191425211254,2873.09880194904
0.133071537966938,2873.10880194904
0.109902913303699,2873.11880194904
0.0843200012283664,2873.12880194904
0.0568902859427897,2873.13880194904
0.0287028131400277,2873.14880194904
0.000671645920965822,2873.15880194904
-0.0239357420089162,2873.16880194904
-0.0423186052857451,2873.17880194904
-0.0535898338310761,2873.18880194904
-0.0560129442206417,2873.19880194904
-0.0502679186814973,2873.20880194904
-0.039665260737565,2873.21880194904
-0.0267906662399638,2873.22880194904
-0.0144495142222532,2873.23880194904
-0.00380918028640549,2873.24880194904
0.00484476894032884,2873.25880194904
0.0111271654645593,2873.26880194904
0.0151241876329038,2873.27880194904
0.0178819584502717,2873.28880194904
0.019756064272179,2873.29880194904
0.0186357011949379,2873.30880194904
0.0138148346290559,2873.31880194904
0.00501515697813694,2873.32880194904
-0.00645758268884475,2873.33880194904
-0.0198305220935364,2873.34880194904
-0.0339558263502607,2873.35880194904
-0.0472193213958263,2873.36880194904
-0.0606804877830081,2873.37880194904
-0.0750875632149212,2873.38880194904
-0.0913571763190169,2873.39880194904
-0.107897724231448,2873.40880194904
-0.124192913940361,2873.41880194904
-0.139660126864388,2873.42880194904
-0.152918909246452,2873.43880194904
-0.165479287108107,2873.44880194904
-0.178739712842101,2873.45880194904
-0.193585730846653,2873.46880194904
-0.208615542296934,2873.47880194904
-0.223253942731684,2873.48880194904
-0.236911600516355,2873.49880194904
-0.247854976208496,2873.50880194904
-0.258413831839328,2873.51880194904
-0.27043997934879,2873.52880194904
-0.28427633365743,2873.53880194904
-0.299574622682972,2873.54880194904
-0.315901831455018,2873.55880194904
-0.33273737539353,2873.56880194904
-0.348439600368438,2873.57880194904
-0.362624606238348,2873.58880194904
-0.376639074770777,2873.59880194904
-0.390761829324036,2873.60880194904
-0.403596075588586,2873.61880194904
-0.413933863741955,2873.62880194904
-0.415745738150715,2873.63880194904
-0.399045962916889,2873.64880194904
-0.355457972852916,2873.65880194904
-0.28180950820621,2873.66880194904
-0.182374756036512,2873.67880194904
-0.0688010658560038,2873.68880194904
0.0450572442482399,2873.69880194904
0.147323995802827,2873.70880194904
0.232560059849323,2873.71880194904
0.296688175018935,2873.72880194904
0.340443697005974,2873.73880194904
0.3663046520283,2873.74880194904
0.378256685232231,2873.75880194904
0.379958790153641,2873.76880194904
0.374563214313824,2873.77880194904
0.365756333710405,2873.78880194904
0.354022491465289,2873.79880194904
0.339715418537096,2873.80880194904
0.323188702071996,2873.81880194904
0.304787524680183,2873.82880194904
0.285932919062883,2873.83880194904
0.267696119184094,2873.84880194904
0.251831822589324,2873.85880194904
0.237208399189874,2873.86880194904
0.223320260897696,2873.87880194904
0.209267412574819,2873.88880194904
0.19449092136514,2873.89880194904
0.177754759291654,2873.90880194904
0.15772237191412,2873.91880194904
0.135376297691925,2873.92880194904
0.109344154111418,2873.93880194904
0.0810535185303992,2873.94880194904
0.0535293989483987,2873.95880194904
0.0302441015319172,2873.96880194904
0.0138912908987573,2873.97880194904
0.00608363868194255,2873.98880194904
0.00702831240819116,2873.99880194904
0.0145666621891666,2874.00880194904
0.0246495856563015,2874.01880194904
0.0352987738284036,2874.02880194904
0.0451022274789309,2874.03880194904
0.0529645281164636,2874.04880194904
0.0590538015406159,2874.05880194904
0.064407524886415,2874.06880194904
0.0670043432138902,2874.07880194904
0.0664361058123079,2874.08880194904
0.0621475857960763,2874.09880194904
0.0547778230585447,2874.10880194904
0.0454452112597191,2874.11880194904
0.0348181163155873,2874.12880194904
0.0245395733165503,2874.13880194904
0.0132567928983835,2874.14880194904
0.00125409971534705,2874.15880194904
-0.0133431546926115,2874.16880194904
-0.0296733882451599,2874.17880194904
-0.0468911965767711,2874.18880194904
-0.0643358995739826,2874.19880194904
-0.0801103916367884,2874.20880194904
-0.095418576347723,2874.21880194904
-0.110995120577184,2874.22880194904
-0.127206474360624,2874.23880194904
-0.142955979282704,2874.24880194904
-0.157697684166699,2874.25880194904
-0.171336328057443,2874.26880194904
-0.184251791927754,2874.27880194904
-0.196202989617152,2874.28880194904
-0.207054223654229,2874.29880194904
-0.217971753576603,2874.30880194904
-0.230468309189529,2874.31880194904
-0.244275242663424,2874.32880194904
-0.259317829542834,2874.33880194904
-0.275207442826973,2874.34880194904
-0.291231651865303,2874.35880194904
-0.306713883129563,2874.36880194904
-0.321816256870248,2874.37880194904
-0.338386556418197,2874.38880194904
-0.355581000711898,2874.39880194904
-0.372266259578014,2874.40880194904
-0.387582440960335,2874.41880194904
-0.398645028910643,2874.42880194904
-0.398237757138221,2874.43880194904
-0.378634956769895,2874.44880194904
-0.330591748292766,2874.45880194904
-0.250512292369771,2874.46880194904
-0.142990218744035,2874.47880194904
-0.0217315271002167,2874.48880194904
0.0977894490354634,2874.49880194904
0.204847533189602,2874.50880194904
0.291694530317611,2874.51880194904
0.35556364106799,2874.52880194904
0.398830191072306,2874.53880194904
0.424742707696921,2874.54880194904
0.438640778228955,2874.55880194904
0.444670139478491,2874.56880194904
0.446136158275961,2874.57880194904
0.443234553864478,2874.58880194904
0.435735674710173,2874.59880194904
0.424629395677986,2874.60880194904
0.410780863043594,2874.61880194904
0.395986022931868,2874.62880194904
0.381710016184613,2874.63880194904
0.370034909321359,2874.64880194904
0.360044128877105,2874.65880194904
0.350374893221749,2874.66880194904
0.340124245837614,2874.67880194904
0.329575641628916,2874.68880194904
0.318522337819622,2874.69880194904
0.306818499125849,2874.70880194904
0.294413908585121,2874.71880194904
0.278824600643533,2874.72880194904
0.257995481478759,2874.73880194904
0.231860669732132,2874.74880194904
0.203311324707893,2874.75880194904
0.175405228050449,2874.76880194904
0.151087843823428,2874.77880194904
0.13404400834773,2874.78880194904
0.123671742758767,2874.79880194904
0.119321338894776,2874.80880194904
0.119440521331933,2874.81880194904
0.123385317525409,2874.82880194904
0.129142918504605,2874.83880194904
0.136431392622924,2874.84880194904
0.144573697422132,2874.85880194904
0.152014311539911,2874.86880194904
0.156906315798708,2874.87880194904
0.158222932574662,2874.88880194904
0.156486137369876,2874.89880194904
0.151484000099324,2874.90880194904
0.143984940145517,2874.91880194904
0.136035757945812,2874.92880194904
0.126469945324343,2874.93880194904
0.115235668300988,2874.94880194904
0.102061834369981,2874.95880194904
0.0877871285729007,2874.96880194904
0.0724342534435059,2874.97880194904
0.0563021775186273,2874.98880194904
0.0410355290155908,2874.99880194904
0.0252493510419295,2875.00880194904
0.00874802839155183,2875.01880194904
-0.00871916092872715,2875.02880194904
-0.0268037962068101,2875.03880194904
-0.0445720016436719,2875.04880194904
-0.0612889910537697,2875.05880194904
-0.0753539447924986,2875.06880194904
-0.0889120840862248,2875.07880194904
-0.103083979265181,2875.08880194904
-0.117892339971036,2875.09880194904
-0.133390329512352,2875.10880194904
-0.149227499122183,2875.11880194904
-0.164139197075489,2875.12880194904
-0.177349058365054,2875.13880194904
-0.190988273766216,2875.14880194904
-0.206279515213939,2875.15880194904
-0.223508803615542,2875.16880194904
-0.242320055641724,2875.17880194904
-0.261798860755304,2875.18880194904
-0.280977635656581,2875.19880194904
-0.298256352250081,2875.20880194904
-0.314247329783605,2875.21880194904
-0.329909175654776,2875.22880194904
-0.344787778225601,2875.23880194904
-0.355155094148355,2875.24880194904
-0.3548954274204,2875.25880194904
-0.333254490981146,2875.26880194904
-0.281400206842852,2875.27880194904
-0.195701671205825,2875.28880194904
-0.0834798861640101,2875.29880194904
0.0394874162385899,2875.30880194904
0.157496723769341,2875.31880194904
0.257957880971809,2875.32880194904
0.33616721228709,2875.33880194904
0.391538111453429,2875.34880194904
0.426997354549222,2875.35880194904
0.448596175422695,2875.36880194904
0.458458752380966,2875.37880194904
0.45874071585147,2875.38880194904
0.451916433131502,2875.39880194904
0.440178907367568,2875.40880194904
0.425399856179203,2875.41880194904
0.410034170076495,2875.42880194904
0.395984786214279,2875.43880194904
0.382156428808111,2875.44880194904
0.368762713946779,2875.45880194904
0.354568965749534,2875.46880194904
0.340863290705701,2875.47880194904
0.327689763629304,2875.48880194904
0.315668013578379,2875.49880194904
0.305435943068893,2875.50880194904
0.294217172575491,2875.51880194904
0.280460612274455,2875.52880194904
0.262117442740699,2875.53880194904
0.239545649355497,2875.54880194904
0.212609151769024,2875.55880194904
0.184104185388426,2875.56880194904
0.157248628496196,2875.57880194904
0.133892975659346,2875.58880194904
0.115386788122853,2875.59880194904
0.103267085205712,2875.60880194904
0.0978318372972146,2875.61880194904
0.0988946595108042,2875.62880194904
0.1048791433268,2875.63880194904
0.115490172447345,2875.64880194904
0.1277907106646,2875.65880194904
0.138136509833033,2875.66880194904
0.146165388570024,2875.67880194904
0.151561406387954,2875.68880194904
0.154371129538511,2875.69880194904
0.154440112177627,2875.70880194904
0.152915902991884,2875.71880194904
0.1489174243466,2875.72880194904
0.141838803931829,2875.73880194904
0.132157996887432,2875.74880194904
0.120490546064735,2875.75880194904
0.107635263139173,2875.76880194904
0.0941103963868463,2875.77880194904
0.081460721215126,2875.78880194904
0.0684359897490426,2875.79880194904
0.0535858205899583,2875.80880194904
0.0374295780611343,2875.81880194904
0.0205144447442328,2875.82880194904
0.00318875361236449,2875.83880194904
-0.0131005257716458,2875.84880194904
-0.0278957479876313,2875.85880194904
-0.0420753363401523,2875.86880194904
-0.0568003329121534,2875.87880194904
-0.0723807279467154,2875.88880194904
-0.0882350975644482,2875.89880194904
-0.103930716161087,2875.90880194904
-0.118627127198145,2875.91880194904
-0.13156868257832,2875.92880194904
-0.144254737433137,2875.93880194904
-0.158156715710536,2875.94880194904
-0.174085088211439,2875.95880194904
-0.191469648204619,2875.96880194904
-0.209155943984067,2875.97880194904
-0.226307784019235,2875.98880194904
-0.240749750030982,2875.99880194904
-0.252921348899178,2876.00880194904
-0.264587455805108,2876.01880194904
-0.276269746262126,2876.02880194904
-0.286096834715985,2876.03880194904
-0.290571544527049,2876.04880194904
-0.281342781330129,2876.05880194904
-0.247412788940654,2876.06880194904
-0.184978789026185,2876.07880194904
-0.0965039620111375,2876.08880194904
0.00801377085737091,2876.09880194904
0.114117372133963,2876.10880194904
0.21066704743144,2876.11880194904
0.289746917150694,2876.12880194904
0.349239710463271,2876.13880194904
0.388177774290371,2876.14880194904
0.408603781727843,2876.15880194904
0.413882370069646,2876.16880194904
0.408621615094923,2876.17880194904
0.396640668289265,2876.18880194904
0.380683775676678,2876.19880194904
0.364137709695806,2876.20880194904
0.347090067095595,2876.21880194904
0.328915915582748,2876.22880194904
0.310331480251693,2876.23880194904
0.291787435423022,2876.24880194904
0.274489220638307,2876.25880194904
0.259101972194573,2876.26880194904
0.245858236243278,2876.27880194904
0.234013232520335,2876.28880194904
0.223931107149976,2876.29880194904
0.212740014839011,2876.30880194904
0.197485779300752,2876.31880194904
0.177502043745716,2876.32880194904
0.153301160288422,2876.33880194904
0.126358540087871,2876.34880194904
0.100737889184655,2876.35880194904
0.0801223793657176,2876.36880194904
0.0659643846842365,2876.37880194904
0.058348431811931,2876.38880194904
0.0566805204854529,2876.39880194904
0.0611524050054913,2876.40880194904
0.0693446624267252,2876.41880194904
0.0800211658411918,2876.42880194904
0.093522125486763,2876.43880194904
0.106144927677317,2876.44880194904
0.116881419694709,2876.45880194904
0.12407419718177,2876.46880194904
0.127775201417172,2876.47880194904
0.127918755830286,2876.48880194904
0.126220380951818,2876.49880194904
0.124020379301004,2876.50880194904
0.119857837007279,2876.51880194904
0.113503892755493,2876.52880194904
0.104580216375217,2876.53880194904
0.0934575761069012,2876.54880194904
0.081375761551919,2876.55880194904
0.069025038806172,2876.56880194904
0.0573653798195213,2876.57880194904
0.0458266617229109,2876.58880194904
0.0332827794452415,2876.59880194904
0.0201183460336615,2876.60880194904
0.00634561690127803,2876.61880194904
-0.00781290909519112,2876.62880194904
-0.0212113517936345,2876.63880194904
-0.0325088217997124,2876.64880194904
-0.0435164799276069,2876.65880194904
-0.0549028616446472,2876.66880194904
-0.0666511148169468,2876.67880194904
-0.0788850439800726,2876.68880194904
-0.0908364609056652,2876.69880194904
-0.102566941152351,2876.70880194904
-0.112690681809433,2876.71880194904
-0.123582994568383,2876.72880194904
-0.136119360714164,2876.73880194904
-0.151151438728966,2876.74880194904
-0.167179360966081,2876.75880194904
-0.183042777184722,2876.76880194904
-0.19776050318497,2876.77880194904
-0.209263037883702,2876.78880194904
-0.218605944571148,2876.79880194904
-0.224313490110094,2876.80880194904
-0.222096893248173,2876.81880194904
-0.202389167589392,2876.82880194904
-0.158607166759863,2876.83880194904
-0.0881490783269489,2876.84880194904
0.00369892601960717,2876.85880194904
0.103952465477497,2876.86880194904
0.20080874669461,2876.87880194904
0.283082171490703,2876.88880194904
0.346895556957319,2876.89880194904
0.390788323502879,2876.90880194904
0.417294422568883,2876.91880194904
0.430477633531728,2876.92880194904
0.432692649666631,2876.93880194904
0.42735426674715,2876.94880194904
0.416030396622859,2876.95880194904
0.402273352120658,2876.96880194904
0.387099203272253,2876.97880194904
0.372072372102084,2876.98880194904
0.358806304100763,2876.99880194904
0.345892158498371,2877.00880194904
0.333672975652879,2877.01880194904
0.321765944590333,2877.02880194904
0.310830030893977,2877.03880194904
0.300988828337751,2877.04880194904
0.293169375310818,2877.05880194904
0.28766099362396,2877.06880194904
0.282114578968744,2877.07880194904
0.273416076166465,2877.08880194904
0.260004277697741,2877.09880194904
0.242290848688444,2877.10880194904
0.220285371199424,2877.11880194904
0.197413739075641,2877.12880194904
0.176906940768897,2877.13880194904
0.159397662600135,2877.14880194904
0.145938414368249,2877.15880194904
0.136489237490862,2877.16880194904
0.13237575481184,2877.17880194904
0.132444938252205,2877.18880194904
0.136302814530843,2877.19880194904
0.144678195949265,2877.20880194904
0.153323957471935,2877.21880194904
0.161567815134154,2877.22880194904
0.167350161981574,2877.23880194904
0.170610956239646,2877.24880194904
0.171747418699889,2877.25880194904
0.170913005861848,2877.26880194904
0.16711083455203,2877.27880194904
0.16248034658443,2877.28880194904
0.157423398475232,2877.29880194904
0.150319262315307,2877.30880194904
0.141578501502922,2877.31880194904
0.130094012237585,2877.32880194904
0.11745987507114,2877.33880194904
0.103160411842755,2877.34880194904
0.0889221748182392,2877.35880194904
0.076293904826513,2877.36880194904
0.0634027754619598,2877.37880194904
0.0496417112109738,2877.38880194904
0.0349385974554023,2877.39880194904
0.0204910324277347,2877.40880194904
0.00573509661513941,2877.41880194904
-0.00764518749660618,2877.42880194904
-0.0188026844492066,2877.43880194904
-0.0295717586017345,2877.44880194904
-0.040718320109429,2877.45880194904
-0.0528614188292849,2877.46880194904
-0.0655406239758241,2877.47880194904
-0.0789387679386303,2877.48880194904
-0.0919056350949645,2877.49880194904
-0.103287111463218,2877.50880194904
-0.115017606433394,2877.51880194904
-0.127457707885378,2877.52880194904
-0.141993408862118,2877.53880194904
-0.156666919645527,2877.54880194904
-0.17159968903084,2877.55880194904
-0.185129112335592,2877.56880194904
-0.195912424504003,2877.57880194904
-0.204087975521222,2877.58880194904
-0.209546290731959,2877.59880194904
-0.207618752326187,2877.60880194904
-0.190320450466906,2877.61880194904
-0.151826191058388,2877.62880194904
-0.089473921107148,2877.63880194904
-0.005846782274109,2877.64880194904
0.0868565700855036,2877.65880194904
0.177942401391893,2877.66880194904
0.257024448492123,2877.67880194904
0.319341676748444,2877.68880194904
0.362286895183231,2877.69880194904
0.388581738915129,2877.70880194904
0.402076941514083,2877.71880194904
0.404834313748371,2877.72880194904
0.399426818970086,2877.73880194904
0.388073889768948,2877.74880194904
0.373756825962482,2877.75880194904
0.358230211867227,2877.76880194904
0.342783734993369,2877.77880194904
0.329748388332601,2877.78880194904
0.317762893073554,2877.79880194904
0.306168510595124,2877.80880194904
0.2950936150399,2877.81880194904
0.28501149084071,2877.82880194904
0.27606911472915,2877.83880194904
0.268086308261677,2877.84880194904
0.261931452749159,2877.85880194904
0.254538966847355,2877.86880194904
0.244549269574265,2877.87880194904
0.230610679154719,2877.88880194904
0.212676809227749,2877.89880194904
0.191479996714262,2877.90880194904
0.169147176454497,2877.91880194904
0.148427724104163,2877.92880194904
0.13055035787199,2877.93880194904
0.116063199687555,2877.94880194904
0.105770383226707,2877.95880194904
0.0996392627703766,2877.96880194904
0.0985147459371944,2877.97880194904
0.100987575688326,2877.98880194904
0.107563262554174,2877.99880194904
0.115471623664367,2878.00880194904
0.122137622416134,2878.01880194904
0.12608860725302,2878.02880194904
