PPG,time
0.0474833622039385,2601.32453403186
0.0937101312732535,2601.33453403186
0.0816605483797313,2601.34453403186
0.0856832788790656,2601.35453403186
0.0794718893958196,2601.36453403186
0.0797772306188831,2601.37453403186
0.0758955734067994,2601.38453403186
0.0747762853727811,2601.39453403186
0.0735255342549939,2601.40453403186
0.0735545005499565,2601.41453403186
0.0742340748103369,2601.42453403186
0.0758147621786307,2601.43453403186
0.0786475695113221,2601.44453403186
0.0820730672873679,2601.45453403186
0.0854870823597303,2601.46453403186
0.0888452267693069,2601.47453403186
0.0922483307919865,2601.48453403186
0.0948422566098521,2601.49453403186
0.0970905630470211,2601.50453403186
0.0987641469165825,2601.51453403186
0.100034670592825,2601.52453403186
0.100583446103859,2601.53453403186
0.0998778671365906,2601.54453403186
0.0986594825340305,2601.55453403186
0.0968569453421326,2601.56453403186
0.0950021792721167,2601.57453403186
0.0931375152347848,2601.58453403186
0.0911725600289962,2601.59453403186
0.0892456967034409,2601.60453403186
0.0869375586047571,2601.61453403186
0.0844373645279247,2601.62453403186
0.081525247937826,2601.63453403186
0.0782930060143076,2601.64453403186
0.0751577210839526,2601.65453403186
0.0721271198970031,2601.66453403186
0.0686293223578324,2601.67453403186
0.0651332766634071,2601.68453403186
0.0608246915920124,2601.69453403186
0.056664918057311,2601.70453403186
0.052604261067701,2601.71453403186
0.0484716235835984,2601.72453403186
0.044178607462924,2601.73453403186
0.0398851138811198,2601.74453403186
0.0356402168019156,2601.75453403186
0.0313856964613992,2601.76453403186
0.0266426405638364,2601.77453403186
0.021454234858817,2601.78453403186
0.0158038314139071,2601.79453403186
0.0100365523092782,2601.80453403186
0.00535948329902223,2601.81453403186
0.0018278760216197,2601.82453403186
0.000453123712487574,2601.83453403186
0.00257445031906298,2601.84453403186
0.0102597869522846,2601.85453403186
0.02382519944014,2601.86453403186
0.0429563161049146,2601.87453403186
0.0666977595248917,2601.88453403186
0.0928031721278873,2601.89453403186
0.120137951558979,2601.90453403186
0.146905146381648,2601.91453403186
0.171777006512664,2601.92453403186
0.19337026547251,2601.93453403186
0.211433556258482,2601.94453403186
0.226026203760445,2601.95453403186
0.237413836848428,2601.96453403186
0.246039380007251,2601.97453403186
0.25242101037582,2601.98453403186
0.257397717852144,2601.99453403186
0.261067742341974,2602.00453403186
0.264226532986271,2602.01453403186
0.267751904539509,2602.02453403186
0.270876369881948,2602.03453403186
0.27432120718211,2602.04453403186
0.27733518003797,2602.05453403186
0.280150193625671,2602.06453403186
0.282509059472203,2602.07453403186
0.28405935011289,2602.08453403186
0.284365580815001,2602.09453403186
0.282928045042056,2602.10453403186
0.280347168334784,2602.11453403186
0.277448654548292,2602.12453403186
0.274430646948684,2602.13453403186
0.27105465279577,2602.14453403186
0.268695329583177,2602.15453403186
0.266561009409533,2602.16453403186
0.265345813350037,2602.17453403186
0.26483823558771,2602.18453403186
0.265122235581187,2602.19453403186
0.26593815341312,2602.20453403186
0.267210721482744,2602.21453403186
0.268998871338208,2602.22453403186
0.270430805222677,2602.23453403186
0.272291186678606,2602.24453403186
0.273486205469755,2602.25453403186
0.274593471181419,2602.26453403186
0.274843345916874,2602.27453403186
0.274455671017443,2602.28453403186
0.272838616117233,2602.29453403186
0.270145467179422,2602.30453403186
0.266625450302669,2602.31453403186
0.26337880133883,2602.32453403186
0.259951103348542,2602.33453403186
0.256204831897391,2602.34453403186
0.252894312111883,2602.35453403186
0.248542361278262,2602.36453403186
0.243694712783287,2602.37453403186
0.238381289786329,2602.38453403186
0.232978250279501,2602.39453403186
0.227731329740877,2602.40453403186
0.222649093596251,2602.41453403186
0.217519863557187,2602.42453403186
0.212083521834101,2602.43453403186
0.206510891044912,2602.44453403186
0.200581782691043,2602.45453403186
0.194557550139657,2602.46453403186
0.188172806522039,2602.47453403186
0.1815997669115,2602.48453403186
0.174662520475177,2602.49453403186
0.167509008672421,2602.50453403186
0.160270660692237,2602.51453403186
0.153707354902738,2602.52453403186
0.147784730192844,2602.53453403186
0.142194460703398,2602.54453403186
0.136959452969738,2602.55453403186
0.13117806797346,2602.56453403186
0.125651771809036,2602.57453403186
0.120110536557439,2602.58453403186
0.115530813543076,2602.59453403186
0.112832526140121,2602.60453403186
0.113920411807615,2602.61453403186
0.120484716983939,2602.62453403186
0.133368255685869,2602.63453403186
0.152912412450659,2602.64453403186
0.177919686328565,2602.65453403186
0.207093383731621,2602.66453403186
0.237926360155413,2602.67453403186
0.268665518050885,2602.68453403186
0.29698987091335,2602.69453403186
0.322603465614315,2602.70453403186
0.344263374568882,2602.71453403186
0.361652455611536,2602.72453403186
0.375300874663146,2602.73453403186
0.385698074174011,2602.74453403186
0.393699971079828,2602.75453403186
0.399430682433013,2602.76453403186
0.40342024853018,2602.77453403186
0.406481176327057,2602.78453403186
0.408934934063677,2602.79453403186
0.410626979188193,2602.80453403186
0.411877299294069,2602.81453403186
0.41277829375104,2602.82453403186
0.413174455246426,2602.83453403186
0.413069571157203,2602.84453403186
0.412078279813794,2602.85453403186
0.409788055630244,2602.86453403186
0.406703126188832,2602.87453403186
0.40274645785822,2602.88453403186
0.398147625433363,2602.89453403186
0.392775367757828,2602.90453403186
0.387337846578925,2602.91453403186
0.381922034976124,2602.92453403186
0.377239184781221,2602.93453403186
0.37379624525804,2602.94453403186
0.372162281166906,2602.95453403186
0.371565202217827,2602.96453403186
0.372191289019464,2602.97453403186
0.373338721806681,2602.98453403186
0.374245736597393,2602.99453403186
0.375141531181459,2603.00453403186
0.375767548845929,2603.01453403186
0.375539175843656,2603.02453403186
0.375205311155225,2603.03453403186
0.373940668397012,2603.04453403186
0.371703955376231,2603.05453403186
0.369016212150953,2603.06453403186
0.365305731894273,2603.07453403186
0.360956944424097,2603.08453403186
0.355960697675625,2603.09453403186
0.350864454798441,2603.10453403186
0.345128514079537,2603.11453403186
0.339587941226877,2603.12453403186
0.333229894967179,2603.13453403186
0.32695425027539,2603.14453403186
0.320636478011196,2603.15453403186
0.314094349774619,2603.16453403186
0.307208793191393,2603.17453403186
0.300180360709144,2603.18453403186
0.293321596578595,2603.19453403186
0.286490138184352,2603.20453403186
0.279551106069919,2603.21453403186
0.272161237048472,2603.22453403186
0.264607529655042,2603.23453403186
0.257355872339267,2603.24453403186
0.250266002301866,2603.25453403186
0.243436265324392,2603.26453403186
0.236762947284986,2603.27453403186
0.230280917823621,2603.28453403186
0.223177305440193,2603.29453403186
0.21620940212692,2603.30453403186
0.209177354008715,2603.31453403186
0.201998686150661,2603.32453403186
0.195467202599159,2603.33453403186
0.188589535868069,2603.34453403186
0.182340229345252,2603.35453403186
0.176029655233605,2603.36453403186
0.169786853977932,2603.37453403186
0.163585096100118,2603.38453403186
0.157522183858471,2603.39453403186
0.150994824067132,2603.40453403186
0.144081851759635,2603.41453403186
0.137637831463023,2603.42453403186
0.132290834599874,2603.43453403186
0.130044812299693,2603.44453403186
0.132858805869144,2603.45453403186
0.14136252426064,2603.46453403186
0.156566220169285,2603.47453403186
0.178445627368831,2603.48453403186
0.205418563479673,2603.49453403186
0.235141513280048,2603.50453403186
0.265095144176531,2603.51453403186
0.29299775088837,2603.52453403186
0.31791128903305,2603.53453403186
0.338752479300069,2603.54453403186
0.35511347414699,2603.55453403186
0.366618106182014,2603.56453403186
0.373821380132109,2603.57453403186
0.37791214711031,2603.58453403186
0.380817294859573,2603.59453403186
0.382944255753609,2603.60453403186
0.384720647870474,2603.61453403186
0.386125484941863,2603.62453403186
0.386510667286057,2603.63453403186
0.385845345909525,2603.64453403186
0.384341071744768,2603.65453403186
0.382351712644541,2603.66453403186
0.379546717833546,2603.67453403186
0.376296990479449,2603.68453403186
0.372346028641324,2603.69453403186
0.367959167695116,2603.70453403186
0.362790076642923,2603.71453403186
0.356405923528361,2603.72453403186
0.349513130179902,2603.73453403186
0.34283377975268,2603.74453403186
0.336963174181097,2603.75453403186
0.332362448660792,2603.76453403186
0.32952610834819,2603.77453403186
0.327908056921724,2603.78453403186
0.326945418412665,2603.79453403186
0.326988020649522,2603.80453403186
0.327569498722253,2603.81453403186
0.328792137306054,2603.82453403186
0.330299492600099,2603.83453403186
0.331438764237009,2603.84453403186
0.332017587697982,2603.85453403186
0.331682304542756,2603.86453403186
0.330506807484275,2603.87453403186
0.327760842882135,2603.88453403186
0.324412062809244,2603.89453403186
0.320209587577175,2603.90453403186
0.31502812775196,2603.91453403186
0.309949353298128,2603.92453403186
0.304920186171025,2603.93453403186
0.299912990617507,2603.94453403186
0.294616844604645,2603.95453403186
0.289168716090226,2603.96453403186
0.282999847103464,2603.97453403186
0.276427807796528,2603.98453403186
0.269509305625217,2603.99453403186
0.262538170434482,2604.00453403186
0.255748092663772,2604.01453403186
0.248871256700382,2604.02453403186
0.242666848642637,2604.03453403186
0.235926476598102,2604.04453403186
0.228552467795818,2604.05453403186
0.221517120334789,2604.06453403186
0.214065983588595,2604.07453403186
0.206512094484224,2604.08453403186
0.199291231912504,2604.09453403186
0.192724975445829,2604.10453403186
0.186567005535015,2604.11453403186
0.180805238054158,2604.12453403186
0.175360476320759,2604.13453403186
0.169365922820018,2604.14453403186
0.16342974057973,2604.15453403186
0.15691698020704,2604.16453403186
0.150613116719976,2604.17453403186
0.144282150696258,2604.18453403186
0.137717730729821,2604.19453403186
0.130817759521216,2604.20453403186
0.123520047753151,2604.21453403186
0.115952337496288,2604.22453403186
0.108165876972431,2604.23453403186
0.101161791665482,2604.24453403186
0.0945218061071107,2604.25453403186
0.0892319286631977,2604.26453403186
0.0863829244681899,2604.27453403186
0.087433748975932,2604.28453403186
0.0941990438003858,2604.29453403186
0.106719581793054,2604.30453403186
0.125923206023441,2604.31453403186
0.149972904332725,2604.32453403186
0.177324351876387,2604.33453403186
0.206089186160417,2604.34453403186
0.233993068471131,2604.35453403186
0.259496583260944,2604.36453403186
0.281142748800779,2604.37453403186
0.298890201426499,2604.38453403186
0.312555696062032,2604.39453403186
0.322918154087732,2604.40453403186
0.330284167607933,2604.41453403186
0.334990405351058,2604.42453403186
0.337225417857589,2604.43453403186
0.337579578769674,2604.44453403186
0.336437297420066,2604.45453403186
0.334252477508461,2604.46453403186
0.332362240981508,2604.47453403186
0.330851431554287,2604.48453403186
0.329932656264088,2604.49453403186
0.328884571919669,2604.50453403186
0.327649582771161,2604.51453403186
0.325377079768752,2604.52453403186
0.321494874502266,2604.53453403186
0.316709769242571,2604.54453403186
0.310203381900185,2604.55453403186
0.30336386086728,2604.56453403186
0.296663419508414,2604.57453403186
0.290277426293835,2604.58453403186
0.285607175903932,2604.59453403186
0.282361118035748,2604.60453403186
0.280663109199204,2604.61453403186
0.280440372102856,2604.62453403186
0.280956877875353,2604.63453403186
0.281653178524457,2604.64453403186
0.28275649521285,2604.65453403186
0.283837961430429,2604.66453403186
0.284095279398044,2604.67453403186
0.284250010442008,2604.68453403186
0.28379335487499,2604.69453403186
0.283019382880561,2604.70453403186
0.281590702984554,2604.71453403186
0.279881795439093,2604.72453403186
0.276823061925963,2604.73453403186
0.272904553036644,2604.74453403186
0.268169406691159,2604.75453403186
0.262656001024133,2604.76453403186
0.256626868674627,2604.77453403186
0.250651564781451,2604.78453403186
0.244562859266148,2604.79453403186
0.238425094098999,2604.80453403186
0.23200094434105,2604.81453403186
0.225402128389581,2604.82453403186
0.218811016190659,2604.83453403186
0.212774020832365,2604.84453403186
0.206816124491276,2604.85453403186
0.200706904163039,2604.86453403186
0.194186197078643,2604.87453403186
0.187591233937304,2604.88453403186
0.181531422202889,2604.89453403186
0.174993157013353,2604.90453403186
0.168696655154212,2604.91453403186
0.162357590818942,2604.92453403186
0.155353206531418,2604.93453403186
0.148144247175252,2604.94453403186
0.140797588777103,2604.95453403186
0.133758763357817,2604.96453403186
0.126751538655858,2604.97453403186
0.119940757755459,2604.98453403186
0.113551069988534,2604.99453403186
0.107507279526559,2605.00453403186
0.101092211163541,2605.01453403186
0.0949491841038504,2605.02453403186
0.0884397667231496,2605.03453403186
0.0819532767229733,2605.04453403186
0.0752529475619038,2605.05453403186
0.0681806928015236,2605.06453403186
0.0612513531108054,2605.07453403186
0.0540511843043961,2605.08453403186
0.0469824364455216,2605.09453403186
0.0398018680669676,2605.10453403186
0.032729568170063,2605.11453403186
0.0256787656678952,2605.12453403186
0.0186753622954075,2605.13453403186
0.011912192131003,2605.14453403186
0.00649285437027066,2605.15453403186
0.00394270663963724,2605.16453403186
0.00565004247565072,2605.17453403186
0.0136801461812986,2605.18453403186
0.0286968744960009,2605.19453403186
0.0499752890927288,2605.20453403186
0.0765482253608635,2605.21453403186
0.105991125743406,2605.22453403186
0.136885799329157,2605.23453403186
0.166935006108048,2605.24453403186
0.194592065637499,2605.25453403186
0.218785134531989,2605.26453403186
0.239354602168738,2605.27453403186
0.255743675212497,2605.28453403186
0.268568083281567,2605.29453403186
0.278286234595588,2605.30453403186
0.284982573872717,2605.31453403186
0.289056507923609,2605.32453403186
0.29124378718045,2605.33453403186
0.292470354345401,2605.34453403186
0.293698596116893,2605.35453403186
0.294652767929468,2605.36453403186
0.295540333812459,2605.37453403186
0.296619815800835,2605.38453403186
0.297209213205247,2605.39453403186
0.296796321529882,2605.40453403186
0.296346280602318,2605.41453403186
0.294572017136831,2605.42453403186
0.291270815866938,2605.43453403186
0.287372830141025,2605.44453403186
0.282593240156332,2605.45453403186
0.277513849911857,2605.46453403186
0.27220288138562,2605.47453403186
0.266962662461036,2605.48453403186
0.261801394436528,2605.49453403186
0.257426019054331,2605.50453403186
0.254398525558169,2605.51453403186
0.25290857605598,2605.52453403186
0.253039324658116,2605.53453403186
0.254837131824067,2605.54453403186
0.257201329565695,2605.55453403186
0.259577962900023,2605.56453403186
0.261282229487571,2605.57453403186
0.262674072877548,2605.58453403186
0.262829919620994,2605.59453403186
0.262197256037148,2605.60453403186
0.260392009842465,2605.61453403186
0.257903903674249,2605.62453403186
0.254470556164319,2605.63453403186
0.250390333996783,2605.64453403186
0.246256022162119,2605.65453403186
0.24167719239437,2605.66453403186
0.236741471974674,2605.67453403186
0.231381784605119,2605.68453403186
0.226002364004178,2605.69453403186
0.220642505965452,2605.70453403186
0.215778093979316,2605.71453403186
0.210386326445235,2605.72453403186
0.204277683237476,2605.73453403186
0.198285925531146,2605.74453403186
0.192086087366747,2605.75453403186
0.185773258700384,2605.76453403186
0.179834355358176,2605.77453403186
0.173612977330648,2605.78453403186
0.167279559839162,2605.79453403186
0.16046120044846,2605.80453403186
0.153222806851651,2605.81453403186
0.146016354730393,2605.82453403186
0.139185742565226,2605.83453403186
0.132356379451491,2605.84453403186
0.126100935883322,2605.85453403186
0.119528140968525,2605.86453403186
0.112766341398333,2605.87453403186
0.106085436553698,2605.88453403186
0.0988798407117243,2605.89453403186
0.0920541683419107,2605.90453403186
0.0847083195608958,2605.91453403186
0.0777007557859636,2605.92453403186
0.0705461387752146,2605.93453403186
0.0640388894776725,2605.94453403186
0.0572908908535534,2605.95453403186
0.051480006236337,2605.96453403186
0.0454362126620454,2605.97453403186
0.0393663695812752,2605.98453403186
0.0333568081484229,2605.99453403186
0.0275376546242063,2606.00453403186
0.0214516065332846,2606.01453403186
0.0146810016930649,2606.02453403186
0.00752527252098966,2606.03453403186
0.000235512322263098,2606.04453403186
-0.00728254772580247,2606.05453403186
-0.0151548030484967,2606.06453403186
-0.0224550041371082,2606.07453403186
-0.0283420334422813,2606.08453403186
-0.0309765932320756,2606.09453403186
-0.0288874300968507,2606.10453403186
-0.0208178270643167,2606.11453403186
-0.00620669377753881,2606.12453403186
0.0158476133845827,2606.13453403186
0.0438957663628203,2606.14453403186
0.0760476998834176,2606.15453403186
0.109628118056441,2606.16453403186
0.142382861131693,2606.17453403186
0.172392135415114,2606.18453403186
0.19836868074456,2606.19453403186
0.219753083439875,2606.20453403186
0.236749205349683,2606.21453403186
0.249062253963176,2606.22453403186
0.257443529224211,2606.23453403186
0.263024233358871,2606.24453403186
0.266259956896607,2606.25453403186
0.267986394843351,2606.26453403186
0.268443617860326,2606.27453403186
0.268420800339686,2606.28453403186
0.268532721429029,2606.29453403186
0.268369136231097,2606.30453403186
0.268282484623281,2606.31453403186
0.267745511768876,2606.32453403186
0.266816023827929,2606.33453403186
0.265123849158212,2606.34453403186
0.262793612441178,2606.35453403186
0.259921328250308,2606.36453403186
0.256277031503738,2606.37453403186
0.252011514177062,2606.38453403186
0.24659709000372,2606.39453403186
0.241582848159507,2606.40453403186
0.235968758478651,2606.41453403186
0.23059572487107,2606.42453403186
0.226445783312175,2606.43453403186
0.223282253688035,2606.44453403186
0.221748170530421,2606.45453403186
0.221957296258266,2606.46453403186
0.222487726133576,2606.47453403186
0.223906752993929,2606.48453403186
0.226393712914062,2606.49453403186
0.227583359011174,2606.50453403186
0.228788577713883,2606.51453403186
0.228637148939144,2606.52453403186
0.227731278020153,2606.53453403186
0.226002759674982,2606.54453403186
0.223621194607004,2606.55453403186
0.220913570546954,2606.56453403186
0.217891550205286,2606.57453403186
0.214208136069183,2606.58453403186
0.210201763060104,2606.59453403186
0.205112453878509,2606.60453403186
0.199302375961663,2606.61453403186
0.193882972538326,2606.62453403186
0.18777457534522,2606.63453403186
0.181986397654806,2606.64453403186
0.176513897896049,2606.65453403186
0.17086025304911,2606.66453403186
0.164798818207818,2606.67453403186
0.15858230071274,2606.68453403186
0.152315449223431,2606.69453403186
0.146204297183075,2606.70453403186
0.139815379300274,2606.71453403186
0.132912789156019,2606.72453403186
0.125571033077586,2606.73453403186
0.117911374288343,2606.74453403186
0.110232189255918,2606.75453403186
0.103034059083242,2606.76453403186
0.0962186145641945,2606.77453403186
0.0898521588009786,2606.78453403186
0.0839101671208062,2606.79453403186
0.0777400517157461,2606.80453403186
0.0712246294343618,2606.81453403186
0.0640668952274633,2606.82453403186
0.0565463994425589,2606.83453403186
0.0489371900433667,2606.84453403186
0.040928677632624,2606.85453403186
0.0328544197632762,2606.86453403186
0.0250839782910014,2606.87453403186
0.0167462642568067,2606.88453403186
0.0086984210419536,2606.89453403186
0.00138650911567534,2606.90453403186
-0.00562187417154028,2606.91453403186
-0.0119222205392348,2606.92453403186
-0.0176497784623227,2606.93453403186
-0.0239657211076845,2606.94453403186
-0.0304642807850436,2606.95453403186
-0.0367979478449905,2606.96453403186
-0.0432907274427843,2606.97453403186
-0.049263094327143,2606.98453403186
-0.0553907931332636,2606.99453403186
-0.0620227924162094,2607.00453403186
-0.0688691388185259,2607.01453403186
-0.0760162355221385,2607.02453403186
-0.0832052049305764,2607.03453403186
-0.0898311908572771,2607.04453403186
-0.0956752267514075,2607.05453403186
-0.100588838135659,2607.06453403186
-0.10296602921009,2607.07453403186
-0.100571490885483,2607.08453403186
-0.0924224383333108,2607.09453403186
-0.0765346785187633,2607.10453403186
-0.0536239272316772,2607.11453403186
-0.0252830294934456,2607.12453403186
0.0064199755619687,2607.13453403186
0.0391647136004725,2607.14453403186
0.0707836900908603,2607.15453403186
0.0992003554578096,2607.16453403186
0.123390287463258,2607.17453403186
0.143393820503967,2607.18453403186
0.158809417904409,2607.19453403186
0.169976516578297,2607.20453403186
0.177767541554292,2607.21453403186
0.18312150822745,2607.22453403186
0.186991561447795,2607.23453403186
0.189829902353858,2607.24453403186
0.191194599826058,2607.25453403186
0.191194286325346,2607.26453403186
0.190699425102591,2607.27453403186
0.189750710221641,2607.28453403186
0.188211981969045,2607.29453403186
0.186619039016345,2607.30453403186
0.184457094249716,2607.31453403186
0.181590203722326,2607.32453403186
0.17779112571778,2607.33453403186
0.173151361444533,2607.34453403186
0.167458892228224,2607.35453403186
0.161037842665632,2607.36453403186
0.154416457615526,2607.37453403186
0.147723670687916,2607.38453403186
0.141722292738904,2607.39453403186
0.136700016135806,2607.40453403186
0.132795263555714,2607.41453403186
0.130628481894437,2607.42453403186
0.129904023699787,2607.43453403186
0.131206888376969,2607.44453403186
0.133561634609254,2607.45453403186
0.136440265114677,2607.46453403186
0.139622990302964,2607.47453403186
0.142214204323866,2607.48453403186
0.144003637800998,2607.49453403186
0.145271771418684,2607.50453403186
0.145973934095746,2607.51453403186
0.145076321011697,2607.52453403186
0.14317109824484,2607.53453403186
0.140378459282122,2607.54453403186
0.136803990033293,2607.55453403186
0.133358903454847,2607.56453403186
0.129605870511618,2607.57453403186
0.125327686532232,2607.58453403186
0.120536843122063,2607.59453403186
0.115271376057625,2607.60453403186
0.109811179667626,2607.61453403186
0.104344396161579,2607.62453403186
0.0982743535016482,2607.63453403186
0.0928187288031193,2607.64453403186
0.0870981754975195,2607.65453403186
0.0818397953410246,2607.66453403186
0.0766909363063626,2607.67453403186
0.0716136657736095,2607.68453403186
0.066217665424549,2607.69453403186
0.0609147878937385,2607.70453403186
0.0554974411053918,2607.71453403186
0.049682856250328,2607.72453403186
0.0438214183466367,2607.73453403186
0.0372946294305298,2607.74453403186
0.030783075857927,2607.75453403186
0.0242059823165781,2607.76453403186
0.017660427200068,2607.77453403186
0.0108545307114822,2607.78453403186
0.00433626959596976,2607.79453403186
-0.00158718918977124,2607.80453403186
-0.00735474186825737,2607.81453403186
-0.0129929019853279,2607.82453403186
-0.0187181651607738,2607.83453403186
-0.0241820288653868,2607.84453403186
-0.0297856824836888,2607.85453403186
-0.0361562959593521,2607.86453403186
-0.0426739309363238,2607.87453403186
-0.0494949102947764,2607.88453403186
-0.0560731993864302,2607.89453403186
-0.0627382091066261,2607.90453403186
-0.0690581038047024,2607.91453403186
-0.075297755974446,2607.92453403186
-0.0810916000597063,2607.93453403186
-0.0874298356584071,2607.94453403186
-0.0934044095831853,2607.95453403186
-0.099316876256009,2607.96453403186
-0.104905039385472,2607.97453403186
-0.109567117694247,2607.98453403186
-0.112480115044541,2607.99453403186
-0.111858837352898,2608.00453403186
-0.107046601448388,2608.01453403186
-0.0966355173971855,2608.02453403186
-0.0789922640606388,2608.03453403186
-0.0558031003284413,2608.04453403186
-0.0272590252249028,2608.05453403186
0.00421004414722821,2608.06453403186
0.0363863324714692,2608.07453403186
0.0670907518320029,2608.08453403186
0.0940345899638618,2608.09453403186
0.117645393257875,2608.10453403186
0.137238751920524,2608.11453403186
0.15248763197609,2608.12453403186
0.16387806104078,2608.13453403186
0.172162579612941,2608.14453403186
0.178303882959184,2608.15453403186
0.182771173589293,2608.16453403186
0.185711503188028,2608.17453403186
0.187256617044237,2608.18453403186
0.187504470437814,2608.19453403186
0.187033876238281,2608.20453403186
0.186444163970183,2608.21453403186
0.184992870599488,2608.22453403186
0.183550415691112,2608.23453403186
0.181982900669776,2608.24453403186
0.179583040705423,2608.25453403186
0.176994384635124,2608.26453403186
0.172860510643458,2608.27453403186
0.167600972381671,2608.28453403186
0.16142529593468,2608.29453403186
0.15504902311823,2608.30453403186
0.149420666094906,2608.31453403186
0.144818779281924,2608.32453403186
0.141582273933532,2608.33453403186
0.139747715945241,2608.34453403186
0.139339492397668,2608.35453403186
0.140340039811842,2608.36453403186
0.14226101302941,2608.37453403186
0.145647946924786,2608.38453403186
0.149563553837876,2608.39453403186
0.15365275735764,2608.40453403186
0.157003680638598,2608.41453403186
0.159023719490833,2608.42453403186
0.159886177410818,2608.43453403186
0.159905479126774,2608.44453403186
0.159204091352282,2608.45453403186
0.157618504302702,2608.46453403186
0.1551109041454,2608.47453403186
0.15212618424547,2608.48453403186
0.148932887227019,2608.49453403186
0.145447886559772,2608.50453403186
0.141966093140079,2608.51453403186
0.138031413140767,2608.52453403186
0.133810029833775,2608.53453403186
0.129286711935931,2608.54453403186
0.124737638765559,2608.55453403186
0.119798581270486,2608.56453403186
0.114605789711638,2608.57453403186
0.10913590876682,2608.58453403186
0.103730066492038,2608.59453403186
0.0977361719088943,2608.60453403186
0.0918763024050358,2608.61453403186
0.0858108306133174,2608.62453403186
0.0799681296393563,2608.63453403186
0.0739823846049029,2608.64453403186
0.0681160230189427,2608.65453403186
0.061978439980077,2608.66453403186
0.0565368516737719,2608.67453403186
0.0510495405588913,2608.68453403186
0.0459657878825483,2608.69453403186
0.0408007744690108,2608.70453403186
0.0356612534413371,2608.71453403186
0.0296775386386932,2608.72453403186
0.0232583523907684,2608.73453403186
0.0159410948715136,2608.74453403186
0.00923625799434251,2608.75453403186
0.00238435832471848,2608.76453403186
-0.00463571442548343,2608.77453403186
-0.0115516755371817,2608.78453403186
-0.0184041988334323,2608.79453403186
-0.0254108173744269,2608.80453403186
-0.0323068247034157,2608.81453403186
-0.038629178635258,2608.82453403186
-0.0448500562566362,2608.83453403186
-0.0507043125779903,2608.84453403186
-0.0562836429406651,2608.85453403186
-0.0615832582787764,2608.86453403186
-0.066497313806441,2608.87453403186
-0.0719183662576643,2608.88453403186
-0.0779994155848893,2608.89453403186
-0.0843737952809007,2608.90453403186
-0.0898809023913058,2608.91453403186
-0.095436241314199,2608.92453403186
-0.100632735235821,2608.93453403186
-0.104669469800371,2608.94453403186
-0.105261600470766,2608.95453403186
-0.100926048278806,2608.96453403186
-0.0898590802079546,2608.97453403186
-0.0708620611410627,2608.98453403186
-0.0444633632048955,2608.99453403186
-0.012434884561684,2609.00453403186
0.0237498496002433,2609.01453403186
0.0614492340732426,2609.02453403186
0.0979523131108636,2609.03453403186
0.1314131018123,2609.04453403186
0.160329855440022,2609.05453403186
0.184928315598578,2609.06453403186
0.204756781799016,2609.07453403186
0.220377281428178,2609.08453403186
0.232964075917636,2609.09453403186
0.24221801649004,2609.10453403186
0.249286853820788,2609.11453403186
0.254788430730405,2609.12453403186
0.258472347725428,2609.13453403186
0.261124847122175,2609.14453403186
0.263129938294345,2609.15453403186
0.264949212548735,2609.16453403186
0.266306364766519,2609.17453403186
0.267546438081848,2609.18453403186
0.268605148492782,2609.19453403186
0.26981649953151,2609.20453403186
0.270568036457126,2609.21453403186
0.270051439260794,2609.22453403186
0.268362592837658,2609.23453403186
0.265372571816269,2609.24453403186
0.261343940805183,2609.25453403186
0.257408560659643,2609.26453403186
0.253212768715981,2609.27453403186
0.24973711397328,2609.28453403186
0.247530783343501,2609.29453403186
0.246655381429996,2609.30453403186
0.247315871812735,2609.31453403186
0.249075103231848,2609.32453403186
0.251399509030167,2609.33453403186
0.254485335310496,2609.34453403186
0.257334335847987,2609.35453403186
0.26030631375923,2609.36453403186
0.262583995455155,2609.37453403186
0.264160185921801,2609.38453403186
0.265588111295882,2609.39453403186
0.265883720346582,2609.40453403186
0.265815787192931,2609.41453403186
0.265034080367536,2609.42453403186
0.263200856890879,2609.43453403186
0.260494690730386,2609.44453403186
0.256963380286489,2609.45453403186
0.253187787552585,2609.46453403186
0.24873183157124,2609.47453403186
0.244644325956826,2609.48453403186
0.24044692004194,2609.49453403186
0.236258599373948,2609.50453403186
0.231560945803285,2609.51453403186
0.225943506886032,2609.52453403186
0.219949088643748,2609.53453403186
0.213119176267284,2609.54453403186
0.206411389086991,2609.55453403186
0.200129992643138,2609.56453403186
0.193653318254833,2609.57453403186
0.18782290033441,2609.58453403186
0.182068217546114,2609.59453403186
0.175907083928837,2609.60453403186
0.16930037317049,2609.61453403186
0.162885373872999,2609.62453403186
0.156107517231523,2609.63453403186
0.149256557614677,2609.64453403186
0.142849742884964,2609.65453403186
0.136568990036188,2609.66453403186
0.130595189282693,2609.67453403186
0.124726555477786,2609.68453403186
0.119682238380302,2609.69453403186
0.11418564426999,2609.70453403186
0.109252532643118,2609.71453403186
0.103682484834835,2609.72453403186
0.0977246148273433,2609.73453403186
0.0920699820400751,2609.74453403186
0.0857284239507336,2609.75453403186
0.0794215868730388,2609.76453403186
0.0729751299450799,2609.77453403186
0.0660215515114793,2609.78453403186
0.0594480090607568,2609.79453403186
0.0526157578597461,2609.80453403186
0.0459502275589635,2609.81453403186
0.039732995510649,2609.82453403186
0.0326643130484163,2609.83453403186
0.0260549844054118,2609.84453403186
0.019279837701799,2609.85453403186
0.0123639809902251,2609.86453403186
0.00528036399294138,2609.87453403186
-0.00219363825451341,2609.88453403186
-0.00871889680187416,2609.89453403186
-0.0144518895106282,2609.90453403186
-0.0166217024953757,2609.91453403186
-0.0137851253335581,2609.92453403186
-0.00400728876105732,2609.93453403186
0.01362377328101,2609.94453403186
0.03948657615726,2609.95453403186
0.0720927648125353,2609.96453403186
0.108516808358401,2609.97453403186
0.146699119167869,2609.98453403186
0.184046676170282,2609.99453403186
0.218535628286491,2610.00453403186
0.249077912668364,2610.01453403186
0.275579988091662,2610.02453403186
0.298230972008897,2610.03453403186
0.31659636973882,2610.04453403186
0.330907958242836,2610.05453403186
0.341778158872725,2610.06453403186
0.349257068323282,2610.07453403186
0.354677108967131,2610.08453403186
0.358183132664012,2610.09453403186
0.360094074402668,2610.10453403186
0.360707239844257,2610.11453403186
0.361436550700881,2610.12453403186
0.361479508936376,2610.13453403186
0.361050807273215,2610.14453403186
0.359944272376447,2610.15453403186
0.357993206871633,2610.16453403186
0.355126930056661,2610.17453403186
0.351926916955126,2610.18453403186
0.347270280291876,2610.19453403186
0.341813031925715,2610.20453403186
0.335672528782646,2610.21453403186
0.329467099516785,2610.22453403186
0.323761554427677,2610.23453403186
0.318529317271543,2610.24453403186
0.313997499195485,2610.25453403186
0.31080609403836,2610.26453403186
0.309382972947018,2610.27453403186
0.30911936189123,2610.28453403186
0.309899976081112,2610.29453403186
0.311772704444501,2610.30453403186
0.314222597919999,2610.31453403186
0.316568235947633,2610.32453403186
0.31890782601635,2610.33453403186
0.320094786334906,2610.34453403186
0.320186329053064,2610.35453403186
0.31984450415469,2610.36453403186
0.318069184573469,2610.37453403186
0.315157198263226,2610.38453403186
0.311850996388577,2610.39453403186
0.307417091568374,2610.40453403186
0.303170974649797,2610.41453403186
0.298902987335194,2610.42453403186
0.294348467223425,2610.43453403186
0.29005262105016,2610.44453403186
0.285314743965184,2610.45453403186
0.280379259877871,2610.46453403186
0.27514890779311,2610.47453403186
0.269326388286609,2610.48453403186
0.264097797229092,2610.49453403186
0.258588098699723,2610.50453403186
0.252637379840402,2610.51453403186
0.246845765808639,2610.52453403186
0.240845328567213,2610.53453403186
0.234927920432473,2610.54453403186
0.228758291167712,2610.55453403186
0.222332502078546,2610.56453403186
0.216471284390401,2610.57453403186
0.210355871202394,2610.58453403186
0.204203845747954,2610.59453403186
0.198707205713426,2610.60453403186
0.193571377924192,2610.61453403186
0.188780756995082,2610.62453403186
0.185000579409022,2610.63453403186
0.181023527045039,2610.64453403186
0.177458454993886,2610.65453403186
0.172788460459032,2610.66453403186
0.168055231678214,2610.67453403186
0.163049734779754,2610.68453403186
0.157517704832277,2610.69453403186
0.151505772640284,2610.70453403186
0.145904420785982,2610.71453403186
0.140459858217442,2610.72453403186
0.135305542273354,2610.73453403186
0.12971516707689,2610.74453403186
0.124198942385485,2610.75453403186
0.118447571616885,2610.76453403186
0.112287586631195,2610.77453403186
0.106143553427068,2610.78453403186
0.100698330705407,2610.79453403186
0.0979957798968736,2610.80453403186
0.0991192616813203,2610.81453403186
0.107127309001864,2610.82453403186
0.123232793033969,2610.83453403186
0.1476401161443,2610.84453403186
0.179105152027493,2610.85453403186
0.214791660026727,2610.86453403186
0.252778532470038,2610.87453403186
0.290339925524683,2610.88453403186
0.325488445466107,2610.89453403186
0.35666754159692,2610.90453403186
0.383037261913007,2610.91453403186
0.404935337775105,2610.92453403186
0.422230282422308,2610.93453403186
0.435506923824057,2610.94453403186
0.445357457931319,2610.95453403186
0.452446735876986,2610.96453403186
0.456743971083356,2610.97453403186
0.459362883272212,2610.98453403186
0.460616246628261,2610.99453403186
0.460538298062196,2611.00453403186
0.460107725658333,2611.01453403186
0.458586895862472,2611.02453403186
0.456017862154156,2611.03453403186
0.452520487111812,2611.04453403186
0.448729024479523,2611.05453403186
0.443431236195701,2611.06453403186
0.43700078746931,2611.07453403186
0.430091262558636,2611.08453403186
0.422371070659545,2611.09453403186
0.414488759283979,2611.10453403186
0.406102598372236,2611.11453403186
0.398690121417336,2611.12453403186
0.39219106599003,2611.13453403186
0.387248594923686,2611.14453403186
0.383556419499785,2611.15453403186
0.381010433429397,2611.16453403186
0.379410485019191,2611.17453403186
0.379475753649473,2611.18453403186
0.380687407784197,2611.19453403186
0.382782296784187,2611.20453403186
0.384765521647254,2611.21453403186
0.386148717719236,2611.22453403186
0.387268572258686,2611.23453403186
0.387318933228324,2611.24453403186
0.386839636280168,2611.25453403186
0.385054134689462,2611.26453403186
0.382764039951785,2611.27453403186
0.379441393844713,2611.28453403186
0.375729621651773,2611.29453403186
0.370880303270093,2611.30453403186
0.365453534437665,2611.31453403186
0.359084750184834,2611.32453403186
0.352331984950883,2611.33453403186
0.345463072913511,2611.34453403186
0.338258927508342,2611.35453403186
0.331619323934333,2611.36453403186
0.324906982134929,2611.37453403186
0.318407649170183,2611.38453403186
0.311534686315662,2611.39453403186
0.30416861851913,2611.40453403186
0.297469977809765,2611.41453403186
0.29005057529869,2611.42453403186
0.282733578792059,2611.43453403186
0.275839558310197,2611.44453403186
0.26930424796259,2611.45453403186
0.263213654329511,2611.46453403186
0.257236063020751,2611.47453403186
0.2504616517364,2611.48453403186
0.243540920329578,2611.49453403186
0.235876800837576,2611.50453403186
0.227619100249384,2611.51453403186
0.219553804688506,2611.52453403186
0.211528404582515,2611.53453403186
0.203789635064381,2611.54453403186
0.196053391465965,2611.55453403186
0.188414665428909,2611.56453403186
0.181584186117814,2611.57453403186
0.174077974678483,2611.58453403186
0.166332957904498,2611.59453403186
0.158798573997266,2611.60453403186
0.151450471284853,2611.61453403186
0.144232785306801,2611.62453403186
0.137253584025864,2611.63453403186
0.130064991511003,2611.64453403186
0.12340890431497,2611.65453403186
0.116885632128291,2611.66453403186
0.110390083772796,2611.67453403186
0.103827522029115,2611.68453403186
0.0966991518138239,2611.69453403186
0.089606141492712,2611.70453403186
0.0829110796438225,2611.71453403186
0.0785214876562655,2611.72453403186
0.0771949990283046,2611.73453403186
0.0817804315230893,2611.74453403186
0.0942670815739951,2611.75453403186
0.115221095985897,2611.76453403186
0.145057814254021,2611.77453403186
0.181695132234199,2611.78453403186
0.223276761415554,2611.79453403186
0.266719096563346,2611.80453403186
0.309145782916013,2611.81453403186
0.34859387818079,2611.82453403186
0.383647599759415,2611.83453403186
0.413069273636401,2611.84453403186
0.436945642923643,2611.85453403186
0.455696735833631,2611.86453403186
0.469638990190213,2611.87453403186
0.479875160629341,2611.88453403186
0.487264727474577,2611.89453403186
0.492858519648734,2611.90453403186
0.497508047088299,2611.91453403186
0.501109793012979,2611.92453403186
0.503802861461639,2611.93453403186
0.505293315235499,2611.94453403186
0.506031093962457,2611.95453403186
0.505554662334459,2611.96453403186
0.503885384785791,2611.97453403186
0.500979352454973,2611.98453403186
0.4961399103831,2611.99453403186
0.490419366430372,2612.00453403186
0.483631638007582,2612.01453403186
0.475280796836473,2612.02453403186
0.466352761991993,2612.03453403186
0.456963633336285,2612.04453403186
0.447947405003069,2612.05453403186
0.439582273574499,2612.06453403186
0.432146094559902,2612.07453403186
0.426623709319325,2612.08453403186
0.422554795118367,2612.09453403186
0.421003835772056,2612.10453403186
0.420430742026295,2612.11453403186
0.42058687931395,2612.12453403186
0.421045897789336,2612.13453403186
0.420934435699845,2612.14453403186
0.420292957070732,2612.15453403186
0.419271655413712,2612.16453403186
0.417386310292014,2612.17453403186
0.414410175619566,2612.18453403186
0.409897835277456,2612.19453403186
0.404661528827518,2612.20453403186
0.398941273908549,2612.21453403186
0.392999094272929,2612.22453403186
0.386542095479949,2612.23453403186
0.380466682249428,2612.24453403186
0.374629518351941,2612.25453403186
0.36873651980022,2612.26453403186
0.362274708883374,2612.27453403186
0.356134827307595,2612.28453403186
0.3491915044912,2612.29453403186
0.341863540707429,2612.30453403186
0.334187091691768,2612.31453403186
0.325992599357203,2612.32453403186
0.317719931002322,2612.33453403186
0.309611483623515,2612.34453403186
0.302182508579832,2612.35453403186
0.294762888502953,2612.36453403186
0.287582508380718,2612.37453403186
0.280240702465623,2612.38453403186
0.272503525143328,2612.39453403186
0.264081155121827,2612.40453403186
0.255001638891094,2612.41453403186
0.246036200694564,2612.42453403186
0.236970745218226,2612.43453403186
0.227736168235392,2612.44453403186
0.219091297681003,2612.45453403186
0.210353203433963,2612.46453403186
0.201966083420385,2612.47453403186
0.193377389146047,2612.48453403186
0.184543216185872,2612.49453403186
0.175598258138195,2612.50453403186
0.166149362837839,2612.51453403186
0.156609720530468,2612.52453403186
0.147222994013162,2612.53453403186
0.137777593444527,2612.54453403186
0.128632201453926,2612.55453403186
0.119753836421671,2612.56453403186
0.111402081483756,2612.57453403186
0.103017585756055,2612.58453403186
0.0945095137280808,2612.59453403186
0.0855008101261561,2612.60453403186
0.0760953012298796,2612.61453403186
0.0666024366762237,2612.62453403186
0.0571468534876592,2612.63453403186
0.0482008162260833,2612.64453403186
0.0408691940886376,2612.65453403186
0.0362061657562944,2612.66453403186
0.0367364440941333,2612.67453403186
0.0438546919115397,2612.68453403186
0.0589635623809557,2612.69453403186
0.082782333129587,2612.70453403186
0.11379180807473,2612.71453403186
0.150757307037981,2612.72453403186
0.190564927644211,2612.73453403186
0.230808503684148,2612.74453403186
0.268611426036035,2612.75453403186
0.302266502858397,2612.76453403186
0.330971668298877,2612.77453403186
0.353420737900544,2612.78453403186
0.370643463379832,2612.79453403186
0.383381420107496,2612.80453403186
0.392021603152824,2612.81453403186
0.397437007868017,2612.82453403186
0.399936759883947,2612.83453403186
0.400132952598129,2612.84453403186
0.398968131639192,2612.85453403186
0.396833619735442,2612.86453403186
0.393744591299656,2612.87453403186
0.390051012840457,2612.88453403186
0.385953668620649,2612.89453403186
0.381395894746448,2612.90453403186
0.376066241434776,2612.91453403186
0.36955037884209,2612.92453403186
0.362244395036243,2612.93453403186
0.353640269074165,2612.94453403186
0.343809444676876,2612.95453403186
0.333818689869183,2612.96453403186
0.323816277812244,2612.97453403186
0.314583595140021,2612.98453403186
0.306431366311011,2612.99453403186
0.29913940956658,2613.00453403186
0.293248893567257,2613.01453403186
0.288947099295848,2613.02453403186
0.286286708671406,2613.03453403186
0.284877529136813,2613.04453403186
0.284606088790403,2613.05453403186
0.284833486700234,2613.06453403186
0.285015035617027,2613.07453403186
0.28499795256545,2613.08453403186
0.284265540000114,2613.09453403186
0.281785948543812,2613.10453403186
0.278107834494773,2613.11453403186
0.273299510996454,2613.12453403186
0.267669424131079,2613.13453403186
0.261714282820282,2613.14453403186
0.255583249733388,2613.15453403186
0.249164714852295,2613.16453403186
0.242709072602791,2613.17453403186
0.236337511684589,2613.18453403186
0.229709282752845,2613.19453403186
0.223208606319558,2613.20453403186
0.217016489198217,2613.21453403186
0.210640234477459,2613.22453403186
0.203780653403558,2613.23453403186
0.197188286995762,2613.24453403186
0.19074582723933,2613.25453403186
0.184689525868234,2613.26453403186
0.178493529336011,2613.27453403186
0.17139184315716,2613.28453403186
0.164266634734763,2613.29453403186
0.156662421267245,2613.30453403186
0.147996894816108,2613.31453403186
0.13978111681134,2613.32453403186
0.130817709771668,2613.33453403186
0.122397984339563,2613.34453403186
0.11338060160356,2613.35453403186
0.104787293213824,2613.36453403186
0.0961127018986909,2613.37453403186
0.0873807323524658,2613.38453403186
0.0793582998032774,2613.39453403186
0.0711794722977488,2613.40453403186
0.0628921455045428,2613.41453403186
0.0544761290023591,2613.42453403186
0.0457246272830101,2613.43453403186
0.0370249078757517,2613.44453403186
0.0287512080311499,2613.45453403186
0.0204060750804792,2613.46453403186
0.0118034653117547,2613.47453403186
0.00359028588037545,2613.48453403186
-0.00459033583767039,2613.49453403186
-0.0124580459668465,2613.50453403186
-0.0208305870723643,2613.51453403186
-0.0295684052645593,2613.52453403186
-0.037852432867969,2613.53453403186
-0.0455942034014736,2613.54453403186
-0.0514141107430425,2613.55453403186
-0.0546163057975215,2613.56453403186
-0.0531956288057489,2613.57453403186
-0.044625585060927,2613.58453403186
-0.0279031795604564,2613.59453403186
-0.0026823230445662,2613.60453403186
0.0300723305396165,2613.61453403186
0.0675721356361397,2613.62453403186
0.106503543651948,2613.63453403186
0.144679730293909,2613.64453403186
0.178780556652717,2613.65453403186
0.208857687110628,2613.66453403186
0.233581407153358,2613.67453403186
0.252842486144718,2613.68453403186
0.267389484339282,2613.69453403186
0.277699505339117,2613.70453403186
0.285394395261432,2613.71453403186
0.290855227327552,2613.72453403186
0.293920173793138,2613.73453403186
0.295594226222992,2613.74453403186
0.296023009658376,2613.75453403186
0.295449047693627,2613.76453403186
0.294595007397198,2613.77453403186
0.29324470393562,2613.78453403186
0.291165846648067,2613.79453403186
0.288256443056117,2613.80453403186
0.28396867125409,2613.81453403186
0.278983231683361,2613.82453403186
0.273592896156507,2613.83453403186
0.26685443867616,2613.84453403186
0.259541474166193,2613.85453403186
0.251369802853868,2613.86453403186
0.243251173034075,2613.87453403186
0.235727145821404,2613.88453403186
0.228829875316555,2613.89453403186
0.223917166365733,2613.90453403186
0.220229071392571,2613.91453403186
0.218084178620225,2613.92453403186
0.217585038634515,2613.93453403186
0.217791421090575,2613.94453403186
0.218727002922217,2613.95453403186
0.21968083404304,2613.96453403186
0.22050666274284,2613.97453403186
0.221189973210461,2613.98453403186
0.22117931989685,2613.99453403186
0.219672444525726,2614.00453403186
0.217205543515513,2614.01453403186
0.213606066648493,2614.02453403186
0.20929422009776,2614.03453403186
0.204893446458312,2614.04453403186
0.199695788105625,2614.05453403186
0.194318600806209,2614.06453403186
0.188507940532954,2614.07453403186
0.181943412871617,2614.08453403186
0.175163887093295,2614.09453403186
0.167623160138483,2614.10453403186
0.160453706215462,2614.11453403186
0.153074785743384,2614.12453403186
0.145876845568559,2614.13453403186
0.138423300742627,2614.14453403186
0.130550864282395,2614.15453403186
0.122323939977544,2614.16453403186
0.114331470913049,2614.17453403186
0.106586120428388,2614.18453403186
0.0986316080010737,2614.19453403186
0.0913602538277551,2614.20453403186
0.0840484070746797,2614.21453403186
0.0767105284952623,2614.22453403186
0.0689931193398179,2614.23453403186
0.0615980905441615,2614.24453403186
0.0539591044458507,2614.25453403186
0.0467293766055966,2614.26453403186
0.0392277390170338,2614.27453403186
0.0312229208932405,2614.28453403186
0.0231319150566094,2614.29453403186
0.0148370627850295,2614.30453403186
0.00735111324159426,2614.31453403186
2.26395798982207e-05,2614.32453403186
-0.0072484085870041,2614.33453403186
-0.0139063065576386,2614.34453403186
-0.0205996273494985,2614.35453403186
-0.0274840094744016,2614.36453403186
-0.0344877828811152,2614.37453403186
-0.0415215645088026,2614.38453403186
-0.0482024399350629,2614.39453403186
-0.0542812240852153,2614.40453403186
-0.0608723795255251,2614.41453403186
-0.0678075869081056,2614.42453403186
-0.0752850007135655,2614.43453403186
-0.0835219895581758,2614.44453403186
-0.0905654918014482,2614.45453403186
-0.0951359070142187,2614.46453403186
-0.0951299347098782,2614.47453403186
-0.0884992754063249,2614.48453403186
-0.0738611674807984,2614.49453403186
-0.0507277331941665,2614.50453403186
-0.0200055643275006,2614.51453403186
0.0165266398878014,2614.52453403186
0.0554113206196461,2614.53453403186
0.0938055038893904,2614.54453403186
0.130251451727129,2614.55453403186
0.162678840994554,2614.56453403186
0.189721161224705,2614.57453403186
0.211102980440142,2614.58453403186
0.227894152714694,2614.59453403186
0.240699636819774,2614.60453403186
0.249920840096712,2614.61453403186
0.256895973902104,2614.62453403186
0.26159080360341,2614.63453403186
0.264573730509089,2614.64453403186
0.266011098486148,2614.65453403186
0.266453913368386,2614.66453403186
0.266319411771521,2614.67453403186
0.265709723685203,2614.68453403186
0.265197289560104,2614.69453403186
0.264400465818708,2614.70453403186
0.263236193851859,2614.71453403186
0.261971905808453,2614.72453403186
0.259448025074327,2614.73453403186
0.255471083558234,2614.74453403186
0.250531636487221,2614.75453403186
0.244258730168524,2614.76453403186
0.23747327532952,2614.77453403186
0.229974238266963,2614.78453403186
0.22304719075229,2614.79453403186
0.216559655112106,2614.80453403186
0.211012787049574,2614.81453403186
0.206874643543373,2614.82453403186
0.203740043733308,2614.83453403186
0.201828186694279,2614.84453403186
0.200819768454119,2614.85453403186
0.200781618363442,2614.86453403186
0.200802003152454,2614.87453403186
0.201149846613525,2614.88453403186
0.201280893457962,2614.89453403186
0.200537401533033,2614.90453403186
0.199349816512015,2614.91453403186
0.197784499239298,2614.92453403186
0.194618835000046,2614.93453403186
0.190467861887712,2614.94453403186
0.185315420965298,2614.95453403186
0.179828211333496,2614.96453403186
0.173985943248516,2614.97453403186
0.167988194041157,2614.98453403186
0.162055603672926,2614.99453403186
0.155557165998273,2615.00453403186
0.148532129904762,2615.01453403186
0.141421518981862,2615.02453403186
0.133852823513705,2615.03453403186
0.126488916261427,2615.04453403186
0.119160295194363,2615.05453403186
0.111658092849957,2615.06453403186
0.104383428632606,2615.07453403186
0.0971171462333759,2615.08453403186
0.0901901375777147,2615.09453403186
0.083246389062894,2615.10453403186
0.0767564054382724,2615.11453403186
0.0696243885748729,2615.12453403186
0.0627344998887124,2615.13453403186
0.0555697268805788,2615.14453403186
0.0477841555407632,2615.15453403186
0.04027416527523,2615.16453403186
0.032380858958475,2615.17453403186
0.0244099032424781,2615.18453403186
0.0166773199281539,2615.19453403186
0.00889861086602653,2615.20453403186
0.00098361203423737,2615.21453403186
-0.00650455194181432,2615.22453403186
-0.0139256561699353,2615.23453403186
-0.0216670629147169,2615.24453403186
-0.0292961757956842,2615.25453403186
-0.0372856628059235,2615.26453403186
-0.0450325032185629,2615.27453403186
-0.0528942095730209,2615.28453403186
-0.0609766649578689,2615.29453403186
-0.0689491477126644,2615.30453403186
-0.0767144826610758,2615.31453403186
-0.0839094594605032,2615.32453403186
-0.0908814913664249,2615.33453403186
-0.0978186411517555,2615.34453403186
-0.105378629550132,2615.35453403186
-0.112792457458924,2615.36453403186
-0.120431746035341,2615.37453403186
-0.126356290084771,2615.38453403186
-0.128360261866212,2615.39453403186
-0.124092053409846,2615.40453403186
-0.112225824621458,2615.41453403186
-0.0918083989503981,2615.42453403186
-0.0639344413469711,2615.43453403186
-0.0303455166940077,2615.44453403186
0.00620694023583582,2615.45453403186
0.0429544977554576,2615.46453403186
0.077608164293541,2615.47453403186
0.10813995412977,2615.48453403186
0.133375376386077,2615.49453403186
0.152977494816404,2615.50453403186
0.167389604990905,2615.51453403186
0.177637452650565,2615.52453403186
0.184796147142723,2615.53453403186
0.18904743189644,2615.54453403186
0.19128276661971,2615.55453403186
0.19148356465904,2615.56453403186
0.191198326094457,2615.57453403186
0.190433116395832,2615.58453403186
0.189373505108673,2615.59453403186
0.187820493952562,2615.60453403186
0.186025682886625,2615.61453403186
0.183904489425355,2615.62453403186
0.181411377193486,2615.63453403186
0.178833871445463,2615.64453403186
0.175757116096691,2615.65453403186
0.171449301623875,2615.66453403186
0.166010791652087,2615.67453403186
0.159152275063723,2615.68453403186
0.151698294940543,2615.69453403186
0.14373871220466,2615.70453403186
0.135558250299587,2615.71453403186
0.128203595489653,2615.72453403186
0.122332753294697,2615.73453403186
0.11804924724793,2615.74453403186
0.115811349880887,2615.75453403186
0.115294157397926,2615.76453403186
0.115977754124893,2615.77453403186
0.117089565813688,2615.78453403186
0.118460284814665,2615.79453403186
0.119496424600718,2615.80453403186
0.120734216935003,2615.81453403186
0.120635657431289,2615.82453403186
0.119793942678019,2615.83453403186
0.117050267306106,2615.84453403186
0.113203046500537,2615.85453403186
0.108989102522948,2615.86453403186
0.104536242058618,2615.87453403186
0.0998908190339781,2615.88453403186
0.0947336615064426,2615.89453403186
0.0888853189327466,2615.90453403186
0.0824266218396596,2615.91453403186
0.0759693143197785,2615.92453403186
0.069186601280306,2615.93453403186
0.062633885559756,2615.94453403186
0.0555228241100625,2615.95453403186
0.0488640317249349,2615.96453403186
0.0420012842179188,2615.97453403186
0.0349849181107954,2615.98453403186
0.028220875245476,2615.99453403186
0.0216305329871302,2616.00453403186
0.0149600233194072,2616.01453403186
0.00807963567643318,2616.02453403186
0.00102312368410986,2616.03453403186
-0.00600373099907997,2616.04453403186
-0.0131069164146486,2616.05453403186
-0.0209114390928845,2616.06453403186
-0.0280820662041826,2616.07453403186
-0.0350385123417674,2616.08453403186
-0.041696350179409,2616.09453403186
-0.0481273152633759,2616.10453403186
-0.0543190789999509,2616.11453403186
-0.0605945735976221,2616.12453403186
-0.0672183415795058,2616.13453403186
-0.073521909157673,2616.14453403186
-0.0804266164587606,2616.15453403186
-0.086916504163844,2616.16453403186
-0.0937110026432696,2616.17453403186
-0.100677203637367,2616.18453403186
-0.107520357960221,2616.19453403186
-0.114459276287045,2616.20453403186
-0.12142461928595,2616.21453403186
-0.128521296668947,2616.22453403186
-0.135241574868651,2616.23453403186
-0.142080508997156,2616.24453403186
-0.148972452651379,2616.25453403186
-0.156855987210817,2616.26453403186
-0.164899831118272,2616.27453403186
-0.172439700606471,2616.28453403186
-0.178560376727507,2616.29453403186
-0.181426656760382,2616.30453403186
-0.17879569514517,2616.31453403186
-0.169279428866316,2616.32453403186
-0.152331785276432,2616.33453403186
-0.12846225608,2616.34453403186
-0.0990522804474912,2616.35453403186
-0.0660280524821063,2616.36453403186
-0.0325578263849303,2616.37453403186
-0.00040616205020593,2616.38453403186
0.0285514513861224,2616.39453403186
0.0535308907748092,2616.40453403186
0.0733367743869013,2616.41453403186
0.0885480781219,2616.42453403186
0.099234829196923,2616.43453403186
0.106383900407963,2616.44453403186
0.110497188386694,2616.45453403186
0.111771167235687,2616.46453403186
0.111427196674861,2616.47453403186
0.110298517543086,2616.48453403186
0.108392242842606,2616.49453403186
0.106523327419505,2616.50453403186
0.104385579209233,2616.51453403186
0.102481706132875,2616.52453403186
0.100532211708286,2616.53453403186
0.0980337370853711,2616.54453403186
0.0944437856120388,2616.55453403186
0.0901674584554667,2616.56453403186
0.0848103316620359,2616.57453403186
0.0790998288008559,2616.58453403186
0.0726201364101076,2616.59453403186
0.0660656951203262,2616.60453403186
0.0599872190120432,2616.61453403186
0.0541498571693051,2616.62453403186
0.0493556201360139,2616.63453403186
0.0458609232292707,2616.64453403186
0.043787294760091,2616.65453403186
0.0436382209220584,2616.66453403186
0.0442535824303632,2616.67453403186
0.0467869913083522,2616.68453403186
0.0496585511487267,2616.69453403186
0.0529062718753627,2616.70453403186
0.0557265446809433,2616.71453403186
0.058037548914516,2616.72453403186
0.0595019258271356,2616.73453403186
0.0595769632690249,2616.74453403186
0.0580863626449119,2616.75453403186
0.055694696424403,2616.76453403186
0.0520903837041859,2616.77453403186
0.0476012564653526,2616.78453403186
0.0432756419174666,2616.79453403186
0.0386142886507476,2616.80453403186
0.0336743895794066,2616.81453403186
0.0283650334684953,2616.82453403186
0.022703527056979,2616.83453403186
0.0173900103837298,2616.84453403186
0.0124255436402581,2616.85453403186
0.00738706496786629,2616.86453403186
0.00196937872103116,2616.87453403186
-0.00344639447560811,2616.88453403186
-0.00980377337397918,2616.89453403186
-0.0167619011271715,2616.90453403186
-0.0237357671914985,2616.91453403186
-0.0304169294073388,2616.92453403186
-0.0365685585296586,2616.93453403186
-0.042580435806771,2616.94453403186
-0.0482758359198694,2616.95453403186
-0.05444793097119,2616.96453403186
-0.0606956878459753,2616.97453403186
-0.0666700777063263,2616.98453403186
-0.0729115605815065,2616.99453403186
-0.0792722264390243,2617.00453403186
-0.0858768966927716,2617.01453403186
-0.0924640662424896,2617.02453403186
-0.0990798220946925,2617.03453403186
-0.105449845319373,2617.04453403186
-0.111914759107349,2617.05453403186
-0.118374838974827,2617.06453403186
-0.124444082441097,2617.07453403186
-0.130034817476423,2617.08453403186
-0.135880535167973,2617.09453403186
-0.141651802388894,2617.10453403186
-0.147295318452409,2617.11453403186
-0.153339489129324,2617.12453403186
-0.15941186607758,2617.13453403186
-0.165575771889119,2617.14453403186
-0.171175365677995,2617.15453403186
-0.175707180796577,2617.16453403186
-0.177758330788484,2617.17453403186
-0.174479142543427,2617.18453403186
-0.165180778376048,2617.19453403186
-0.148658992106086,2617.20453403186
-0.124744486409138,2617.21453403186
-0.0952958663850052,2617.22453403186
-0.0615843611661444,2617.23453403186
-0.0274508556634475,2617.24453403186
0.00544040339270859,2617.25453403186
0.0348672571446556,2617.26453403186
0.0595786108785488,2617.27453403186
0.0795477662997078,2617.28453403186
0.0948017400464696,2617.29453403186
0.1062209562553,2617.30453403186
0.113818091752458,2617.31453403186
0.119026323649377,2617.32453403186
0.121973174575965,2617.33453403186
0.123130308787648,2617.34453403186
0.123566094711496,2617.35453403186
0.123530762813933,2617.36453403186
0.123449500029654,2617.37453403186
0.123314690222085,2617.38453403186
0.123152797538203,2617.39453403186
0.123758293093599,2617.40453403186
0.123226015828792,2617.41453403186
0.122963503517673,2617.42453403186
0.122025097947875,2617.43453403186
0.120452617213982,2617.44453403186
0.11839484223399,2617.45453403186
0.114073522277295,2617.46453403186
0.109025554575555,2617.47453403186
0.103025513486502,2617.48453403186
0.0969068321845765,2617.49453403186
0.0910245537172828,2617.50453403186
0.0868049303626234,2617.51453403186
0.0836653970888405,2617.52453403186
0.0827957745169643,2617.53453403186
0.0836159945479693,2617.54453403186
0.0859626730208341,2617.55453403186
0.0887980678006148,2617.56453403186
0.0920662170657072,2617.57453403186
0.0950215809721183,2617.58453403186
0.0979331955782453,2617.59453403186
0.100388299123982,2617.60453403186
0.102153924936247,2617.61453403186
0.10307580362134,2617.62453403186
0.103061368578899,2617.63453403186
0.101842214620073,2617.64453403186
0.100128937717581,2617.65453403186
0.0976416482701836,2617.66453403186
0.0944389700908968,2617.67453403186
0.0907219955531149,2617.68453403186
0.0858636068627805,2617.69453403186
0.0804347841512923,2617.70453403186
0.0750626380934887,2617.71453403186
0.0695464000610931,2617.72453403186
0.0645752403668692,2617.73453403186
0.059830829510649,2617.74453403186
0.0548196731496353,2617.75453403186
0.05009646381633,2617.76453403186
0.0450870279704926,2617.77453403186
0.0407202748819096,2617.78453403186
0.0366008419404246,2617.79453403186
0.0320755536939748,2617.80453403186
0.027135135495051,2617.81453403186
0.021994376919047,2617.82453403186
0.0164862337839264,2617.83453403186
0.0101354337865115,2617.84453403186
0.00397626058807188,2617.85453403186
-0.00190440397555492,2617.86453403186
-0.00793739963886337,2617.87453403186
-0.0143518545467337,2617.88453403186
-0.0205351371405128,2617.89453403186
-0.0271519130522757,2617.90453403186
-0.0332660005827035,2617.91453403186
-0.0397248719523625,2617.92453403186
-0.0464662503268456,2617.93453403186
-0.0534019697712988,2617.94453403186
-0.0601413864399914,2617.95453403186
-0.0672718198707639,2617.96453403186
-0.0741903990829781,2617.97453403186
-0.081633789292904,2617.98453403186
-0.0887602645677698,2617.99453403186
-0.0956808223608737,2618.00453403186
-0.102083487278435,2618.01453403186
-0.107363107612613,2618.02453403186
-0.109402525514988,2618.03453403186
-0.106491313754378,2618.04453403186
-0.0963047023155368,2618.05453403186
-0.0784881415839354,2618.06453403186
-0.0530086378116824,2618.07453403186
-0.0223989669961001,2618.08453403186
0.0116112722055616,2618.09453403186
0.0462415005711521,2618.10453403186
0.0787040287060435,2618.11453403186
0.107541270136844,2618.12453403186
0.131798249352471,2618.13453403186
0.151735723550172,2618.14453403186
0.167590238685146,2618.15453403186
0.179546294631985,2618.16453403186
0.188054588447112,2618.17453403186
0.193426364227178,2618.18453403186
0.19671194532281,2618.19453403186
0.198841526776633,2618.20453403186
0.200328094522311,2618.21453403186
0.201520113050534,2618.22453403186
0.202437643159145,2618.23453403186
0.203869146963337,2618.24453403186
0.20502107735813,2618.25453403186
0.205616245337444,2618.26453403186
0.205444109245507,2618.27453403186
0.204542340858982,2618.28453403186
0.203194716676174,2618.29453403186
0.201262882535816,2618.30453403186
0.198165974775072,2618.31453403186
0.19418538998527,2618.32453403186
0.189539791126743,2618.33453403186
0.184635570432304,2618.34453403186
0.179602130307091,2618.35453403186
0.175427834470807,2618.36453403186
0.172500786623853,2618.37453403186
0.171351472795425,2618.38453403186
0.171954627207832,2618.39453403186
0.173083546017466,2618.40453403186
0.17419429469911,2618.41453403186
0.175670939320069,2618.42453403186
0.177536833243946,2618.43453403186
0.178951703300862,2618.44453403186
0.179912158404418,2618.45453403186
0.180670479046234,2618.46453403186
0.179982677291953,2618.47453403186
0.178690412448436,2618.48453403186
0.175886489417112,2618.49453403186
0.172496295626257,2618.50453403186
0.168572859696582,2618.51453403186
0.164489986925191,2618.52453403186
0.160235147566554,2618.53453403186
0.155361579990114,2618.54453403186
0.150725578786169,2618.55453403186
0.145428180714595,2618.56453403186
0.139713332780316,2618.57453403186
0.133786481954508,2618.58453403186
0.127318134404014,2618.59453403186
0.120912571360873,2618.60453403186
0.113969702791264,2618.61453403186
0.107523677208147,2618.62453403186
0.100949511762753,2618.63453403186
0.0942863600719551,2618.64453403186
0.0868999503936338,2618.65453403186
0.0792638754050016,2618.66453403186
0.0709321385867819,2618.67453403186
0.0622058689377399,2618.68453403186
0.0538924803713611,2618.69453403186
0.0461251006956908,2618.70453403186
0.0392579556336167,2618.71453403186
0.0328680208536194,2618.72453403186
0.0265303624018338,2618.73453403186
0.0200180436095352,2618.74453403186
0.0126311515184925,2618.75453403186
0.00486625546163673,2618.76453403186
-0.0028961762715507,2618.77453403186
-0.0109774788633165,2618.78453403186
-0.0193135632187518,2618.79453403186
-0.0279655676328638,2618.80453403186
-0.0364221444412147,2618.81453403186
-0.0454738320294959,2618.82453403186
-0.054536285414525,2618.83453403186
-0.0635406101971741,2618.84453403186
-0.0725443598440409,2618.85453403186
-0.0808376114255527,2618.86453403186
-0.0875967601940557,2618.87453403186
-0.0916608976401311,2618.88453403186
-0.0914183985679995,2618.89453403186
-0.0848116773019892,2618.90453403186
-0.0708291122046197,2618.91453403186
-0.0498264421566397,2618.92453403186
-0.0225180823981303,2618.93453403186
0.00851936467941475,2618.94453403186
0.0411372089250275,2618.95453403186
0.0731672191330985,2618.96453403186
0.102808670800367,2618.97453403186
0.129366285797874,2618.98453403186
0.151689284005875,2618.99453403186
0.169912492113218,2619.00453403186
0.18359460723911,2619.01453403186
0.193196729298823,2619.02453403186
0.199605633055774,2619.03453403186
0.203407206266047,2619.04453403186
0.205607458647513,2619.05453403186
0.206602601757606,2619.06453403186
0.207196740514393,2619.07453403186
0.207596294632707,2619.08453403186
0.207756243258078,2619.09453403186
0.207724308331496,2619.10453403186
0.207513889443409,2619.11453403186
0.207093898568577,2619.12453403186
0.20621578562043,2619.13453403186
0.204390557917713,2619.14453403186
0.201496581835386,2619.15453403186
0.197691535985341,2619.16453403186
0.192451855882316,2619.17453403186
0.186664405906334,2619.18453403186
0.180377956178322,2619.19453403186
0.17453921223734,2619.20453403186
0.169675662041794,2619.21453403186
0.166341586549694,2619.22453403186
0.164176706669793,2619.23453403186
0.163624783693582,2619.24453403186
0.1644883130005,2619.25453403186
0.165343097178392,2619.26453403186
0.166703692315176,2619.27453403186
0.168329085445537,2619.28453403186
0.170234206949272,2619.29453403186
0.171134848520522,2619.30453403186
0.171125174532256,2619.31453403186
0.170364953017987,2619.32453403186
0.168942955866984,2619.33453403186
0.167189007099915,2619.34453403186
0.164744623999086,2619.35453403186
0.161304050977405,2619.36453403186
0.157348708961102,2619.37453403186
0.152970845208723,2619.38453403186
0.148326420719316,2619.39453403186
0.143681918989357,2619.40453403186
0.138723088441237,2619.41453403186
0.133494948538423,2619.42453403186
0.126757141846123,2619.43453403186
0.120074886336354,2619.44453403186
0.112522388409147,2619.45453403186
0.104957252942337,2619.46453403186
0.0972753009192967,2619.47453403186
0.0895022461810248,2619.48453403186
0.0820732065710326,2619.49453403186
0.0749783331282696,2619.50453403186
0.068019453330984,2619.51453403186
0.0613848997632907,2619.52453403186
0.0542523052943998,2619.53453403186
0.0467812379799546,2619.54453403186
0.0396682062465483,2619.55453403186
0.0325630176420017,2619.56453403186
0.0263632539520432,2619.57453403186
0.0199646613374135,2619.58453403186
0.0135829827596142,2619.59453403186
0.00668113931896467,2619.60453403186
-0.000332802366267023,2619.61453403186
-0.00726265516344468,2619.62453403186
-0.0138442065958353,2619.63453403186
-0.018043774914264,2619.64453403186
-0.0187246802267215,2619.65453403186
-0.0138794479367662,2619.66453403186
-0.00204234503487165,2619.67453403186
0.0169419472908086,2619.68453403186
0.0418219360317556,2619.69453403186
0.0706836589354153,2619.70453403186
0.101628290224737,2619.71453403186
0.132541014679267,2619.72453403186
0.161552301358135,2619.73453403186
0.187539433566678,2619.74453403186
0.209514954982405,2619.75453403186
0.227146574665232,2619.76453403186
0.240433231316798,2619.77453403186
0.249924705466682,2619.78453403186
0.256215253713171,2619.79453403186
0.260885774058077,2619.80453403186
0.264080267778818,2619.81453403186
0.266798989124894,2619.82453403186
0.268653044802091,2619.83453403186
0.269933534369935,2619.84453403186
0.271211002445282,2619.85453403186
0.271803873425168,2619.86453403186
0.272356623340055,2619.87453403186
0.272323956769543,2619.88453403186
0.271967449443435,2619.89453403186
0.270957172149079,2619.90453403186
0.269080141062667,2619.91453403186
0.266051548651174,2619.92453403186
0.262880555602514,2619.93453403186
0.258845113807761,2619.94453403186
0.254189458153732,2619.95453403186
0.249684030589503,2619.96453403186
0.245868024654755,2619.97453403186
0.242734841302406,2619.98453403186
0.240261881202688,2619.99453403186
0.238421828812807,2620.00453403186
0.237530428349341,2620.01453403186
0.237372834817844,2620.02453403186
0.237957892297925,2620.03453403186
0.239037842825544,2620.04453403186
0.240131490569783,2620.05453403186
0.240894066808127,2620.06453403186
0.240652681791139,2620.07453403186
0.239083860267103,2620.08453403186
0.236450099773525,2620.09453403186
0.233266612946997,2620.10453403186
0.229319266505481,2620.11453403186
0.225489963722689,2620.12453403186
0.22131215039286,2620.13453403186
0.217224558980852,2620.14453403186
0.212344970249306,2620.15453403186
0.207347741387471,2620.16453403186
0.201574932370313,2620.17453403186
0.194937229631057,2620.18453403186
0.188221763902785,2620.19453403186
0.181170082881596,2620.20453403186
0.174400053744497,2620.21453403186
0.16761932391143,2620.22453403186
0.161068298154155,2620.23453403186
0.154682509909057,2620.24453403186
0.148062097972057,2620.25453403186
0.141509446657491,2620.26453403186
0.134629930505919,2620.27453403186
0.127236115614786,2620.28453403186
0.119637480372731,2620.29453403186
0.111507105564281,2620.30453403186
0.10392806876379,2620.31453403186
0.096416136535397,2620.32453403186
0.0898613308138662,2620.33453403186
0.0850402690713435,2620.34453403186
0.0815124414586368,2620.35453403186
0.0794398776079142,2620.36453403186
0.0788914301993474,2620.37453403186
0.0798632473956761,2620.38453403186
0.0848221689641685,2620.39453403186
0.0947417372493879,2620.40453403186
0.111335630245302,2620.41453403186
0.1344721183913,2620.42453403186
0.163412375599316,2620.43453403186
0.196491073817862,2620.44453403186
0.231794958112494,2620.45453403186
0.266675577151398,2620.46453403186
0.299154765105178,2620.47453403186
0.32778890262211,2620.48453403186
0.351467257884891,2620.49453403186
0.370464429802401,2620.50453403186
0.384711207380527,2620.51453403186
0.395362266709541,2620.52453403186
0.402610124039702,2620.53453403186
0.407872195774159,2620.54453403186
0.412013797703971,2620.55453403186
0.415508305183805,2620.56453403186
0.419052276379169,2620.57453403186
0.421668558698464,2620.58453403186
0.423966615435395,2620.59453403186
0.425282192249885,2620.60453403186
0.426085895933004,2620.61453403186
0.425914010111072,2620.62453403186
0.424494593106168,2620.63453403186
0.42182112278648,2620.64453403186
0.41744008854816,2620.65453403186
0.412299610031885,2620.66453403186
0.405516306430085,2620.67453403186
0.398026143577349,2620.68453403186
0.390283616130596,2620.69453403186
0.382749120127235,2620.70453403186
0.376331442917657,2620.71453403186
0.370735309985774,2620.72453403186
0.36565580858228,2620.73453403186
0.361802215381475,2620.74453403186
0.358705180021484,2620.75453403186
0.356367677800888,2620.76453403186
0.35499981568707,2620.77453403186
0.354040589809911,2620.78453403186
0.353425302375672,2620.79453403186
0.352735981061471,2620.80453403186
0.352035166226347,2620.81453403186
0.350057970064748,2620.82453403186
0.346880740436092,2620.83453403186
0.342907418171451,2620.84453403186
0.337742238430129,2620.85453403186
0.331908870779607,2620.86453403186
0.325856034055203,2620.87453403186
0.319702352855546,2620.88453403186
0.313120259683269,2620.89453403186
0.306849944872552,2620.90453403186
0.30065556579318,2620.91453403186
0.294314473965732,2620.92453403186
0.287976304412622,2620.93453403186
0.281832104151548,2620.94453403186
0.275603601600022,2620.95453403186
0.269100870627988,2620.96453403186
0.26296122432438,2620.97453403186
0.257039543918508,2620.98453403186
0.251286872319672,2620.99453403186
0.244849167478286,2621.00453403186
0.238972213045521,2621.01453403186
0.233485200737405,2621.02453403186
0.228631769816758,2621.03453403186
0.224081198156998,2621.04453403186
0.21951208071474,2621.05453403186
0.215077743048215,2621.06453403186
0.209772567855396,2621.07453403186
0.203868549390067,2621.08453403186
0.197817062887671,2621.09453403186
0.19247222762954,2621.10453403186
0.188696556896261,2621.11453403186
0.187702399725664,2621.12453403186
0.191203849185231,2621.13453403186
0.200200834593806,2621.14453403186
0.215918249740962,2621.15453403186
0.237845350000431,2621.16453403186
0.264660286474242,2621.17453403186
0.295027887167924,2621.18453403186
0.327229840121864,2621.19453403186
0.357933366568311,2621.20453403186
0.386438740140588,2621.21453403186
0.41013600844317,2621.22453403186
0.428248192196582,2621.23453403186
0.441387656939138,2621.24453403186
0.449566517207593,2621.25453403186
0.454425874070489,2621.26453403186
0.456118189830289,2621.27453403186
0.455837714531932,2621.28453403186
0.455019313717455,2621.29453403186
0.454530010704629,2621.30453403186
0.455070980106918,2621.31453403186
0.457634274949138,2621.32453403186
0.46145362987294,2621.33453403186
0.464995381578938,2621.34453403186
0.467585996887359,2621.35453403186
0.467938224113689,2621.36453403186
0.465667488015129,2621.37453403186
0.461580956967091,2621.38453403186
0.455823208698067,2621.39453403186
0.44962984638694,2621.40453403186
0.443680288305555,2621.41453403186
0.438203697514296,2621.42453403186
0.433425891575202,2621.43453403186
0.429656710395274,2621.44453403186
0.426325503476164,2621.45453403186
0.424303715225601,2621.46453403186
0.423177842739185,2621.47453403186
0.422269400031963,2621.48453403186
0.421785567071025,2621.49453403186
0.422178486678706,2621.50453403186
0.422740668060004,2621.51453403186
0.423862820323106,2621.52453403186
0.424684153200434,2621.53453403186
0.424408018134185,2621.54453403186
0.423334004659021,2621.55453403186
0.421405075788784,2621.56453403186
0.418230951142633,2621.57453403186
0.414755104722179,2621.58453403186
0.410737238133994,2621.59453403186
0.406357976473079,2621.60453403186
0.401832715471256,2621.61453403186
0.396993415276075,2621.62453403186
0.391246420320027,2621.63453403186
0.384460258575666,2621.64453403186
0.376709421291953,2621.65453403186
0.368544463681573,2621.66453403186
0.360264057894881,2621.67453403186
0.352195739024166,2621.68453403186
0.344649317478791,2621.69453403186
0.336400219407305,2621.70453403186
0.32854376334999,2621.71453403186
0.32132336491168,2621.72453403186
0.31502921690902,2621.73453403186
0.309207451045244,2621.74453403186
0.303388230224249,2621.75453403186
0.297851689312443,2621.76453403186
0.291983466136155,2621.77453403186
0.28549212237202,2621.78453403186
0.278386675879713,2621.79453403186
0.27114040333587,2621.80453403186
0.263555540127862,2621.81453403186
0.256400343363105,2621.82453403186
0.249396883166189,2621.83453403186
0.245256853253947,2621.84453403186
0.244999764155897,2621.85453403186
0.250043170985733,2621.86453403186
0.26134614934946,2621.87453403186
0.278627518395335,2621.88453403186
0.300684820388585,2621.89453403186
0.325783891511228,2621.90453403186
0.351340293654717,2621.91453403186
0.3757252636146,2621.92453403186
0.398148650595766,2621.93453403186
0.416385717390997,2621.94453403186
0.430495636285978,2621.95453403186
0.440237173824992,2621.96453403186
0.44532686724937,2621.97453403186
0.446444642682191,2621.98453403186
0.444839659461545,2621.99453403186
0.441219842383947,2622.00453403186
0.436387872436461,2622.01453403186
0.430710900860826,2622.02453403186
0.424532512740579,2622.03453403186
0.417884150743886,2622.04453403186
0.411339341472706,2622.05453403186
0.405112015542697,2622.06453403186
0.39854791159701,2622.07453403186
0.391659613812738,2622.08453403186
0.384712140253047,2622.09453403186
0.376951533079928,2622.10453403186
0.368802172018125,2622.11453403186
0.359724637316426,2622.12453403186
0.350322328113166,2622.13453403186
0.340436689404408,2622.14453403186
0.330430301722709,2622.15453403186
0.320088821337232,2622.16453403186
0.309633382842997,2622.17453403186
0.299813289920837,2622.18453403186
0.291961745328206,2622.19453403186
0.286616082705428,2622.20453403186
0.284171568377858,2622.21453403186
0.284303931694398,2622.22453403186
0.284970312106031,2622.23453403186
0.285513948290651,2622.24453403186
0.2854550556207,2622.25453403186
0.284175501696054,2622.26453403186
0.282565997023958,2622.27453403186
0.279945674086073,2622.28453403186
0.27713229821181,2622.29453403186
0.27361293771956,2622.30453403186
0.270005084670624,2622.31453403186
0.266144654650159,2622.32453403186
0.261888905759588,2622.33453403186
0.256348894760305,2622.34453403186
0.250407926907856,2622.35453403186
0.244119260345443,2622.36453403186
0.238738210090112,2622.37453403186
0.235904004105183,2622.38453403186
0.234333288833979,2622.39453403186
0.231550455756977,2622.40453403186
0.224288172223515,2622.41453403186
0.211039415629717,2622.42453403186
0.190846127307491,2622.43453403186
0.165656365086576,2622.44453403186
0.138850384975516,2622.45453403186
0.112495323469994,2622.46453403186
0.0899329472173021,2622.47453403186
0.0728186918610096,2622.48453403186
0.0602046722825642,2622.49453403186
0.0510661271043822,2622.50453403186
0.0428221300059328,2622.51453403186
0.0359290276590054,2622.52453403186
0.0298776241484042,2622.53453403186
0.0259553748884113,2622.54453403186
0.0252537859845695,2622.55453403186
0.0269796055486163,2622.56453403186
0.0293396591518249,2622.57453403186
0.0305699249639222,2622.58453403186
0.0292086411667025,2622.59453403186
0.0261285354315182,2622.60453403186
0.0245874425566292,2622.61453403186
0.0269310514889355,2622.62453403186
0.0358980556619582,2622.63453403186
0.0519380430603448,2622.64453403186
0.0745244052307169,2622.65453403186
0.102237638593585,2622.66453403186
0.132972346237561,2622.67453403186
0.164845286955724,2622.68453403186
0.195371731335035,2622.69453403186
0.222888666146191,2622.70453403186
0.246368687633382,2622.71453403186
0.265026855486768,2622.72453403186
0.278767223692867,2622.73453403186
0.287563731731637,2622.74453403186
0.292475717341816,2622.75453403186
0.293896317854778,2622.76453403186
0.293386235976564,2622.77453403186
0.292466580233671,2622.78453403186
0.291292097720564,2622.79453403186
0.290988209025221,2622.80453403186
0.29124504439172,2622.81453403186
0.291656359154144,2622.82453403186
0.292336446253519,2622.83453403186
0.292581516451366,2622.84453403186
0.292332681431526,2622.85453403186
0.290937199874594,2622.86453403186
0.287759238776033,2622.87453403186
0.283562096156005,2622.88453403186
0.278568230566141,2622.89453403186
0.272656526635752,2622.90453403186
0.266628234519234,2622.91453403186
0.260943479133629,2622.92453403186
0.255791905575442,2622.93453403186
0.251360695418786,2622.94453403186
0.247909760013684,2622.95453403186
0.246268016273973,2622.96453403186
0.246180893010308,2622.97453403186
0.247192897297091,2622.98453403186
0.248934385059457,2622.99453403186
0.250967307370907,2623.00453403186
0.252314632933948,2623.01453403186
0.252744396535543,2623.02453403186
0.252749666507883,2623.03453403186
0.252084958007013,2623.04453403186
0.250449648540644,2623.05453403186
0.248348010288102,2623.06453403186
0.245469816069811,2623.07453403186
0.242572191036725,2623.08453403186
0.238708631980793,2623.09453403186
0.234102872624001,2623.10453403186
0.22932000622746,2623.11453403186
0.224757110861311,2623.12453403186
0.220620979544994,2623.13453403186
0.216373602254077,2623.14453403186
0.211817369703247,2623.15453403186
0.207111386843695,2623.16453403186
0.201665814893029,2623.17453403186
0.196122681638039,2623.18453403186
0.189978720244348,2623.19453403186
0.183896494232922,2623.20453403186
0.178231582509269,2623.21453403186
0.173100820332042,2623.22453403186
0.168371680659695,2623.23453403186
0.164085090032707,2623.24453403186
0.159820124050384,2623.25453403186
0.154605544016232,2623.26453403186
0.149235884871877,2623.27453403186
0.143708898466424,2623.28453403186
0.137634765094865,2623.29453403186
0.131491330349169,2623.30453403186
0.124607607770191,2623.31453403186
0.118001787727986,2623.32453403186
0.110971968273396,2623.33453403186
0.104588554500512,2623.34453403186
0.0987520635474725,2623.35453403186
0.0933393753931387,2623.36453403186
0.0877427874111354,2623.37453403186
0.0819580953638046,2623.38453403186
0.0751339022027867,2623.39453403186
0.067438360686066,2623.40453403186
0.0593123186311844,2623.41453403186
0.0527302747898855,2623.42453403186
0.0487847744011616,2623.43453403186
0.0492920685761845,2623.44453403186
0.0559312377374846,2623.45453403186
0.0684751740876483,2623.46453403186
0.0864547287961842,2623.47453403186
0.109351738617049,2623.48453403186
0.135108900809788,2623.49453403186
0.16197703086824,2623.50453403186
0.18800632676531,2623.51453403186
0.211002263578816,2623.52453403186
0.230047533039687,2623.53453403186
0.245326408374227,2623.54453403186
0.256455596312135,2623.55453403186
0.264514385511448,2623.56453403186
0.269444011307747,2623.57453403186
0.272570593674729,2623.58453403186
0.274538445682556,2623.59453403186
0.275314594775756,2623.60453403186
0.275108738434769,2623.61453403186
0.273868864056724,2623.62453403186
0.271953286577689,2623.63453403186
0.269980062974591,2623.64453403186
0.267558831172016,2623.65453403186
0.265702430820041,2623.66453403186
0.263596928571389,2623.67453403186
0.260473252865664,2623.68453403186
0.257031845676295,2623.69453403186
0.253052461424469,2623.70453403186
0.248172553830799,2623.71453403186
0.243260536629346,2623.72453403186
0.237610765892624,2623.73453403186
0.231757783794956,2623.74453403186
0.226602877549742,2623.75453403186
0.222683741277162,2623.76453403186
0.219853285811069,2623.77453403186
0.217847161261323,2623.78453403186
0.217243211892267,2623.79453403186
0.216946094999703,2623.80453403186
0.217756762342284,2623.81453403186
0.218539598023764,2623.82453403186
0.219395807116516,2623.83453403186
0.218923263874327,2623.84453403186
0.218389912680505,2623.85453403186
0.216637222259206,2623.86453403186
0.21384936023354,2623.87453403186
0.210187481851861,2623.88453403186
0.205448499631993,2623.89453403186
0.199959310539027,2623.90453403186
0.194539188252438,2623.91453403186
0.189221671029466,2623.92453403186
0.184237133119836,2623.93453403186
0.179190137131793,2623.94453403186
0.174461036766145,2623.95453403186
0.169525359323087,2623.96453403186
0.163163604686533,2623.97453403186
0.156376999174697,2623.98453403186
0.14930968488271,2623.99453403186
0.142336911731898,2624.00453403186
0.135382963551497,2624.01453403186
0.128736640722579,2624.02453403186
0.121976098332712,2624.03453403186
0.114920474935728,2624.04453403186
0.108456838094962,2624.05453403186
0.101971183606718,2624.06453403186
0.0956025781577864,2624.07453403186
0.0894495680493684,2624.08453403186
0.0834954115004714,2624.09453403186
0.0768983124169319,2624.10453403186
0.0691912022904757,2624.11453403186
0.0609373036205754,2624.12453403186
0.053099853736189,2624.13453403186
0.0448771152603041,2624.14453403186
0.0367993979389548,2624.15453403186
0.0293495298238395,2624.16453403186
0.0222479187971137,2624.17453403186
0.0154943854326917,2624.18453403186
0.00880318874355717,2624.19453403186
0.00217668972690863,2624.20453403186
-0.00433713998029006,2624.21453403186
-0.0114143333820586,2624.22453403186
-0.0185842282853379,2624.23453403186
-0.0260832023212891,2624.24453403186
-0.0334062793119938,2624.25453403186
-0.0406609400306601,2624.26453403186
-0.0479374699714076,2624.27453403186
-0.0548459336104392,2624.28453403186
-0.0600109176772817,2624.29453403186
-0.0623684452631601,2624.30453403186
-0.06015233661514,2624.31453403186
-0.0516970416519279,2624.32453403186
-0.0374420693624861,2624.33453403186
-0.0177631303206479,2624.34453403186
0.00564521889900466,2624.35453403186
0.0317750009362925,2624.36453403186
0.0591139498934135,2624.37453403186
0.0846560418312502,2624.38453403186
0.108028683167906,2624.39453403186
0.128230124950713,2624.40453403186
0.144153278881255,2624.41453403186
0.156620306296369,2624.42453403186
0.165118733885969,2624.43453403186
0.169834871876523,2624.44453403186
0.17242612682527,2624.45453403186
0.172765937124712,2624.46453403186
0.172735015966932,2624.47453403186
0.172017572270994,2624.48453403186
0.171408564160263,2624.49453403186
0.170607340856993,2624.50453403186
0.170798587949676,2624.51453403186
0.171246362194542,2624.52453403186
0.171437192964134,2624.53453403186
0.171281777831959,2624.54453403186
0.169981277106482,2624.55453403186
0.167908531192186,2624.56453403186
0.164269248836923,2624.57453403186
0.159634603668918,2624.58453403186
0.15423668197782,2624.59453403186
0.148685487533567,2624.60453403186
0.143572904169426,2624.61453403186
0.138960721797897,2624.62453403186
0.134697336717523,2624.63453403186
0.130959612412913,2624.64453403186
0.128284515721991,2624.65453403186
0.126410250479647,2624.66453403186
0.126060673367224,2624.67453403186
0.127017439232485,2624.68453403186
0.128505031070876,2624.69453403186
0.130431863203519,2624.70453403186
0.131655082480968,2624.71453403186
0.131396363042191,2624.72453403186
0.13018435972167,2624.73453403186
0.127827060835592,2624.74453403186
0.124376376376696,2624.75453403186
0.120177919007231,2624.76453403186
0.115619971754983,2624.77453403186
0.111218221553987,2624.78453403186
0.106734447796025,2624.79453403186
0.10194709105435,2624.80453403186
0.0971042122332639,2624.81453403186
0.0922057042979056,2624.82453403186
0.0870913694165205,2624.83453403186
0.0816024652779835,2624.84453403186
0.0753166514539927,2624.85453403186
0.0688108399579033,2624.86453403186
0.0621912728770904,2624.87453403186
0.0556864395338388,2624.88453403186
0.0489091100190442,2624.89453403186
0.042197943547486,2624.90453403186
0.0355621394512935,2624.91453403186
0.0284897879622156,2624.92453403186
0.0213873609523538,2624.93453403186
0.0142701981664684,2624.94453403186
0.00749341358008775,2624.95453403186
0.000674413411445643,2624.96453403186
-0.00590180720481715,2624.97453403186
-0.01225332241868,2624.98453403186
-0.0187866717576602,2624.99453403186
-0.0253729716194603,2625.00453403186
-0.032577206900068,2625.01453403186
-0.0394712614806045,2625.02453403186
-0.0458449714660201,2625.03453403186
-0.0521854677887678,2625.04453403186
-0.0591433450906537,2625.05453403186
-0.0661194042448559,2625.06453403186
-0.0734333514586484,2625.07453403186
-0.0810082118592197,2625.08453403186
-0.0883055585181575,2625.09453403186
-0.0959754136281354,2625.10453403186
-0.103606565645796,2625.11453403186
-0.110844590317054,2625.12453403186
-0.118177597472734,2625.13453403186
-0.125113685496481,2625.14453403186
-0.131961267172936,2625.15453403186
-0.13890413667434,2625.16453403186
-0.146188914386544,2625.17453403186
-0.153206492545941,2625.18453403186
-0.160311454708716,2625.19453403186
-0.165795949121972,2625.20453403186
-0.168413733375778,2625.21453403186
-0.166285818147874,2625.22453403186
-0.158789076419805,2625.23453403186
-0.144632210950889,2625.24453403186
-0.124176601625442,2625.25453403186
-0.0989783684569858,2625.26453403186
-0.0717118195318031,2625.27453403186
-0.0446834142570192,2625.28453403186
-0.01951590400209,2625.29453403186
0.00189369048802514,2625.30453403186
0.0192172741782055,2625.31453403186
0.0316946544944249,2625.32453403186
0.0399020732075927,2625.33453403186
0.0449779118812697,2625.34453403186
0.048217510610758,2625.35453403186
0.0497564796900851,2625.36453403186
0.0504356548285276,2625.37453403186
0.0503366086908931,2625.38453403186
0.0497367072872345,2625.39453403186
0.0486722891584633,2625.40453403186
0.0473849897642922,2625.41453403186
0.0458944408484782,2625.42453403186
0.0434523829045484,2625.43453403186
0.0407726111615666,2625.44453403186
0.0375305050722933,2625.45453403186
0.0339593759592488,2625.46453403186
0.0300809744752164,2625.47453403186
0.0259390440433312,2625.48453403186
0.0209591809399097,2625.49453403186
0.0158032511254751,2625.50453403186
0.0106472927190167,2625.51453403186
0.00599397529699314,2625.52453403186
0.00139722164542673,2625.53453403186
-0.00239645809375579,2625.54453403186
-0.00576636449284732,2625.55453403186
-0.00781319640879163,2625.56453403186
-0.00851753493304263,2625.57453403186
-0.00726351823935065,2625.58453403186
-0.00506209023603261,2625.59453403186
-0.00297044225791358,2625.60453403186
-0.00026624632057175,2625.61453403186
0.00192775673842289,2625.62453403186
0.00304352851318725,2625.63453403186
0.00319222650960322,2625.64453403186
0.00195546163351794,2625.65453403186
-1.66015614272637e-05,2625.66453403186
-0.00237507297158841,2625.67453403186
-0.00528963843118651,2625.68453403186
-0.00871470404739749,2625.69453403186
-0.0124069082197899,2625.70453403186
-0.0159197803931331,2625.71453403186
-0.0202698670559651,2625.72453403186
-0.0243907969956475,2625.73453403186
-0.0286324197158562,2625.74453403186
-0.0328627183925037,2625.75453403186
-0.0376440393400593,2625.76453403186
-0.0430536397639559,2625.77453403186
-0.0485356271768928,2625.78453403186
-0.0537576797876734,2625.79453403186
-0.0583096266614327,2625.80453403186
-0.0615667400683094,2625.81453403186
-0.0645260135956983,2625.82453403186
-0.0679204989727818,2625.83453403186
-0.0714328776644987,2625.84453403186
-0.0757739112239837,2625.85453403186
-0.0807287788559845,2625.86453403186
-0.0855689378159656,2625.87453403186
-0.0903836716551345,2625.88453403186
-0.0955744820471663,2625.89453403186
-0.100810975010102,2625.90453403186
-0.106315244199826,2625.91453403186
-0.112216360016898,2625.92453403186
-0.118088833043918,2625.93453403186
-0.123559830084951,2625.94453403186
-0.129200997793929,2625.95453403186
-0.134539311430214,2625.96453403186
-0.140054402954801,2625.97453403186
-0.145725091633133,2625.98453403186
-0.151565931398787,2625.99453403186
-0.157620623555207,2626.00453403186
-0.163643282046348,2626.01453403186
-0.169838101342194,2626.02453403186
-0.17577642724634,2626.03453403186
-0.182195014980613,2626.04453403186
-0.188593688786135,2626.05453403186
-0.195517033598499,2626.06453403186
-0.202050749598036,2626.07453403186
-0.207059707695571,2626.08453403186
-0.209269946169421,2626.09453403186
-0.207135854375754,2626.10453403186
-0.19976349239345,2626.11453403186
-0.18647890315109,2626.12453403186
-0.167700644797618,2626.13453403186
-0.144401851501827,2626.14453403186
-0.118620433925492,2626.15453403186
-0.0918025708299659,2626.16453403186
-0.066291875719897,2626.17453403186
-0.0432493064561452,2626.18453403186
-0.0240438003155199,2626.19453403186
-0.00814707722602146,2626.20453403186
0.00430549903962749,2626.21453403186
0.0137383155962178,2626.22453403186
0.0204386366664613,2626.23453403186
0.0253702908716249,2626.24453403186
0.0279744523512347,2626.25453403186
0.0285800466669685,2626.26453403186
0.0278567202207871,2626.27453403186
0.0261623936973307,2626.28453403186
0.0243170900288442,2626.29453403186
0.0225847524294835,2626.30453403186
0.0212309950500347,2626.31453403186
0.0197441060749204,2626.32453403186
0.0181712719532116,2626.33453403186
0.0163495893636644,2626.34453403186
0.0137312530665119,2626.35453403186
0.0102111937893046,2626.36453403186
0.00584930001748297,2626.37453403186
0.00124685988265658,2626.38453403186
-0.00301349094470084,2626.39453403186
-0.00685586132669572,2626.40453403186
-0.0102206221279631,2626.41453403186
-0.0128439021195311,2626.42453403186
-0.013959156261435,2626.43453403186
-0.013962445183058,2626.44453403186
-0.013653033136112,2626.45453403186
-0.012689007062907,2626.46453403186
-0.0111625539650155,2626.47453403186
-0.00957400582095225,2626.48453403186
-0.00718755694677974,2626.49453403186
-0.0045432155308597,2626.50453403186
-0.00266086955378378,2626.51453403186
-0.00148055243817803,2626.52453403186
-0.00135983364452393,2626.53453403186
-0.00209414962989598,2626.54453403186
-0.00325846134087396,2626.55453403186
-0.00502118953914093,2626.56453403186
-0.00701436061291434,2626.57453403186
-0.0087865177647743,2626.58453403186
-0.0113364180732134,2626.59453403186
-0.0144216624266831,2626.60453403186
-0.0180327241479725,2626.61453403186
-0.022272963717445,2626.62453403186
-0.0264030904932164,2626.63453403186
-0.0312128933611926,2626.64453403186
-0.036072563801178,2626.65453403186
-0.0409995004190829,2626.66453403186
-0.0462813436735278,2626.67453403186
-0.0511629916065363,2626.68453403186
-0.0557087586278303,2626.69453403186
-0.0604661355721003,2626.70453403186
-0.0647408621956132,2626.71453403186
-0.0691873216086833,2626.72453403186
-0.0738343718066187,2626.73453403186
-0.0781103269144607,2626.74453403186
-0.082522925701782,2626.75453403186
-0.0871003142718009,2626.76453403186
-0.0918555089242373,2626.77453403186
-0.0972126226758104,2626.78453403186
-0.102741679182047,2626.79453403186
-0.108328690676825,2626.80453403186
-0.113839356931958,2626.81453403186
-0.119446055665954,2626.82453403186
-0.124562283869491,2626.83453403186
-0.130134028173585,2626.84453403186
-0.13573054746839,2626.85453403186
-0.141522167719049,2626.86453403186
-0.147632390041027,2626.87453403186
-0.153953174113385,2626.88453403186
-0.16061630969683,2626.89453403186
-0.166748761329023,2626.90453403186
-0.172775925709694,2626.91453403186
-0.178836275039246,2626.92453403186
-0.185170667720781,2626.93453403186
-0.191410622028122,2626.94453403186
-0.197290191859116,2626.95453403186
-0.203080500051046,2626.96453403186
-0.207743781050308,2626.97453403186
-0.209768883642198,2626.98453403186
-0.208507066121869,2626.99453403186
-0.201510366729214,2627.00453403186
-0.18829775959405,2627.01453403186
-0.169454237546067,2627.02453403186
-0.145275113110222,2627.03453403186
-0.117511456965904,2627.04453403186
-0.0876847098269956,2627.05453403186
-0.0574293768567787,2627.06453403186
-0.0287513887853769,2627.07453403186
-0.00319057789153243,2627.08453403186
0.0183727515818339,2627.09453403186
0.036322193030538,2627.10453403186
0.0503765244256208,2627.11453403186
0.0610140336454182,2627.12453403186
0.0683723471780651,2627.13453403186
0.073969211112504,2627.14453403186
0.0778702175226696,2627.15453403186
0.0809535552482259,2627.16453403186
0.0838009137942022,2627.17453403186
0.0857256613779038,2627.18453403186
0.0873462659692056,2627.19453403186
0.0886362617542302,2627.20453403186
0.0896995724776368,2627.21453403186
0.0904532604283027,2627.22453403186
0.0905834962801203,2627.23453403186
0.0897757862945781,2627.24453403186
0.0878325685870778,2627.25453403186
0.0848396735587437,2627.26453403186
0.081567678503358,2627.27453403186
0.0782668081308035,2627.28453403186
0.0744400412800271,2627.29453403186
0.0705747538255949,2627.30453403186
0.0672293957244509,2627.31453403186
0.0642023940775566,2627.32453403186
0.0619284980031714,2627.33453403186
0.0608437461320076,2627.34453403186
0.0607772838084269,2627.35453403186
0.0617585200944836,2627.36453403186
0.0636722731440896,2627.37453403186
0.0660682232476859,2627.38453403186
0.0686350776402366,2627.39453403186
0.0712103896342092,2627.40453403186
0.073457259356652,2627.41453403186
0.0750847552899652,2627.42453403186
0.0760990743584743,2627.43453403186
0.0762344917326993,2627.44453403186
0.0759316418674039,2627.45453403186
0.0751116269228596,2627.46453403186
0.0732494343514439,2627.47453403186
0.0705775416307919,2627.48453403186
0.068099308475035,2627.49453403186
0.0644624225227047,2627.50453403186
0.06044044827033,2627.51453403186
0.0565121260028081,2627.52453403186
0.0526445554229587,2627.53453403186
0.0483803242298583,2627.54453403186
0.0446973947575199,2627.55453403186
0.0413384848423711,2627.56453403186
0.0376539945688838,2627.57453403186
0.0336910701376612,2627.58453403186
0.0288592259623871,2627.59453403186
0.0234143758692778,2627.60453403186
0.0173915348397868,2627.61453403186
0.0116806127252134,2627.62453403186
0.00621757677581122,2627.63453403186
0.00128427008593155,2627.64453403186
-0.00312112447475474,2627.65453403186
-0.00750623078698286,2627.66453403186
-0.0120821431063049,2627.67453403186
-0.016475689004646,2627.68453403186
-0.0213324384419126,2627.69453403186
-0.0269000516898933,2627.70453403186
-0.0326397535825052,2627.71453403186
-0.0392062754533713,2627.72453403186
-0.045361675521045,2627.73453403186
-0.0511571170097008,2627.74453403186
-0.0567328680777195,2627.75453403186
-0.0624388694470983,2627.76453403186
-0.068376633954427,2627.77453403186
-0.0743795633415997,2627.78453403186
-0.0805517749413445,2627.79453403186
-0.0863757703555531,2627.80453403186
-0.0925145787669283,2627.81453403186
-0.0987105729733159,2627.82453403186
-0.104860179558483,2627.83453403186
-0.111032335814165,2627.84453403186
-0.11738729847051,2627.85453403186
-0.123845928848925,2627.86453403186
-0.13028139472923,2627.87453403186
-0.136661153601276,2627.88453403186
-0.142590269564862,2627.89453403186
-0.148778143583491,2627.90453403186
-0.154216108037777,2627.91453403186
-0.15825304841373,2627.92453403186
-0.15973400719633,2627.93453403186
-0.15707391074114,2627.94453403186
-0.148798082269912,2627.95453403186
-0.133993913822251,2627.96453403186
-0.111970673892619,2627.97453403186
-0.0840708475337458,2627.98453403186
-0.0518102994412142,2627.99453403186
-0.0185608488988069,2628.00453403186
0.0141976842235112,2628.01453403186
0.0449700581162718,2628.02453403186
0.0721996802014774,2628.03453403186
0.0954872287807,2628.04453403186
0.11523065208772,2628.05453403186
0.13146476131567,2628.06453403186
0.143772019743728,2628.07453403186
0.152845504070219,2628.08453403186
0.159405407667454,2628.09453403186
0.163724035684132,2628.10453403186
0.166240456963781,2628.11453403186
0.167160997825435,2628.12453403186
0.167714263576584,2628.13453403186
0.167864012626331,2628.14453403186
0.167194445438504,2628.15453403186
0.166940396016882,2628.16453403186
0.166211761042519,2628.17453403186
0.164757847798563,2628.18453403186
0.162568382971316,2628.19453403186
0.159324237981832,2628.20453403186
0.154697082822151,2628.21453403186
0.150075019751315,2628.22453403186
0.145447446337174,2628.23453403186
0.140753867087691,2628.24453403186
0.135987794571939,2628.25453403186
0.131126695214982,2628.26453403186
0.126362953876025,2628.27453403186
0.122706818527256,2628.28453403186
0.119726704703055,2628.29453403186
0.118579964730157,2628.30453403186
0.11932717242948,2628.31453403186
0.120649604598737,2628.32453403186
0.123367909130446,2628.33453403186
0.126674240594571,2628.34453403186
0.129930901851738,2628.35453403186
0.132592007173616,2628.36453403186
0.134470613108159,2628.37453403186
0.135496997049862,2628.38453403186
0.135470661651771,2628.39453403186
0.134360970029211,2628.40453403186
0.13307430857572,2628.41453403186
0.131363623541512,2628.42453403186
0.129256298874545,2628.43453403186
0.126500364580717,2628.44453403186
0.123405824267309,2628.45453403186
0.119760254614151,2628.46453403186
0.115905797669792,2628.47453403186
0.111652744981517,2628.48453403186
0.107464757395321,2628.49453403186
0.102610663048944,2628.50453403186
0.0970267310905025,2628.51453403186
0.0911325889536279,2628.52453403186
0.0850223737296328,2628.53453403186
0.0796002288670974,2628.54453403186
0.0743046008516528,2628.55453403186
0.0692523091403066,2628.56453403186
0.0638811951207318,2628.57453403186
0.0580892168226357,2628.58453403186
0.0521611809834913,2628.59453403186
0.045712189004748,2628.60453403186
0.0389305422841009,2628.61453403186
0.0320895177671496,2628.62453403186
0.025752469976435,2628.63453403186
0.0194521099529602,2628.64453403186
0.013983890786523,2628.65453403186
0.00850107419285871,2628.66453403186
0.00245015213968828,2628.67453403186
-0.00309415937073212,2628.68453403186
-0.00877787490249697,2628.69453403186
-0.0142854069762928,2628.70453403186
-0.0196122569535857,2628.71453403186
-0.0251137809836315,2628.72453403186
-0.0311214605736159,2628.73453403186
-0.0373689408511457,2628.74453403186
-0.0437316884877478,2628.75453403186
-0.0500329013903355,2628.76453403186
-0.0563510530438531,2628.77453403186
-0.0626885732415734,2628.78453403186
-0.0689190801697666,2628.79453403186
-0.0759089506471037,2628.80453403186
-0.0830398671912741,2628.81453403186
-0.0904546280633589,2628.82453403186
-0.0977242536131332,2628.83453403186
-0.104114207098842,2628.84453403186
-0.108752775922624,2628.85453403186
-0.110485807048009,2628.86453403186
-0.108398522492537,2628.87453403186
-0.100451834816438,2628.88453403186
-0.0861646736736119,2628.89453403186
-0.0653286874384879,2628.90453403186
-0.0379340998024694,2628.91453403186
-0.00593582406392279,2628.92453403186
0.028726519355092,2628.93453403186
0.0640895026050876,2628.94453403186
0.0975710457487474,2628.95453403186
0.128240720931674,2628.96453403186
0.154728033975009,2628.97453403186
0.176247765619684,2628.98453403186
0.193090356111474,2628.99453403186
0.206046576689466,2629.00453403186
0.214933545658228,2629.01453403186
0.221418171971189,2629.02453403186
0.225907110666607,2629.03453403186
0.228922304271114,2629.04453403186
0.230910699958162,2629.05453403186
0.23146289619339,2629.06453403186
0.231043749261465,2629.07453403186
0.229669131148612,2629.08453403186
0.227232201081091,2629.09453403186
0.224098461612788,2629.10453403186
0.220260521864495,2629.11453403186
0.215380421211806,2629.12453403186
0.209916679305406,2629.13453403186
0.20385994361983,2629.14453403186
0.197239950363918,2629.15453403186
0.190303472117392,2629.16453403186
0.182936404385332,2629.17453403186
0.175756544649828,2629.18453403186
0.16956307110311,2629.19453403186
0.164309923208495,2629.20453403186
0.161411720702398,2629.21453403186
0.159742155517701,2629.22453403186
0.160096562313542,2629.23453403186
0.161615894412811,2629.24453403186
0.163660881402955,2629.25453403186
0.166047623867852,2629.26453403186
0.16865461209781,2629.27453403186
0.171147429214757,2629.28453403186
0.173021468395507,2629.29453403186
0.174142026053553,2629.30453403186
0.174014017759756,2629.31453403186
0.173150100044777,2629.32453403186
0.17136650029272,2629.33453403186
0.168511787276976,2629.34453403186
0.165186311010861,2629.35453403186
0.161999282551192,2629.36453403186
0.158514016652376,2629.37453403186
0.15529293722807,2629.38453403186
0.151547936300582,2629.39453403186
0.147734378389016,2629.40453403186
0.143601352836389,2629.41453403186
0.13883842278672,2629.42453403186
0.133614165618315,2629.43453403186
0.127895523127929,2629.44453403186
0.121586305657795,2629.45453403186
0.115231895456681,2629.46453403186
0.109548800693297,2629.47453403186
0.103831171258391,2629.48453403186
0.0978005739340989,2629.49453403186
0.0917002090438745,2629.50453403186
0.0854929700923858,2629.51453403186
0.0795446548547061,2629.52453403186
0.0733029451304916,2629.53453403186
0.0672698794269519,2629.54453403186
0.0611484100023129,2629.55453403186
0.0552407876402226,2629.56453403186
0.0492997103740849,2629.57453403186
0.0434087265078009,2629.58453403186
0.0369325728786779,2629.59453403186
0.0301718999917948,2629.60453403186
0.0235598625839259,2629.61453403186
0.0167077827691529,2629.62453403186
0.0100872061351085,2629.63453403186
0.00365443079109749,2629.64453403186
-0.00291097832425758,2629.65453403186
-0.00911987565153799,2629.66453403186
-0.0156953159143611,2629.67453403186
-0.0221087119836395,2629.68453403186
-0.0281413533834182,2629.69453403186
-0.034854651276035,2629.70453403186
-0.0414806010608712,2629.71453403186
-0.0486228832721716,2629.72453403186
-0.0551939206621048,2629.73453403186
-0.0607001594338379,2629.74453403186
-0.0638540301707574,2629.75453403186
-0.0626369721093877,2629.76453403186
-0.0550679855200333,2629.77453403186
-0.0396569915442014,2629.78453403186
-0.0158096836248601,2629.79453403186
0.0151116878631173,2629.80453403186
0.0520867320455979,2629.81453403186
0.0919941966291292,2629.82453403186
0.132023996716578,2629.83453403186
0.170041852986417,2629.84453403186
0.203668094489604,2629.85453403186
0.233009697447006,2629.86453403186
0.257120622024549,2629.87453403186
0.277280914366257,2629.88453403186
0.293515364021671,2629.89453403186
0.306307902814068,2629.90453403186
0.316716325379423,2629.91453403186
0.324090289576841,2629.92453403186
0.330041101124718,2629.93453403186
0.334385270193681,2629.94453403186
0.337249739678889,2629.95453403186
0.339087868494468,2629.96453403186
0.339898016347938,2629.97453403186
0.339979582261828,2629.98453403186
0.339497792551689,2629.99453403186
0.33886458647937,2630.00453403186
0.336476940473376,2630.01453403186
0.333403206632332,2630.02453403186
0.328644517965698,2630.03453403186
0.322838606989058,2630.04453403186
0.316331391873081,2630.05453403186
0.308523572780631,2630.06453403186
0.300157983073975,2630.07453403186
0.291707282787567,2630.08453403186
0.28396372552083,2630.09453403186
0.277641194499082,2630.10453403186
0.272797216455459,2630.11453403186
0.269739324445645,2630.12453403186
0.268550907920403,2630.13453403186
0.268320735126874,2630.14453403186
0.268914986095423,2630.15453403186
0.270171845443316,2630.16453403186
0.27141377952226,2630.17453403186
0.272284049726117,2630.18453403186
0.272876523040935,2630.19453403186
0.273029838901435,2630.20453403186
0.272167615233528,2630.21453403186
0.270667992738069,2630.22453403186
0.269071988974592,2630.23453403186
0.267182153774481,2630.24453403186
0.265474853801531,2630.25453403186
0.26389308055248,2630.26453403186
0.261475039753688,2630.27453403186
0.258541905389298,2630.28453403186
0.254490287360102,2630.29453403186
0.249913011057172,2630.30453403186
0.244845992120387,2630.31453403186
0.239721071981289,2630.32453403186
0.233737331311242,2630.33453403186
0.227365188010081,2630.34453403186
0.220524194769558,2630.35453403186
0.212986093492349,2630.36453403186
0.205302588867194,2630.37453403186
0.197642954520969,2630.38453403186
0.190229762984496,2630.39453403186
0.183407988978517,2630.40453403186
0.176602540996672,2630.41453403186
0.169888615778916,2630.42453403186
0.162729267428993,2630.43453403186
0.155061637496129,2630.44453403186
0.147386262178328,2630.45453403186
0.139651999548367,2630.46453403186
0.131886350742301,2630.47453403186
0.124280542901678,2630.48453403186
0.116594394903288,2630.49453403186
0.108484835822496,2630.50453403186
0.101078501592777,2630.51453403186
0.0937115018289781,2630.52453403186
0.086391139683683,2630.53453403186
0.0791173834594351,2630.54453403186
0.0714571978615863,2630.55453403186
0.0633816552599401,2630.56453403186
0.0556204159960491,2630.57453403186
0.0481767532570604,2630.58453403186
0.0401753749825272,2630.59453403186
0.0320695102209444,2630.60453403186
0.0240667708138785,2630.61453403186
0.0160714115464493,2630.62453403186
0.00903758250520969,2630.63453403186
0.00286855528873084,2630.64453403186
-0.002103514803338,2630.65453403186
-0.00363362321931259,2630.66453403186
-0.000577222073810404,2630.67453403186
0.0100573167424144,2630.68453403186
0.0288982791229257,2630.69453403186
0.0560986884195527,2630.70453403186
0.0906412879951886,2630.71453403186
0.130335152104849,2630.72453403186
0.17321708150102,2630.73453403186
0.215664567284002,2630.74453403186
0.25576231382433,2630.75453403186
0.292058089753904,2630.76453403186
0.323133809898138,2630.77453403186
0.34909549580734,2630.78453403186
0.370184708613732,2630.79453403186
0.386329847994391,2630.80453403186
0.39886443558114,2630.81453403186
0.407264063823329,2630.82453403186
0.413491712436994,2630.83453403186
0.417283110173165,2630.84453403186
0.419517108918221,2630.85453403186
0.420241694898534,2630.86453403186
0.419787539488384,2630.87453403186
0.418017621477357,2630.88453403186
0.415375505472611,2630.89453403186
0.411660104849668,2630.90453403186
0.406950233432698,2630.91453403186
0.401271925489072,2630.92453403186
0.394683540369547,2630.93453403186
0.386985430939026,2630.94453403186
0.378553016024001,2630.95453403186
0.36996779807439,2630.96453403186
0.361074804858094,2630.97453403186
0.352559973731008,2630.98453403186
0.343871510273754,2630.99453403186
0.335241782837198,2631.00453403186
0.327186460603141,2631.01453403186
0.320983624946345,2631.02453403186
0.316606582193032,2631.03453403186
0.31413612552918,2631.04453403186
0.31327959789766,2631.05453403186
0.313967179551544,2631.06453403186
0.315025257034971,2631.07453403186
0.316397896297991,2631.08453403186
0.317033529188718,2631.09453403186
0.317256013711457,2631.10453403186
0.315860129836298,2631.11453403186
0.313029547055526,2631.12453403186
0.309361109154477,2631.13453403186
0.3047476075867,2631.14453403186
0.299561364913348,2631.15453403186
0.294228613515346,2631.16453403186
0.287953264004634,2631.17453403186
0.281484277284443,2631.18453403186
0.274210051488228,2631.19453403186
0.267268884493753,2631.20453403186
0.260601823206239,2631.21453403186
0.253575606239438,2631.22453403186
0.24668595838066,2631.23453403186
0.239446185282412,2631.24453403186
0.23190622624781,2631.25453403186
0.224680532731614,2631.26453403186
0.216957030170342,2631.27453403186
0.210003192603801,2631.28453403186
0.202272198416612,2631.29453403186
0.194150804367137,2631.30453403186
0.186204815985775,2631.31453403186
0.178659554037411,2631.32453403186
0.171339484299285,2631.33453403186
0.164248688126853,2631.34453403186
0.157446643457111,2631.35453403186
0.150128214960543,2631.36453403186
0.142581220587884,2631.37453403186
0.135097694434332,2631.38453403186
0.127516908815539,2631.39453403186
0.11932041163488,2631.40453403186
0.1113197511267,2631.41453403186
0.103614091523644,2631.42453403186
0.0964024121337071,2631.43453403186
0.0892690561430002,2631.44453403186
0.0819583056670902,2631.45453403186
0.0742581702463772,2631.46453403186
0.0664316696265576,2631.47453403186
0.0585647621204893,2631.48453403186
0.0504902911153231,2631.49453403186
0.0425929957197819,2631.50453403186
0.0349501968127177,2631.51453403186
0.0277974370527921,2631.52453403186
0.0207158252533725,2631.53453403186
0.0137360655371149,2631.54453403186
0.00809171935279087,2631.55453403186
0.00507388351892292,2631.56453403186
0.00649330526406802,2631.57453403186
0.0144431015359622,2631.58453403186
0.0302245601042983,2631.59453403186
0.0541052286357599,2631.60453403186
0.0858498089286455,2631.61453403186
0.123192976504078,2631.62453403186
0.164524704452864,2631.63453403186
0.206418587507478,2631.64453403186
0.246445478130029,2631.65453403186
0.282424852574712,2631.66453403186
0.313150112505708,2631.67453403186
0.337888643992042,2631.68453403186
0.356729288390482,2631.69453403186
0.369909974484215,2631.70453403186
0.378535885985957,2631.71453403186
0.383689200217707,2631.72453403186
0.386348032851323,2631.73453403186
0.386804918834084,2631.74453403186
0.385521689216924,2631.75453403186
0.383318143552172,2631.76453403186
0.380123078538198,2631.77453403186
0.376111280041561,2631.78453403186
0.371300930484349,2631.79453403186
0.365729444604136,2631.80453403186
0.359551534890831,2631.81453403186
0.352492275348361,2631.82453403186
0.34451551236299,2631.83453403186
0.335843998898512,2631.84453403186
0.325502194191529,2631.85453403186
0.314498826175803,2631.86453403186
0.302551762271891,2631.87453403186
0.290678462644139,2631.88453403186
0.279944374807207,2631.89453403186
0.270466718805313,2631.90453403186
0.263441580680809,2631.91453403186
0.258608185836972,2631.92453403186
0.255408744337066,2631.93453403186
0.253724402596031,2631.94453403186
0.253970772186851,2631.95453403186
0.255201255133406,2631.96453403186
0.256484526944379,2631.97453403186
0.257801738476715,2631.98453403186
0.258437966969582,2631.99453403186
0.258630448876296,2632.00453403186
0.258299800428651,2632.01453403186
0.256585983972086,2632.02453403186
0.253539928400813,2632.03453403186
0.24936921539781,2632.04453403186
0.244841378164263,2632.05453403186
0.239485646894394,2632.06453403186
0.233738597993631,2632.07453403186
0.227415938110284,2632.08453403186
0.221023246194707,2632.09453403186
0.214505509206772,2632.10453403186
0.207652495906442,2632.11453403186
0.201643499531426,2632.12453403186
0.195261881217298,2632.13453403186
0.188961869402879,2632.14453403186
0.182539284539604,2632.15453403186
0.175228852956207,2632.16453403186
0.167079821441336,2632.17453403186
0.158149965908735,2632.18453403186
0.149130204891793,2632.19453403186
0.140154671032666,2632.20453403186
0.131266667295917,2632.21453403186
0.123221203697045,2632.22453403186
0.115427950674711,2632.23453403186
0.107568125200099,2632.24453403186
0.100155395647153,2632.25453403186
0.0923722963484962,2632.26453403186
0.0843874598667492,2632.27453403186
0.0769591182399069,2632.28453403186
0.0693934101814703,2632.29453403186
0.062319794917319,2632.30453403186
0.0547332829570619,2632.31453403186
0.0468659125801874,2632.32453403186
0.0388520958679158,2632.33453403186
0.0308518608046001,2632.34453403186
0.0228582582015455,2632.35453403186
0.0147886666984752,2632.36453403186
0.00641058007370057,2632.37453403186
-0.00216713986860981,2632.38453403186
-0.00997265355302796,2632.39453403186
-0.0183401122784047,2632.40453403186
-0.0255401030820362,2632.41453403186
-0.0322010903761062,2632.42453403186
-0.0378878887589537,2632.43453403186
-0.0406266176244135,2632.44453403186
-0.0382364927541104,2632.45453403186
-0.0297974802760236,2632.46453403186
-0.0139417102058607,2632.47453403186
0.00964323096765072,2632.48453403186
0.0396556928155474,2632.49453403186
0.0742933438551539,2632.50453403186
0.111084324993551,2632.51453403186
0.147925625826429,2632.52453403186
0.182589102443167,2632.53453403186
0.213363360724977,2632.54453403186
0.239337102284641,2632.55453403186
0.260219569055847,2632.56453403186
0.275811844645139,2632.57453403186
0.286901809843495,2632.58453403186
0.294243568341805,2632.59453403186
0.298723297064169,2632.60453403186
0.300865736810717,2632.61453403186
0.301108517622534,2632.62453403186
0.299629570762288,2632.63453403186
0.296605591578551,2632.64453403186
0.293073200116532,2632.65453403186
0.289016216358693,2632.66453403186
0.284766241617306,2632.67453403186
0.280805433509003,2632.68453403186
0.276299575611249,2632.69453403186
0.27170521457844,2632.70453403186
0.266077528019077,2632.71453403186
0.259794847727415,2632.72453403186
0.252027621472665,2632.73453403186
0.243552127726941,2632.74453403186
0.234675600188786,2632.75453403186
0.225979310575497,2632.76453403186
0.218337065688142,2632.77453403186
0.210535557813962,2632.78453403186
0.204173179362163,2632.79453403186
0.199352065119638,2632.80453403186
0.196232347662775,2632.81453403186
0.195226306591448,2632.82453403186
0.19563944675747,2632.83453403186
0.196749944429323,2632.84453403186
0.19817067054465,2632.85453403186
0.199444228043915,2632.86453403186
0.200612979750766,2632.87453403186
0.200848309010251,2632.88453403186
0.200127363760945,2632.89453403186
0.198376381674658,2632.90453403186
0.194969770787769,2632.91453403186
0.191196492665241,2632.92453403186
0.186466604666926,2632.93453403186
0.181379957741055,2632.94453403186
0.176089291922522,2632.95453403186
0.170487413054093,2632.96453403186
0.164693829749052,2632.97453403186
0.158792395932796,2632.98453403186
0.152947481592697,2632.99453403186
0.146524756263847,2633.00453403186
0.139677895208895,2633.01453403186
0.132252265480229,2633.02453403186
0.125112776283772,2633.03453403186
0.117803322396474,2633.04453403186
0.110585481299761,2633.05453403186
0.103787973244714,2633.06453403186
0.0969878505841661,2633.07453403186
0.0902850001261137,2633.08453403186
0.0836926391270215,2633.09453403186
0.0770607441714641,2633.10453403186
0.069283037256378,2633.11453403186
0.0615099264232298,2633.12453403186
0.0534570185526094,2633.13453403186
0.0460352639323519,2633.14453403186
0.03858944702504,2633.15453403186
0.0310838752218539,2633.16453403186
0.0236038386226514,2633.17453403186
0.0158668905865553,2633.18453403186
0.00846038471713279,2633.19453403186
0.000861920530993126,2633.20453403186
-0.00696607871154196,2633.21453403186
-0.0145329175004391,2633.22453403186
-0.0224594469840402,2633.23453403186
-0.0305231695560909,2633.24453403186
-0.0390280629813462,2633.25453403186
-0.0482113243729779,2633.26453403186
-0.0580617529334217,2633.27453403186
-0.0674373074196671,2633.28453403186
-0.0751808840341825,2633.29453403186
-0.079851245226603,2633.30453403186
-0.0791230861612917,2633.31453403186
-0.0714133305947124,2633.32453403186
-0.0562233813099951,2633.33453403186
-0.0346433440609312,2633.34453403186
-0.00629631401463269,2633.35453403186
0.0260621541443154,2633.36453403186
0.0597799800534968,2633.37453403186
0.0930611250675909,2633.38453403186
0.124207590446815,2633.39453403186
0.150925682618793,2633.40453403186
0.173148712278698,2633.41453403186
0.190676126633141,2633.42453403186
0.203043685611805,2633.43453403186
0.211359731141035,2633.44453403186
0.216000413487274,2633.45453403186
0.218327792233037,2633.46453403186
0.218538243888104,2633.47453403186
0.217343909854979,2633.48453403186
0.215030453173768,2633.49453403186
0.211160537521117,2633.50453403186
0.206916965622464,2633.51453403186
0.201690428650324,2633.52453403186
0.196463635774788,2633.53453403186
0.191376171162135,2633.54453403186
0.186130713335168,2633.55453403186
0.180021509659649,2633.56453403186
0.174131812302682,2633.57453403186
0.167289130276442,2633.58453403186
0.159929828991766,2633.59453403186
0.152709411424768,2633.60453403186
0.145461425249206,2633.61453403186
0.138403235458953,2633.62453403186
0.132038994161684,2633.63453403186
0.126756804084679,2633.64453403186
0.122612383688678,2633.65453403186
0.118785578955775,2633.66453403186
0.116411240718692,2633.67453403186
0.11501582123049,2633.68453403186
0.114553190410851,2633.69453403186
0.114601815981587,2633.70453403186
0.114928739443711,2633.71453403186
0.115477992950582,2633.72453403186
0.115661257247386,2633.73453403186
0.114927892957245,2633.74453403186
0.113976195467899,2633.75453403186
0.111540801314888,2633.76453403186
0.109142138465411,2633.77453403186
0.106007337186938,2633.78453403186
0.101965667671823,2633.79453403186
0.0972460456763274,2633.80453403186
0.091774582402742,2633.81453403186
0.0859183474998614,2633.82453403186
0.0797772984904453,2633.83453403186
0.0737231416316526,2633.84453403186
0.0677463769141082,2633.85453403186
0.06175992175043,2633.86453403186
0.0553690980574251,2633.87453403186
0.0482992089429545,2633.88453403186
0.0407999354307612,2633.89453403186
0.0333141889896661,2633.90453403186
0.025780311146494,2633.91453403186
0.0184056557767845,2633.92453403186
0.0112104973712799,2633.93453403186
0.00395511490645121,2633.94453403186
-0.00302345599261148,2633.95453403186
-0.00981897776009794,2633.96453403186
-0.0161648834554633,2633.97453403186
-0.022998954137258,2633.98453403186
-0.029726927467347,2633.99453403186
-0.0370429902799734,2634.00453403186
-0.0450515331785332,2634.01453403186
-0.0523913422886185,2634.02453403186
-0.0595452685459264,2634.03453403186
-0.0657230715514223,2634.04453403186
-0.0722898877618843,2634.05453403186
-0.078918550007839,2634.06453403186
-0.0858947222861656,2634.07453403186
-0.0934295537478422,2634.08453403186
-0.100762491818807,2634.09453403186
-0.108308805969686,2634.10453403186
-0.115657601289898,2634.11453403186
-0.122030292591012,2634.12453403186
-0.12513040654595,2634.13453403186
-0.123649027125337,2634.14453403186
-0.115904728910919,2634.15453403186
-0.101342287526403,2634.16453403186
-0.0796836409527693,2634.17453403186
-0.0532374917001232,2634.18453403186
-0.0237871931524153,2634.19453403186
0.0065015657457912,2634.20453403186
0.0352977428567039,2634.21453403186
0.0618701168363421,2634.22453403186
0.0838281642913676,2634.23453403186
0.101492431786148,2634.24453403186
0.115138861528826,2634.25453403186
0.123825120223561,2634.26453403186
0.129415317154002,2634.27453403186
0.131700277946749,2634.28453403186
0.132087106746133,2634.29453403186
0.130699775876721,2634.30453403186
0.1285221316164,2634.31453403186
0.126115833325349,2634.32453403186
0.123123503984614,2634.33453403186
0.119917895414047,2634.34453403186
0.116109785631515,2634.35453403186
0.111857491088424,2634.36453403186
0.10705279728835,2634.37453403186
0.101962401187943,2634.38453403186
0.0960518056994526,2634.39453403186
0.0892902316584784,2634.40453403186
0.0816306642921237,2634.41453403186
0.0741620186695157,2634.42453403186
0.0664627698395761,2634.43453403186
0.0592025129827013,2634.44453403186
0.0529764399154718,2634.45453403186
0.0481623945780597,2634.46453403186
0.0448084905583796,2634.47453403186
0.0432135129662209,2634.48453403186
0.043356290872567,2634.49453403186
0.0444798848703045,2634.50453403186
0.0464962646356709,2634.51453403186
0.0486574079374766,2634.52453403186
0.0505815205674046,2634.53453403186
0.0525758923684608,2634.54453403186
0.0547958755457123,2634.55453403186
0.0568104011337084,2634.56453403186
0.0582633722417067,2634.57453403186
0.0582316195501101,2634.58453403186
0.0568513597936269,2634.59453403186
0.0535022484120908,2634.60453403186
0.0494411773009059,2634.61453403186
0.0444910348708653,2634.62453403186
0.0388118674712426,2634.63453403186
0.0338671435961276,2634.64453403186
0.0290436334772502,2634.65453403186
0.0241795212580089,2634.66453403186
0.0195038660035787,2634.67453403186
0.0150049171968835,2634.68453403186
0.0104689071569318,2634.69453403186
0.00528597120832077,2634.70453403186
-7.63146872118546e-05,2634.71453403186
-0.00563987881978508,2634.72453403186
-0.0115251572147997,2634.73453403186
-0.0168582034209469,2634.74453403186
-0.02248692096307,2634.75453403186
-0.0277961053634188,2634.76453403186
-0.0328839676885059,2634.77453403186
-0.0378905961217523,2634.78453403186
-0.0434376559984725,2634.79453403186
-0.0488226498217156,2634.80453403186
-0.0539214463664476,2634.81453403186
-0.0593085438891559,2634.82453403186
-0.0647917568601125,2634.83453403186
-0.0706535441807098,2634.84453403186
-0.0768881644587933,2634.85453403186
-0.0832176195492162,2634.86453403186
-0.0894830691659183,2634.87453403186
-0.096063578729635,2634.88453403186
-0.102334239824085,2634.89453403186
-0.107829036434794,2634.90453403186
-0.111327986848465,2634.91453403186
-0.110925555847762,2634.92453403186
-0.105776439105934,2634.93453403186
-0.0943927784488706,2634.94453403186
-0.0762016376259764,2634.95453403186
-0.051749378389488,2634.96453403186
-0.0220738362456661,2634.97453403186
0.0110962952870112,2634.98453403186
0.0447436185526389,2634.99453403186
0.0774214260853828,2635.00453403186
0.107045811627462,2635.01453403186
0.133206883727351,2635.02453403186
0.154915114947774,2635.03453403186
0.172136600988304,2635.04453403186
0.185857750033903,2635.05453403186
0.196491480718927,2635.06453403186
0.204294494500223,2635.07453403186
0.209490719096532,2635.08453403186
0.2130542088417,2635.09453403186
0.21507952763252,2635.10453403186
0.216626621583332,2635.11453403186
0.217467960672559,2635.12453403186
0.218098000672086,2635.13453403186
0.218468584841913,2635.14453403186
0.218448579840272,2635.15453403186
