PPG,time
0.00446698282243605,1264.10771935161
0.0123919488358426,1264.11771935161
0.0162385637748151,1264.12771935161
0.0211542223596206,1264.13771935161
0.024331813726393,1264.14771935161
0.0268296731000088,1264.15771935161
0.0266970576835773,1264.16771935161
0.0240430719742722,1264.17771935161
0.0188786924005848,1264.18771935161
0.0113608133418066,1264.19771935161
0.00182543473233317,1264.20771935161
-0.0090443444318262,1264.21771935161
-0.0214559420903131,1264.22771935161
-0.0341945970785335,1264.23771935161
-0.0473352399330692,1264.24771935161
-0.0615878917412824,1264.25771935161
-0.0762499256537216,1264.26771935161
-0.0915405280447631,1264.27771935161
-0.106758721448869,1264.28771935161
-0.121917047955208,1264.29771935161
-0.136786073753443,1264.30771935161
-0.150783906289025,1264.31771935161
-0.163546356703872,1264.32771935161
-0.175835389344612,1264.33771935161
-0.187432978274997,1264.34771935161
-0.198473838177819,1264.35771935161
-0.208792422030774,1264.36771935161
-0.219137475396524,1264.37771935161
-0.228624026772489,1264.38771935161
-0.238104008613104,1264.39771935161
-0.247646485519973,1264.40771935161
-0.256756754585726,1264.41771935161
-0.266109642179321,1264.42771935161
-0.275697308471091,1264.43771935161
-0.284877814076893,1264.44771935161
-0.294370167657383,1264.45771935161
-0.304143774510812,1264.46771935161
-0.314020580343594,1264.47771935161
-0.323648417238621,1264.48771935161
-0.332605817268275,1264.49771935161
-0.342090463969217,1264.50771935161
-0.350835790401017,1264.51771935161
-0.359089381565603,1264.52771935161
-0.367597290364159,1264.53771935161
-0.376047601071949,1264.54771935161
-0.384994099499675,1264.55771935161
-0.394737974171887,1264.56771935161
-0.4044604050847,1264.57771935161
-0.41375982631816,1264.58771935161
-0.423020451297616,1264.59771935161
-0.431998404542069,1264.60771935161
-0.441237987388103,1264.61771935161
-0.450414579498419,1264.62771935161
-0.459684878329314,1264.63771935161
-0.46897581187332,1264.64771935161
-0.477119689089607,1264.65771935161
-0.481778604862729,1264.66771935161
-0.478988161240371,1264.67771935161
-0.465833403232422,1264.68771935161
-0.439292117641661,1264.69771935161
-0.39837128810842,1264.70771935161
-0.344354633499464,1264.71771935161
-0.28051431321016,1264.72771935161
-0.211351092170967,1264.73771935161
-0.142805008095998,1264.74771935161
-0.0786650781611174,1264.75771935161
-0.0223603291945801,1264.76771935161
0.02324790091797,1264.77771935161
0.057141568813787,1264.78771935161
0.0794338307920277,1264.79771935161
0.0911118424772279,1264.80771935161
0.0937566528286437,1264.81771935161
0.0893175237524864,1264.82771935161
0.0797381338592,1264.83771935161
0.0664046887663341,1264.84771935161
0.0505716545147971,1264.85771935161
0.0335669308000784,1264.86771935161
0.0161183960452597,1264.87771935161
-0.001281471710124,1264.88771935161
-0.0177314286456086,1264.89771935161
-0.0329017287252641,1264.90771935161
-0.047615950133821,1264.91771935161
-0.0612066208575602,1264.92771935161
-0.0748973742442557,1264.93771935161
-0.0883862532547924,1264.94771935161
-0.101912342525812,1264.95771935161
-0.115612845208584,1264.96771935161
-0.129534563240731,1264.97771935161
-0.143070482225478,1264.98771935161
-0.15504108372531,1264.99771935161
-0.164371603065555,1265.00771935161
-0.170594701214244,1265.01771935161
-0.173898600519375,1265.02771935161
-0.174188434115001,1265.03771935161
-0.17240513354918,1265.04771935161
-0.169165357517219,1265.05771935161
-0.163988412255397,1265.06771935161
-0.158540419120052,1265.07771935161
-0.153461091579127,1265.08771935161
-0.149295160259349,1265.09771935161
-0.14627290638398,1265.10771935161
-0.144626524904676,1265.11771935161
-0.145010587602563,1265.12771935161
-0.147353537779686,1265.13771935161
-0.151714301706307,1265.14771935161
-0.157323990448703,1265.15771935161
-0.164614653033662,1265.16771935161
-0.1735956277873,1265.17771935161
-0.183732204472091,1265.18771935161
-0.194519278010564,1265.19771935161
-0.205963945142066,1265.20771935161
-0.218163759239233,1265.21771935161
-0.230917718162043,1265.22771935161
-0.243377530969595,1265.23771935161
-0.255373665448696,1265.24771935161
-0.267196252666618,1265.25771935161
-0.278190240806372,1265.26771935161
-0.288820383632639,1265.27771935161
-0.298778985566068,1265.28771935161
-0.308453589149431,1265.29771935161
-0.317618694990878,1265.30771935161
-0.326649170725106,1265.31771935161
-0.335741340502377,1265.32771935161
-0.344349590887147,1265.33771935161
-0.352875266908661,1265.34771935161
-0.361847610232967,1265.35771935161
-0.370131974504927,1265.36771935161
-0.379163694143331,1265.37771935161
-0.387710325110173,1265.38771935161
-0.395933167567639,1265.39771935161
-0.403593660488146,1265.40771935161
-0.411425690373188,1265.41771935161
-0.418992668778147,1265.42771935161
-0.426626380168364,1265.43771935161
-0.434193520904549,1265.44771935161
-0.442180182477312,1265.45771935161
-0.449629383859375,1265.46771935161
-0.457135108796502,1265.47771935161
-0.464247169243604,1265.48771935161
-0.471321309477396,1265.49771935161
-0.478615361618491,1265.50771935161
-0.485901792664342,1265.51771935161
-0.493575396339028,1265.52771935161
-0.501236589569692,1265.53771935161
-0.508918038438874,1265.54771935161
-0.516597908880498,1265.55771935161
-0.524238812063236,1265.56771935161
-0.531869873972061,1265.57771935161
-0.539160933217972,1265.58771935161
-0.546535841607298,1265.59771935161
-0.553807544931857,1265.60771935161
-0.560472245586194,1265.61771935161
-0.566739367938665,1265.62771935161
-0.572701949304589,1265.63771935161
-0.578126431040539,1265.64771935161
-0.583262405422233,1265.65771935161
-0.588015237369097,1265.66771935161
-0.59263040790516,1265.67771935161
-0.595454161483601,1265.68771935161
-0.594028979283719,1265.69771935161
-0.585295324825897,1265.70771935161
-0.565276111101478,1265.71771935161
-0.531398853565291,1265.72771935161
-0.482764394017541,1265.73771935161
-0.421010556436892,1265.74771935161
-0.348567035620221,1265.75771935161
-0.271379688777094,1265.76771935161
-0.19327382908522,1265.77771935161
-0.119937954033548,1265.78771935161
-0.0548942958690699,1265.79771935161
-0.000460011627933291,1265.80771935161
0.0421843262482519,1265.81771935161
0.0727148541065357,1265.82771935161
0.0914832734811064,1265.83771935161
0.100586712968825,1265.84771935161
0.101213586142994,1265.85771935161
0.095960811068156,1265.86771935161
0.086220888015176,1265.87771935161
0.0742585063318742,1265.88771935161
0.0610783104307592,1265.89771935161
0.0478839158263955,1265.90771935161
0.0358745980301203,1265.91771935161
0.025075429709465,1265.92771935161
0.0154622437631955,1265.93771935161
0.00778953666564711,1265.94771935161
0.000438925832961523,1265.95771935161
-0.00616031006137375,1265.96771935161
-0.0123906664522438,1265.97771935161
-0.0188094597903077,1265.98771935161
-0.0256529270981394,1265.99771935161
-0.0328050415608964,1266.00771935161
-0.040845041098637,1266.01771935161
-0.0493572240534371,1266.02771935161
-0.0573011938810297,1266.03771935161
-0.0643528782348584,1266.04771935161
-0.0701171536090429,1266.05771935161
-0.073657487786319,1266.06771935161
-0.0757238528604465,1266.07771935161
-0.076070359108299,1266.08771935161
-0.0751507287076855,1266.09771935161
-0.0731748707919186,1266.10771935161
-0.070150220015781,1266.11771935161
-0.0666542786700986,1266.12771935161
-0.0631302136981926,1266.13771935161
-0.0606025294134626,1266.14771935161
-0.0588879240071109,1266.15771935161
-0.0586029636323974,1266.16771935161
-0.0603978944465874,1266.17771935161
-0.0635469195600453,1266.18771935161
-0.068466367732319,1266.19771935161
-0.075318058828085,1266.20771935161
-0.0833233607057999,1266.21771935161
-0.0923019915762991,1266.22771935161
-0.102349764180398,1266.23771935161
-0.112802157668091,1266.24771935161
-0.123766234180414,1266.25771935161
-0.134861864540496,1266.26771935161
-0.146758490668867,1266.27771935161
-0.158551361182788,1266.28771935161
-0.169911282065239,1266.29771935161
-0.180808318290667,1266.30771935161
-0.190829458285207,1266.31771935161
-0.200701731691494,1266.32771935161
-0.210316594126603,1266.33771935161
-0.219336931290475,1266.34771935161
-0.228174175565438,1266.35771935161
-0.237136221048676,1266.36771935161
-0.246041087030966,1266.37771935161
-0.254342336867525,1266.38771935161
-0.261978791789801,1266.39771935161
-0.26953053351115,1266.40771935161
-0.276703763457709,1266.41771935161
-0.283614173870784,1266.42771935161
-0.291056322401815,1266.43771935161
-0.298389137165998,1266.44771935161
-0.304981067770041,1266.45771935161
-0.311193760918197,1266.46771935161
-0.317128396955079,1266.47771935161
-0.323485820659384,1266.48771935161
-0.330385878718351,1266.49771935161
-0.337441736077652,1266.50771935161
-0.344942806664805,1266.51771935161
-0.352786186239493,1266.52771935161
-0.360885846705447,1266.53771935161
-0.368890039169816,1266.54771935161
-0.376120073767576,1266.55771935161
-0.383056315152639,1266.56771935161
-0.389737760097835,1266.57771935161
-0.396850347016156,1266.58771935161
-0.403429401540498,1266.59771935161
-0.409832954399577,1266.60771935161
-0.41620785071532,1266.61771935161
-0.421774502085243,1266.62771935161
-0.427893094222965,1266.63771935161
-0.434530890891375,1266.64771935161
-0.44121780018419,1266.65771935161
-0.447747043689875,1266.66771935161
-0.453849567669347,1266.67771935161
-0.459692841622638,1266.68771935161
-0.464100300164656,1266.69771935161
-0.464478553943617,1266.70771935161
-0.458250670681424,1266.71771935161
-0.442229842644397,1266.72771935161
-0.412226768684275,1266.73771935161
-0.367769813620013,1266.74771935161
-0.309470092765835,1266.75771935161
-0.239751972643926,1266.76771935161
-0.163683271528169,1266.77771935161
-0.0860664493804653,1266.78771935161
-0.0115568993442026,1266.79771935161
0.0551455499486917,1266.80771935161
0.110904921921804,1266.81771935161
0.155036958883753,1266.82771935161
0.186818029279431,1266.83771935161
0.206575276031645,1266.84771935161
0.216689906325608,1266.85771935161
0.218346396030415,1266.86771935161
0.213003297611559,1266.87771935161
0.202856948182969,1266.88771935161
0.189934724090822,1266.89771935161
0.175665994636698,1266.90771935161
0.160984828999594,1266.91771935161
0.146908799810499,1266.92771935161
0.134301723057643,1266.93771935161
0.123884716665158,1266.94771935161
0.115313884368328,1266.95771935161
0.108218680914505,1266.96771935161
0.101951006538858,1266.97771935161
0.0949135053046701,1266.98771935161
0.0872794546141147,1266.99771935161
0.0783086902914314,1267.00771935161
0.0680034493432117,1267.01771935161
0.0566859880102429,1267.02771935161
0.0458799876505882,1267.03771935161
0.0363236349097472,1267.04771935161
0.0280270869285905,1267.05771935161
0.0221952458874135,1267.06771935161
0.0193261057064547,1267.07771935161
0.0185264301709938,1267.08771935161
0.0195717445990643,1267.09771935161
0.0215265308417955,1267.10771935161
0.0245953809162086,1267.11771935161
0.0282683888523376,1267.12771935161
0.0322402205390177,1267.13771935161
0.0365291031233151,1267.14771935161
0.0396622236240475,1267.15771935161
0.041961270645488,1267.16771935161
0.0426115871317797,1267.17771935161
0.0411503581648941,1267.18771935161
0.0374254901059144,1267.19771935161
0.0319906840574176,1267.20771935161
0.0249234377083901,1267.21771935161
0.0163234603981456,1267.22771935161
0.00677403479595741,1267.23771935161
-0.00368387547890074,1267.24771935161
-0.0143184773879074,1267.25771935161
-0.0254640957306171,1267.26771935161
-0.0367308974818263,1267.27771935161
-0.0476637434498995,1267.28771935161
-0.0583381597238631,1267.29771935161
-0.0686907203940781,1267.30771935161
-0.0793993324828793,1267.31771935161
-0.0895464347724719,1267.32771935161
-0.0998597122570395,1267.33771935161
-0.110470888044939,1267.34771935161
-0.120681070114436,1267.35771935161
-0.130789942260829,1267.36771935161
-0.14052058988737,1267.37771935161
-0.149640731212487,1267.38771935161
-0.157998489040858,1267.39771935161
-0.165788493900427,1267.40771935161
-0.173401011330135,1267.41771935161
-0.180249762356466,1267.42771935161
-0.187283398991257,1267.43771935161
-0.193408395892678,1267.44771935161
-0.19981262672085,1267.45771935161
-0.206107059755048,1267.46771935161
-0.212673468766801,1267.47771935161
-0.219895745907503,1267.48771935161
-0.227217964020438,1267.49771935161
-0.234297955854605,1267.50771935161
-0.241454753309047,1267.51771935161
-0.248554858635501,1267.52771935161
-0.255220715352752,1267.53771935161
-0.26226591624831,1267.54771935161
-0.269357788975138,1267.55771935161
-0.276603695970384,1267.56771935161
-0.28426816812224,1267.57771935161
-0.291613892192255,1267.58771935161
-0.298563432262108,1267.59771935161
-0.305558976623314,1267.60771935161
-0.31257622421441,1267.61771935161
-0.319622744722916,1267.62771935161
-0.327002530715382,1267.63771935161
-0.334357250025553,1267.64771935161
-0.341502073065296,1267.65771935161
-0.348546663758985,1267.66771935161
-0.354721590417469,1267.67771935161
-0.360479007560885,1267.68771935161
-0.365897623564849,1267.69771935161
-0.371345671742837,1267.70771935161
-0.376597198895559,1267.71771935161
-0.381470181942461,1267.72771935161
-0.38664015291038,1267.73771935161
-0.392039097728126,1267.74771935161
-0.398159333737999,1267.75771935161
-0.40418787197381,1267.76771935161
-0.408543709155055,1267.77771935161
-0.409112063179001,1267.78771935161
-0.402342383272721,1267.79771935161
-0.38362188014115,1267.80771935161
-0.350623694330514,1267.81771935161
-0.302411248311548,1267.82771935161
-0.239717166994517,1267.83771935161
-0.165761803840977,1267.84771935161
-0.0857773288280189,1267.85771935161
-0.00522409220670691,1267.86771935161
0.0706650588499811,1267.87771935161
0.138649650143496,1267.88771935161
0.195817840814396,1267.89771935161
0.24058903350326,1267.90771935161
0.273428153980555,1267.91771935161
0.294712494385321,1267.92771935161
0.306227872375065,1267.93771935161
0.30934860748017,1267.94771935161
0.306068226686291,1267.95771935161
0.297710871233112,1267.96771935161
0.285547150136214,1267.97771935161
0.271086221533772,1267.98771935161
0.256094924889896,1267.99771935161
0.240770351738832,1268.00771935161
0.226021073269376,1268.01771935161
0.213228760962758,1268.02771935161
0.201783121984639,1268.03771935161
0.191396293347306,1268.04771935161
0.181918731375067,1268.05771935161
0.171791395493737,1268.06771935161
0.160985516083318,1268.07771935161
0.149365377089777,1268.08771935161
0.137292446846813,1268.09771935161
0.125531481539048,1268.10771935161
0.115129247892325,1268.11771935161
0.107032053230338,1268.12771935161
0.101568246223125,1268.13771935161
0.0994463841883377,1268.14771935161
0.100351486451429,1268.15771935161
0.104142278986556,1268.16771935161
0.109631911342854,1268.17771935161
0.116830395348285,1268.18771935161
0.125441263446651,1268.19771935161
0.133544622553459,1268.20771935161
0.142123150044656,1268.21771935161
0.149354500728785,1268.22771935161
0.155381046437932,1268.23771935161
0.159301865423622,1268.24771935161
0.160015776591779,1268.25771935161
0.158477150831228,1268.26771935161
0.153808447411315,1268.27771935161
0.147452268711961,1268.28771935161
0.140257420164451,1268.29771935161
0.132612974451468,1268.30771935161
0.123176586003148,1268.31771935161
0.112705605121202,1268.32771935161
0.101437742581993,1268.33771935161
0.0892436361595159,1268.34771935161
0.0771615986931409,1268.35771935161
0.0649449855195147,1268.36771935161
0.0530683486826611,1268.37771935161
0.0416812080891908,1268.38771935161
0.0302203060849688,1268.39771935161
0.0196707934080627,1268.40771935161
0.00940461653536058,1268.41771935161
-0.000251549034378606,1268.42771935161
-0.00926300910421212,1268.43771935161
-0.0174321055202608,1268.44771935161
-0.0257681584876385,1268.45771935161
-0.033870065264535,1268.46771935161
-0.0406463314865577,1268.47771935161
-0.0477527683048721,1268.48771935161
-0.0536241480433585,1268.49771935161
-0.0599725998490916,1268.50771935161
-0.0665213907865279,1268.51771935161
-0.0737480393950146,1268.52771935161
-0.0815562881220549,1268.53771935161
-0.0902120056886061,1268.54771935161
-0.0983173066052709,1268.55771935161
-0.107200222460419,1268.56771935161
-0.115817213596177,1268.57771935161
-0.123967922866496,1268.58771935161
-0.132855823979571,1268.59771935161
-0.140773424469918,1268.60771935161
-0.148226967866337,1268.61771935161
-0.155783895534684,1268.62771935161
-0.163372935002622,1268.63771935161
-0.171315766813314,1268.64771935161
-0.179883009314093,1268.65771935161
-0.188502696420723,1268.66771935161
-0.197322658130458,1268.67771935161
-0.206045186510148,1268.68771935161
-0.214364193474252,1268.69771935161
-0.221829898285497,1268.70771935161
-0.228175889120745,1268.71771935161
-0.231765189861641,1268.72771935161
-0.229556949744715,1268.73771935161
-0.217749739082835,1268.74771935161
-0.192969115700981,1268.75771935161
-0.153369213820862,1268.76771935161
-0.0985803100149688,1268.77771935161
-0.031134432774603,1268.78771935161
0.0438074602009189,1268.79771935161
0.121573513012429,1268.80771935161
0.19684954166106,1268.81771935161
0.265242977537162,1268.82771935161
0.322861685245682,1268.83771935161
0.367490144741646,1268.84771935161
0.398303472922398,1268.85771935161
0.41663815106267,1268.86771935161
0.423669391557315,1268.87771935161
0.421881894020739,1268.88771935161
0.413143339156304,1268.89771935161
0.399751715598047,1268.90771935161
0.383703107055685,1268.91771935161
0.366603324656924,1268.92771935161
0.34876348791342,1268.93771935161
0.331496234701761,1268.94771935161
0.315237546947761,1268.95771935161
0.300718885478779,1268.96771935161
0.287754661655624,1268.97771935161
0.275584889416725,1268.98771935161
0.263980875231713,1268.99771935161
0.251747440427566,1269.00771935161
0.238526502315934,1269.01771935161
0.224435060822455,1269.02771935161
0.210310920189045,1269.03771935161
0.197135779513507,1269.04771935161
0.185005434192985,1269.05771935161
0.175238958775412,1269.06771935161
0.16804813370883,1269.07771935161
0.163999045634607,1269.08771935161
0.163065757925928,1269.09771935161
0.16461863372092,1269.10771935161
0.168646186861667,1269.11771935161
0.173572111269235,1269.12771935161
0.179662049483565,1269.13771935161
0.186014615120644,1269.14771935161
0.191626008240237,1269.15771935161
0.196341520278617,1269.16771935161
0.199144299535357,1269.17771935161
0.199613181942612,1269.18771935161
0.197768666417359,1269.19771935161
0.193474369464895,1269.20771935161
0.187134075850841,1269.21771935161
0.179088409348022,1269.22771935161
0.169307533336253,1269.23771935161
0.158200031247123,1269.24771935161
0.146460352270635,1269.25771935161
0.133945122343227,1269.26771935161
0.121477437965123,1269.27771935161
0.108655141861922,1269.28771935161
0.0957880578543419,1269.29771935161
0.0830671735616662,1269.30771935161
0.0701572721711394,1269.31771935161
0.0581457728705748,1269.32771935161
0.0466276399593206,1269.33771935161
0.0360337078534131,1269.34771935161
0.0260923670208862,1269.35771935161
0.0161811791260521,1269.36771935161
0.00637900539736149,1269.37771935161
-0.00379751628773267,1269.38771935161
-0.0135245013364853,1269.39771935161
-0.0231277566107549,1269.40771935161
-0.0321283766080017,1269.41771935161
-0.0407411731927215,1269.42771935161
-0.0488191449967212,1269.43771935161
-0.0568767941935086,1269.44771935161
-0.064923197455711,1269.45771935161
-0.0724194527582037,1269.46771935161
-0.0799556226559174,1269.47771935161
-0.0871352550580482,1269.48771935161
-0.0944595078699156,1269.49771935161
-0.102080593312449,1269.50771935161
-0.109865411457912,1269.51771935161
-0.117989737106544,1269.52771935161
-0.126001344527174,1269.53771935161
-0.13332869432566,1269.54771935161
-0.140242503629845,1269.55771935161
-0.147385062071287,1269.56771935161
-0.154190627011742,1269.57771935161
-0.160789742385125,1269.58771935161
-0.16773335490406,1269.59771935161
-0.175128231389527,1269.60771935161
-0.18220959046573,1269.61771935161
-0.188966333101848,1269.62771935161
-0.195749925352074,1269.63771935161
-0.201969016500497,1269.64771935161
-0.207098354868203,1269.65771935161
-0.209504309874349,1269.66771935161
-0.205524735605087,1269.67771935161
-0.190254289832816,1269.68771935161
-0.160310723588414,1269.69771935161
-0.113822757637377,1269.70771935161
-0.0505612185264562,1269.71771935161
0.0252988486661909,1269.72771935161
0.108801380641597,1269.73771935161
0.19503839124937,1269.74771935161
0.277868628447346,1269.75771935161
0.351829183317235,1269.76771935161
0.414128138913698,1269.77771935161
0.462475603070222,1269.78771935161
0.496019618564642,1269.79771935161
0.516036771968381,1269.80771935161
0.52416977305459,1269.81771935161
0.523134768412354,1269.82771935161
0.515176423166337,1269.83771935161
0.502060082186806,1269.84771935161
0.486330907194597,1269.85771935161
0.469622051059671,1269.86771935161
0.453441210661431,1269.87771935161
0.43770381428639,1269.88771935161
0.423738968326201,1269.89771935161
0.41236789227656,1269.90771935161
0.402818635225349,1269.91771935161
0.394912460150182,1269.92771935161
0.387883233663501,1269.93771935161
0.381187087391838,1269.94771935161
0.373861300011568,1269.95771935161
0.364729619736774,1269.96771935161
0.353347173811824,1269.97771935161
0.340368238786336,1269.98771935161
0.326943765931136,1269.99771935161
0.314141243010741,1270.00771935161
0.303466436881145,1270.01771935161
0.295661506051062,1270.02771935161
0.290512228268628,1270.03771935161
0.287918074440351,1270.04771935161
0.287353588929954,1270.05771935161
0.288263608887504,1270.06771935161
0.290359369674329,1270.07771935161
0.293170483474215,1270.08771935161
0.2957908565294,1270.09771935161
0.298476086569361,1270.10771935161
0.30028644958064,1270.11771935161
0.301217909778682,1270.12771935161
0.300616908489598,1270.13771935161
0.297632923256728,1270.14771935161
0.292402660025316,1270.15771935161
0.284936042906606,1270.16771935161
0.27608227982702,1270.17771935161
0.266649418267476,1270.18771935161
0.255983701726386,1270.19771935161
0.244728480232752,1270.20771935161
0.233017951318893,1270.21771935161
0.220693428794831,1270.22771935161
0.208199571822584,1270.23771935161
0.19544822225406,1270.24771935161
0.182788317511371,1270.25771935161
0.170111183125763,1270.26771935161
0.157765273614503,1270.27771935161
0.145836506659451,1270.28771935161
0.134626300060879,1270.29771935161
0.123963489228477,1270.30771935161
0.113625978874909,1270.31771935161
0.103076749057061,1270.32771935161
0.0927675318829641,1270.33771935161
0.0825954404946291,1270.34771935161
0.0729844508343272,1270.35771935161
0.063585424845774,1270.36771935161
0.0554490672898862,1270.37771935161
0.0477231290439932,1270.38771935161
0.0402501401102554,1270.39771935161
0.0329100697576633,1270.40771935161
0.0253403036315157,1270.41771935161
0.0176393411752866,1270.42771935161
0.00987558873788244,1270.43771935161
0.0023351130465231,1270.44771935161
-0.00515039759544921,1270.45771935161
-0.0127358131244575,1270.46771935161
-0.0204128557863411,1270.47771935161
-0.0281685525079996,1270.48771935161
-0.0359770931892985,1270.49771935161
-0.0439213607876493,1270.50771935161
-0.0520195170345965,1270.51771935161
-0.0593979791947914,1270.52771935161
-0.0670732924853454,1270.53771935161
-0.0745378680140916,1270.54771935161
-0.0821650580144271,1270.55771935161
-0.0893538566236749,1270.56771935161
-0.0968024906488414,1270.57771935161
-0.103988790393619,1270.58771935161
-0.110652793682112,1270.59771935161
-0.117592550468025,1270.60771935161
-0.123769441232948,1270.61771935161
-0.129987565232441,1270.62771935161
-0.13608891135487,1270.63771935161
-0.142610263270681,1270.64771935161
-0.148418537406366,1270.65771935161
-0.154721807168681,1270.66771935161
-0.159587966617683,1270.67771935161
-0.160509233010226,1270.68771935161
-0.15365998200962,1270.69771935161
-0.134835357146119,1270.70771935161
-0.0997686321396717,1270.71771935161
-0.0476961310797803,1270.72771935161
0.0208248029529003,1270.73771935161
0.102036207904083,1270.74771935161
0.190170138397231,1270.75771935161
0.2790611643554,1270.76771935161
0.362066586094556,1270.77771935161
0.434860354075299,1270.78771935161
0.493894971970615,1270.79771935161
0.537476394351883,1270.80771935161
0.566311002384317,1270.81771935161
0.581138592131516,1270.82771935161
0.584073588991277,1270.83771935161
0.577349294193266,1270.84771935161
0.564003642412953,1270.85771935161
0.54663414630025,1270.86771935161
0.527541783322902,1270.87771935161
0.508038506570183,1270.88771935161
0.489493128960319,1270.89771935161
0.472267531526594,1270.90771935161
0.456924549720726,1270.91771935161
0.443941221996412,1270.92771935161
0.43244605159786,1270.93771935161
0.42228659262098,1270.94771935161
0.411848287289859,1270.95771935161
0.400726930635942,1270.96771935161
0.387892724052989,1270.97771935161
0.373451007211383,1270.98771935161
0.357259174029935,1270.99771935161
0.340104334610925,1271.00771935161
0.323519348606907,1271.01771935161
0.30867793358552,1271.02771935161
0.297300767367637,1271.03771935161
0.289440764599559,1271.04771935161
0.2858389209232,1271.05771935161
0.286278290157051,1271.06771935161
0.290343863992082,1271.07771935161
0.297082213552342,1271.08771935161
0.306122231787143,1271.09771935161
0.317097551722218,1271.10771935161
0.329659060177859,1271.11771935161
0.345774010459029,1271.12771935161
0.36795853480742,1271.13771935161
0.396894405172022,1271.14771935161
0.42968530566992,1271.15771935161
0.462477008898124,1271.16771935161
0.490473854738246,1271.17771935161
0.509993866338582,1271.18771935161
0.521705475948669,1271.19771935161
0.530012887530639,1271.20771935161
0.542913266721473,1271.21771935161
0.566092406878428,1271.22771935161
0.600450007446543,1271.23771935161
0.640814220370495,1271.24771935161
0.680439680734477,1271.25771935161
0.709849911034898,1271.26771935161
0.718833790051569,1271.27771935161
0.696062535363053,1271.28771935161
0.633014974967416,1271.29771935161
0.531967719539206,1271.30771935161
0.400943942398601,1271.31771935161
0.254940959647566,1271.32771935161
0.110238744591307,1271.33771935161
-0.0208715146140559,1271.34771935161
-0.131116425732701,1271.35771935161
-0.219444372037947,1271.36771935161
-0.288255161515581,1271.37771935161
-0.341899552309651,1271.38771935161
-0.385774049064041,1271.39771935161
-0.422969238156703,1271.40771935161
-0.456183157406305,1271.41771935161
-0.485940203882796,1271.42771935161
-0.51314040448803,1271.43771935161
-0.537902534502387,1271.44771935161
-0.559604532731914,1271.45771935161
-0.577406154507606,1271.46771935161
-0.591052141829616,1271.47771935161
-0.60098897420092,1271.48771935161
-0.608181051437532,1271.49771935161
-0.614636401207649,1271.50771935161
-0.621094825518297,1271.51771935161
-0.628231224666647,1271.52771935161
-0.637162601687129,1271.53771935161
-0.648945773523795,1271.54771935161
-0.663010094803796,1271.55771935161
-0.679249252664084,1271.56771935161
-0.696047052002266,1271.57771935161
-0.713211670514,1271.58771935161
-0.728887564149092,1271.59771935161
-0.743081501074602,1271.60771935161
-0.755776625937862,1271.61771935161
-0.767042031748112,1271.62771935161
-0.777952281062661,1271.63771935161
-0.789573526267332,1271.64771935161
-0.802671668647666,1271.65771935161
-0.816867264188969,1271.66771935161
-0.833026005176252,1271.67771935161
-0.850294540535534,1271.68771935161
-0.866927852678495,1271.69771935161
-0.880063662847425,1271.70771935161
-0.887169513110621,1271.71771935161
-0.883461399773345,1271.72771935161
-0.864318454641897,1271.73771935161
-0.826084233137798,1271.74771935161
-0.766384799320542,1271.75771935161
-0.685603230384048,1271.76771935161
-0.58796221650983,1271.77771935161
-0.48063427524339,1271.78771935161
-0.370990336694571,1271.79771935161
-0.265037620027689,1271.80771935161
-0.166484282817567,1271.81771935161
-0.0794681807424023,1271.82771935161
-0.00658737077959636,1271.83771935161
0.0493337968426927,1271.84771935161
0.086140694448237,1271.85771935161
0.102991356346741,1271.86771935161
0.101021606820714,1271.87771935161
0.0835868370368555,1271.88771935161
0.0566867149464858,1271.89771935161
0.0253361334863587,1271.90771935161
-0.00632089387071948,1271.91771935161
-0.0369545243711231,1271.92771935161
-0.0660364908665611,1271.93771935161
-0.0933260964767855,1271.94771935161
-0.11933651614186,1271.95771935161
-0.14470464538733,1271.96771935161
-0.169430706273467,1271.97771935161
-0.194228090700086,1271.98771935161
-0.21876545448147,1271.99771935161
-0.243241362813578,1272.00771935161
-0.267222181110069,1272.01771935161
-0.290898949213523,1272.02771935161
-0.313485850113322,1272.03771935161
-0.334025213113993,1272.04771935161
-0.351389923378166,1272.05771935161
-0.364429651852216,1272.06771935161
-0.372923409608095,1272.07771935161
-0.377444425306134,1272.08771935161
-0.378465889093461,1272.09771935161
-0.376576060797801,1272.10771935161
-0.372432268093887,1272.11771935161
-0.367017231704276,1272.12771935161
-0.360741473908147,1272.13771935161
-0.354639289281481,1272.14771935161
-0.349333250095803,1272.15771935161
-0.345821924230246,1272.16771935161
-0.345123408709565,1272.17771935161
-0.346414598319676,1272.18771935161
-0.350158017338861,1272.19771935161
-0.35652227979203,1272.20771935161
-0.365541468097026,1272.21771935161
-0.377204952533255,1272.22771935161
-0.391212147244365,1272.23771935161
-0.407098335976217,1272.24771935161
-0.424354055637698,1272.25771935161
-0.442782125297979,1272.26771935161
-0.461773401770248,1272.27771935161
-0.481478212457139,1272.28771935161
-0.500857228268704,1272.29771935161
-0.520378791447894,1272.30771935161
-0.539871194130671,1272.31771935161
-0.560411641161352,1272.32771935161
-0.581806382010399,1272.33771935161
-0.605210187598993,1272.34771935161
-0.630906176278729,1272.35771935161
-0.657640247907173,1272.36771935161
-0.684464794258594,1272.37771935161
-0.71051534532599,1272.38771935161
-0.733953616564978,1272.39771935161
-0.75209309582595,1272.40771935161
-0.763169117938704,1272.41771935161
-0.765540320443368,1272.42771935161
-0.759597929736162,1272.43771935161
-0.749036098621766,1272.44771935161
-0.737372020088483,1272.45771935161
-0.729149209219623,1272.46771935161
-0.725895247970866,1272.47771935161
-0.727305235209899,1272.48771935161
-0.731750706552637,1272.49771935161
-0.736585108002189,1272.50771935161
-0.740764177828835,1272.51771935161
-0.742330151913234,1272.52771935161
-0.742096287812134,1272.53771935161
-0.746239461088966,1272.54771935161
-0.761509459470426,1272.55771935161
-0.785092585433977,1272.56771935161
-0.808257391593777,1272.57771935161
-0.82233506533258,1272.58771935161
-0.820176721859895,1272.59771935161
-0.803207617918222,1272.60771935161
-0.776386502163995,1272.61771935161
-0.74576988122283,1272.62771935161
-0.716163209781784,1272.63771935161
-0.687994913542601,1272.64771935161
-0.659846930783031,1272.65771935161
-0.629773552262375,1272.66771935161
-0.596546202747972,1272.67771935161
-0.558979556121376,1272.68771935161
-0.515077733785111,1272.69771935161
-0.461940387516147,1272.70771935161
-0.395754636746244,1272.71771935161
-0.313464457073237,1272.72771935161
-0.213953741675192,1272.73771935161
-0.100085154722884,1272.74771935161
0.0218284000505892,1272.75771935161
0.145637816813474,1272.76771935161
0.264050642339964,1272.77771935161
0.372816140699066,1272.78771935161
0.467444943047036,1272.79771935161
0.545438884905994,1272.80771935161
0.605769499900675,1272.81771935161
0.648564895214605,1272.82771935161
0.675128130377388,1272.83771935161
0.689562755329185,1272.84771935161
0.698229755656463,1272.85771935161
0.709493917402254,1272.86771935161
0.727858198530828,1272.87771935161
0.751672699342257,1272.88771935161
0.774167212082108,1272.89771935161
0.786656339061166,1272.90771935161
0.780522674197275,1272.91771935161
0.748485767401626,1272.92771935161
0.68427058732914,1272.93771935161
0.583293710553523,1272.94771935161
0.445185925885592,1272.95771935161
0.273925226237851,1272.96771935161
0.0770019461313249,1272.97771935161
-0.136664020122751,1272.98771935161
-0.360950571081456,1272.99771935161
-0.592607832605474,1273.00771935161
-0.833862997203978,1273.01771935161
-1.08709435234748,1273.02771935161
-1.35142727311262,1273.03771935161
-1.61923717517205,1273.04771935161
-1.87975859412543,1273.05771935161
-2.12612142635706,1273.06771935161
-2.35609422274567,1273.07771935161
-2.56628620577984,1273.08771935161
-2.75610085680381,1273.09771935161
-2.92640700775697,1273.10771935161
-3.07936760440243,1273.11771935161
-3.21718794108745,1273.12771935161
-3.3431236175264,1273.13771935161
-3.46048220076251,1273.14771935161
-3.57170464556664,1273.15771935161
-3.6759163321086,1273.16771935161
-3.7734287088323,1273.17771935161
-3.86416017775646,1273.18771935161
-3.94831680065057,1273.19771935161
-4.02630296051795,1273.20771935161
-4.09788001930336,1273.21771935161
-4.16221465173429,1273.22771935161
-4.22019028886401,1273.23771935161
-4.27357027078609,1273.24771935161
-4.32334403616626,1273.25771935161
-4.37141766448612,1273.26771935161
-4.42004573792301,1273.27771935161
-4.4716397844109,1273.28771935161
-4.52808127918567,1273.29771935161
-4.58746344772378,1273.30771935161
-4.64113944886557,1273.31771935161
-4.67576063865959,1273.32771935161
-4.68326149214483,1273.33771935161
-4.66440149319383,1273.34771935161
-4.6312906811417,1273.35771935161
-4.60546142287097,1273.36771935161
-4.60322472060834,1273.37771935161
-4.62808795792304,1273.38771935161
-4.67059390608659,1273.39771935161
-4.71845966828521,1273.40771935161
-4.76213216424526,1273.41771935161
-4.7965702769525,1273.42771935161
-4.82054412113312,1273.43771935161
-4.83626723623505,1273.44771935161
-4.84734358068638,1273.45771935161
-4.85802978925374,1273.46771935161
-4.87142492083458,1273.47771935161
-4.88819682368703,1273.48771935161
-4.90867873458711,1273.49771935161
-4.93140018540131,1273.50771935161
-4.9552170523686,1273.51771935161
-4.97715708454656,1273.52771935161
-4.99576054031939,1273.53771935161
-5.01030819886604,1273.54771935161
-5.02139022276913,1273.55771935161
-5.02954104355012,1273.56771935161
-5.03500692481867,1273.57771935161
-5.03931096692022,1273.58771935161
-5.04391430448319,1273.59771935161
-5.05092280218677,1273.60771935161
-5.05975377146852,1273.61771935161
-5.06963754469514,1273.62771935161
-5.08004472097614,1273.63771935161
-5.08979113817569,1273.64771935161
-5.09848017297908,1273.65771935161
-5.104095003994,1273.66771935161
-5.10726529396497,1273.67771935161
-5.10973370468658,1273.68771935161
-5.11356560191301,1273.69771935161
-5.1210251679954,1273.70771935161
-5.13093713820297,1273.71771935161
-5.14246891397135,1273.72771935161
-5.15453534894027,1273.73771935161
-5.16571527794137,1273.74771935161
-5.17767753614743,1273.75771935161
-5.19013145302414,1273.76771935161
-5.20325675674138,1273.77771935161
-5.2162265828679,1273.78771935161
-5.22787632606217,1273.79771935161
-5.23902534147325,1273.80771935161
-5.2501561938924,1273.81771935161
-5.26202259923855,1273.82771935161
-5.27490769803805,1273.83771935161
-5.28866683613723,1273.84771935161
-5.30095786402751,1273.85771935161
-5.30956451170311,1273.86771935161
-5.31364814011109,1273.87771935161
-5.31336983931249,1273.88771935161
-5.31178839208147,1273.89771935161
-5.30969392617827,1273.90771935161
-5.30760446322186,1273.91771935161
-5.30445665081518,1273.92771935161
-5.30030800760497,1273.93771935161
-5.29441822541354,1273.94771935161
-5.28637689310647,1273.95771935161
-5.27560809666141,1273.96771935161
-5.26045763196832,1273.97771935161
-5.24081926294415,1273.98771935161
-5.21693263579423,1273.99771935161
-5.1910321566561,1274.00771935161
-5.16572594919421,1274.01771935161
-5.14301625051287,1274.02771935161
-5.1234609391371,1274.03771935161
-5.1074599452984,1274.04771935161
-5.09483568620121,1274.05771935161
-5.08502286667199,1274.06771935161
-5.07683152812118,1274.07771935161
-5.068293508906,1274.08771935161
-5.05806239503009,1274.09771935161
-5.04591770997295,1274.10771935161
-5.03158477133474,1274.11771935161
-5.01541103663266,1274.12771935161
-4.99821838204282,1274.13771935161
-4.9807228490212,1274.14771935161
-4.96226815485581,1274.15771935161
-4.93883802284417,1274.16771935161
-4.90640933317141,1274.17771935161
-4.85880309865999,1274.18771935161
-4.79500594309049,1274.19771935161
-4.71884457117324,1274.20771935161
-4.63554128110394,1274.21771935161
-4.54821550123393,1274.22771935161
-4.45624989410728,1274.23771935161
-4.35931527947213,1274.24771935161
-4.2561455353987,1274.25771935161
-4.14608411301896,1274.26771935161
-4.03121465472471,1274.27771935161
-3.91495630966806,1274.28771935161
-3.80029078046478,1274.29771935161
-3.68872932928454,1274.30771935161
-3.57408672482081,1274.31771935161
-3.43785611692155,1274.32771935161
-3.25727497348625,1274.33771935161
-3.03001183188831,1274.34771935161
-2.78099749897233,1274.35771935161
-2.547710518068,1274.36771935161
-2.36006691545347,1274.37771935161
-2.22768703866124,1274.38771935161
-2.14507603105169,1274.39771935161
-2.0953272972479,1274.40771935161
-2.0582966397018,1274.41771935161
-2.01905510814225,1274.42771935161
-1.96891008900472,1274.43771935161
-1.90729610012265,1274.44771935161
-1.8393296629693,1274.45771935161
-1.77170582185306,1274.46771935161
-1.71059487767478,1274.47771935161
-1.65628206242554,1274.48771935161
-1.60653067851835,1274.49771935161
-1.55827037403584,1274.50771935161
-1.50950664444111,1274.51771935161
-1.45911135131398,1274.52771935161
-1.40738620454767,1274.53771935161
-1.3557899234426,1274.54771935161
-1.30589623786898,1274.55771935161
-1.26087519295426,1274.56771935161
-1.2238861175585,1274.57771935161
-1.19619620540332,1274.58771935161
-1.17718464233686,1274.59771935161
-1.16251911144579,1274.60771935161
-1.14475305666851,1274.61771935161
-1.11778808634339,1274.62771935161
-1.07884936539521,1274.63771935161
-1.03544839584433,1274.64771935161
-1.00735933638447,1274.65771935161
-1.02102349723735,1274.66771935161
-1.09058928577127,1274.67771935161
-1.20474816845034,1274.68771935161
-1.33302217625742,1274.69771935161
-1.44717647074383,1274.70771935161
-1.53376760906501,1274.71771935161
-1.59365675352889,1274.72771935161
-1.63600577275913,1274.73771935161
-1.67058619270531,1274.74771935161
-1.70388736260088,1274.75771935161
-1.73920107998484,1274.76771935161
-1.77646490739975,1274.77771935161
-1.81420668891953,1274.78771935161
-1.84987960398678,1274.79771935161
-1.88161368466215,1274.80771935161
-1.91027649983561,1274.81771935161
-1.93674777367242,1274.82771935161
-1.9622232814262,1274.83771935161
-1.9864890738609,1274.84771935161
-2.00890741550947,1274.85771935161
-2.03015642213198,1274.86771935161
-2.05229656204173,1274.87771935161
-2.07652592143695,1274.88771935161
-2.10320754766338,1274.89771935161
-2.13142399404223,1274.90771935161
-2.16062736722769,1274.91771935161
-2.19003082950305,1274.92771935161
-2.21981538313804,1274.93771935161
-2.24915769366064,1274.94771935161
-2.27882852857533,1274.95771935161
-2.30779697308715,1274.96771935161
-2.33601920859988,1274.97771935161
-2.36305034085939,1274.98771935161
-2.38877771319214,1274.99771935161
-2.41426774815506,1275.00771935161
-2.43872237281257,1275.01771935161
-2.46242235059987,1275.02771935161
-2.48305910163503,1275.03771935161
-2.49948118167461,1275.04771935161
-2.50903357828467,1275.05771935161
-2.51080373097014,1275.06771935161
-2.50305517707464,1275.07771935161
-2.4855165171589,1275.08771935161
-2.46080956267727,1275.09771935161
-2.43029549255774,1275.10771935161
-2.39376152902048,1275.11771935161
-2.34927924129147,1275.12771935161
-2.2973213343181,1275.13771935161
-2.23836192594697,1275.14771935161
-2.17343229825579,1275.15771935161
-2.10280309701309,1275.16771935161
-2.02555522359203,1275.17771935161
-1.94348652469333,1275.18771935161
-1.86108574443431,1275.19771935161
-1.78674327319806,1275.20771935161
-1.72889615891065,1275.21771935161
-1.69038800026371,1275.22771935161
-1.67098015140854,1275.23771935161
-1.66967101597814,1275.24771935161
-1.68296304718125,1275.25771935161
-1.7062762216486,1275.26771935161
-1.7356760556453,1275.27771935161
-1.76895220315946,1275.28771935161
-1.80599693852436,1275.29771935161
-1.84611831283458,1275.30771935161
-1.89046410529665,1275.31771935161
-1.94048999974475,1275.32771935161
-1.99624829168495,1275.33771935161
-2.05626053663117,1275.34771935161
-2.11762180683916,1275.35771935161
-2.17389331837818,1275.36771935161
-2.21651933466089,1275.37771935161
-2.23932119674815,1275.38771935161
-2.23856306315962,1275.39771935161
-2.21630643540575,1275.40771935161
-2.17879600153366,1275.41771935161
-2.13287086858063,1275.42771935161
-2.08409660520632,1275.43771935161
-2.03603425985816,1275.44771935161
-1.98853147868699,1275.45771935161
-1.94017084814883,1275.46771935161
-1.88978692232675,1275.47771935161
-1.83589348736339,1275.48771935161
-1.7764996686637,1275.49771935161
-1.71217836047731,1275.50771935161
-1.64313417175977,1275.51771935161
-1.57213610026031,1275.52771935161
-1.50119980778416,1275.53771935161
-1.4318353389924,1275.54771935161
-1.3590271892039,1275.55771935161
-1.26508435401572,1275.56771935161
-1.13468504048811,1275.57771935161
-0.973802508196985,1275.58771935161
-0.806317319395619,1275.59771935161
-0.657893487230133,1275.60771935161
-0.543856530351795,1275.61771935161
-0.467603700509087,1275.62771935161
-0.422663172350152,1275.63771935161
-0.397190427741899,1275.64771935161
-0.381074660541393,1275.65771935161
-0.366873316876122,1275.66771935161
-0.350823635480487,1275.67771935161
-0.330763415807028,1275.68771935161
-0.307343820034011,1275.69771935161
-0.283804167902703,1275.70771935161
-0.262423180517802,1275.71771935161
-0.244767602055068,1275.72771935161
-0.229414450318901,1275.73771935161
-0.212248007619085,1275.74771935161
-0.189364294021395,1275.75771935161
-0.156570174714277,1275.76771935161
-0.110896537131655,1275.77771935161
-0.0520625990616909,1275.78771935161
0.0183547639622533,1275.79771935161
0.0989696627105408,1275.80771935161
0.188136214128051,1275.81771935161
0.284432360111218,1275.82771935161
0.382686664537309,1275.83771935161
0.478956180374422,1275.84771935161
0.568459927706366,1275.85771935161
0.648606282978435,1275.86771935161
0.718049233705291,1275.87771935161
0.777531757291893,1275.88771935161
0.830359635696306,1275.89771935161
0.879722572761873,1275.90771935161
0.928611410077771,1275.91771935161
0.978481825204045,1275.92771935161
1.02830025409048,1275.93771935161
1.07712844645563,1275.94771935161
1.12409136720595,1275.95771935161
1.16870767448011,1275.96771935161
1.21155743800212,1275.97771935161
1.25241904678755,1275.98771935161
1.29063760931916,1275.99771935161
1.32602914673633,1276.00771935161
1.35759790901276,1276.01771935161
1.38600152239521,1276.02771935161
1.41239321299651,1276.03771935161
1.43686901207229,1276.04771935161
1.45980745516147,1276.05771935161
1.48172523130742,1276.06771935161
1.50272214450422,1276.07771935161
1.5228217568737,1276.08771935161
1.54401817090585,1276.09771935161
1.5660333128735,1276.10771935161
1.58894027105342,1276.11771935161
1.61262507930173,1276.12771935161
1.6352168623671,1276.13771935161
1.65521128847944,1276.14771935161
1.67119599127906,1276.15771935161
1.68281984268175,1276.16771935161
1.69049385669153,1276.17771935161
1.69578715787667,1276.18771935161
1.70077231102761,1276.19771935161
1.70776379535648,1276.20771935161
1.71806920263218,1276.21771935161
1.73206082177331,1276.22771935161
1.74807296395324,1276.23771935161
1.76419638278262,1276.24771935161
1.77845489328653,1276.25771935161
1.78975353367539,1276.26771935161
1.7979141781213,1276.27771935161
1.80286280871798,1276.28771935161
1.80527117372839,1276.29771935161
1.80613180651458,1276.30771935161
1.80515436986871,1276.31771935161
1.80170884381108,1276.32771935161
1.79579259423345,1276.33771935161
1.78783230921837,1276.34771935161
1.77870097418945,1276.35771935161
1.76823167478263,1276.36771935161
1.75862502400478,1276.37771935161
1.74916722568167,1276.38771935161
1.7405075482816,1276.39771935161
1.73181398791895,1276.40771935161
1.72273899275706,1276.41771935161
1.71307362655581,1276.42771935161
1.70205505328838,1276.43771935161
1.6915010954632,1276.44771935161
1.68084060204615,1276.45771935161
1.67105524486316,1276.46771935161
1.66144071396424,1276.47771935161
1.65210758541987,1276.48771935161
1.64178351240867,1276.49771935161
1.62922486184929,1276.50771935161
1.61464304999084,1276.51771935161
1.59939944305052,1276.52771935161
1.58398100263407,1276.53771935161
1.56995929999859,1276.54771935161
1.55809873765602,1276.55771935161
1.54843217226618,1276.56771935161
1.5401827800458,1276.57771935161
1.53237773986652,1276.58771935161
1.52507241522495,1276.59771935161
1.51881910638629,1276.60771935161
1.51473919216178,1276.61771935161
1.51167723984164,1276.62771935161
1.50883304340303,1276.63771935161
1.50512628611327,1276.64771935161
1.50023058125008,1276.65771935161
1.49460908918139,1276.66771935161
1.48889256289104,1276.67771935161
1.48385113317957,1276.68771935161
1.48011363788348,1276.69771935161
1.47939642618249,1276.70771935161
1.48303373641145,1276.71771935161
1.49362456075629,1276.72771935161
1.51252801724124,1276.73771935161
1.54019436468248,1276.74771935161
1.57506140658057,1276.75771935161
1.61386770480059,1276.76771935161
1.65394760009626,1276.77771935161
1.69309482517605,1276.78771935161
1.72949392178099,1276.79771935161
1.76040649917775,1276.80771935161
1.78630140508238,1276.81771935161
1.80616876254761,1276.82771935161
1.81957935559935,1276.83771935161
1.8276671522137,1276.84771935161
1.82992415860197,1276.85771935161
1.82749209143467,1276.86771935161
1.82128691493613,1276.87771935161
1.81293209896542,1276.88771935161
1.80367056788077,1276.89771935161
1.79531371318676,1276.90771935161
1.78718651610652,1276.91771935161
1.77630063100976,1276.92771935161
1.76143027207737,1276.93771935161
1.74222945092905,1276.94771935161
1.71846570297589,1276.95771935161
1.69058276581701,1276.96771935161
1.65871973839046,1276.97771935161
1.62190170504157,1276.98771935161
1.57985923137242,1276.99771935161
1.53353768408236,1277.00771935161
1.48446734472191,1277.01771935161
1.43531055265316,1277.02771935161
1.38873894794319,1277.03771935161
1.34587594097775,1277.04771935161
1.30789649388175,1277.05771935161
1.27472623733433,1277.06771935161
1.24750432717813,1277.07771935161
1.22790304968414,1277.08771935161
1.21453464491326,1277.09771935161
1.20663124813949,1277.10771935161
1.20189658875803,1277.11771935161
1.19726480147492,1277.12771935161
1.18734421400753,1277.13771935161
1.16854948617282,1277.14771935161
1.13779858252256,1277.15771935161
1.09329634375883,1277.16771935161
1.03368794744601,1277.17771935161
0.95382590794463,1277.18771935161
0.842918073326926,1277.19771935161
0.690410153414398,1277.20771935161
0.490607907580234,1277.21771935161
0.245616290615241,1277.22771935161
-0.0357414604041344,1277.23771935161
-0.340069263144984,1277.24771935161
-0.647272160832619,1277.25771935161
-0.936071563005511,1277.26771935161
-1.18715749101201,1277.27771935161
-1.39060032620785,1277.28771935161
-1.54618071776188,1277.29771935161
-1.6618692735138,1277.30771935161
-1.74562293776111,1277.31771935161
-1.80406602038398,1277.32771935161
-1.84151789593314,1277.33771935161
-1.86287512226786,1277.34771935161
-1.87453376047515,1277.35771935161
-1.88511278507618,1277.36771935161
-1.90015286806595,1277.37771935161
-1.92256270038457,1277.38771935161
-1.95222279673523,1277.39771935161
-1.98723206227448,1277.40771935161
-2.02602570346901,1277.41771935161
-2.06816137314205,1277.42771935161
-2.11371616979393,1277.43771935161
-2.16269154726265,1277.44771935161
-2.21469674709257,1277.45771935161
-2.26855473977684,1277.46771935161
-2.32249145338834,1277.47771935161
-2.37463525338293,1277.48771935161
-2.42106652544764,1277.49771935161
-2.46029156438252,1277.50771935161
-2.4919632021382,1277.51771935161
-2.51525446815935,1277.52771935161
-2.53123349943276,1277.53771935161
-2.54168101614489,1277.54771935161
-2.54702847869083,1277.55771935161
-2.54817079735826,1277.56771935161
-2.54609530704928,1277.57771935161
-2.54013702932949,1277.58771935161
-2.53042252087775,1277.59771935161
-2.51586531755583,1277.60771935161
-2.49581799022511,1277.61771935161
-2.47052450320303,1277.62771935161
-2.44006874807087,1277.63771935161
-2.40453141265508,1277.64771935161
-2.36475106522424,1277.65771935161
-2.32242599953276,1277.66771935161
-2.27715600533083,1277.67771935161
-2.23102020621945,1277.68771935161
-2.18425040621942,1277.69771935161
-2.13611240249696,1277.70771935161
-2.08512322206906,1277.71771935161
-2.03024100528351,1277.72771935161
-1.9701151811887,1277.73771935161
-1.90626622622234,1277.74771935161
-1.84030955676902,1277.75771935161
-1.77222402422015,1277.76771935161
-1.70236039136192,1277.77771935161
-1.63171225574,1277.78771935161
-1.56155886322841,1277.79771935161
-1.49458608495564,1277.80771935161
-1.43252356587338,1277.81771935161
-1.38037785431979,1277.82771935161
-1.34069860080563,1277.83771935161
-1.31574140094147,1277.84771935161
-1.30686146957191,1277.85771935161
-1.31383786084891,1277.86771935161
-1.33397410763293,1277.87771935161
-1.36166266179874,1277.88771935161
-1.39165772204438,1277.89771935161
-1.41732421008453,1277.90771935161
-1.43443058637076,1277.91771935161
-1.44027166875133,1277.92771935161
-1.43713379958815,1277.93771935161
-1.42631097616584,1277.94771935161
-1.40937366771886,1277.95771935161
-1.38356674793875,1277.96771935161
-1.34641382205767,1277.97771935161
-1.29871316820676,1277.98771935161
-1.24168898042956,1277.99771935161
-1.17867859588276,1278.00771935161
-1.10806598616065,1278.01771935161
-1.02105125606363,1278.02771935161
-0.911036802211679,1278.03771935161
-0.781692345150566,1278.04771935161
-0.642675954016952,1278.05771935161
-0.506960653887297,1278.06771935161
-0.387052761524063,1278.07771935161
-0.291235454517864,1278.08771935161
-0.222572355131866,1278.09771935161
-0.177951568221898,1278.10771935161
-0.152848987193688,1278.11771935161
-0.140021037585209,1278.12771935161
-0.133063053170964,1278.13771935161
-0.127781144123998,1278.14771935161
-0.120209703842045,1278.15771935161
-0.108964013888921,1278.16771935161
-0.093923553037242,1278.17771935161
-0.0756395442760555,1278.18771935161
-0.0553590600371977,1278.19771935161
-0.0316457548183777,1278.20771935161
-0.00588002357328914,1278.21771935161
0.021399651384659,1278.22771935161
0.0507090551844392,1278.23771935161
0.081559616000987,1278.24771935161
0.115938142022824,1278.25771935161
0.15672782161923,1278.26771935161
0.203742424654149,1278.27771935161
0.256432492057802,1278.28771935161
0.311173159278051,1278.29771935161
0.364605434953265,1278.30771935161
0.413367807395596,1278.31771935161
0.455374229954038,1278.32771935161
0.49072181031057,1278.33771935161
0.520912739713601,1278.34771935161
0.546980208529158,1278.35771935161
0.57026342649985,1278.36771935161
0.592451254068819,1278.37771935161
0.613845174290306,1278.38771935161
0.633258423158136,1278.39771935161
0.650208749824419,1278.40771935161
0.664006058933141,1278.41771935161
0.674220901031254,1278.42771935161
0.682520147392443,1278.43771935161
0.691003666707203,1278.44771935161
0.700217859550586,1278.45771935161
0.710359139344237,1278.46771935161
0.72000631780577,1278.47771935161
0.728948451254521,1278.48771935161
0.735676018625419,1278.49771935161
0.7404178310772,1278.50771935161
0.742751505959749,1278.51771935161
0.743347306739228,1278.52771935161
0.743133835446938,1278.53771935161
0.743440431538989,1278.54771935161
0.744488927477526,1278.55771935161
0.746772286356263,1278.56771935161
0.749985326837959,1278.57771935161
0.753138843016557,1278.58771935161
0.756287706620001,1278.59771935161
0.759335485055881,1278.60771935161
0.762130327874578,1278.61771935161
0.765243651764635,1278.62771935161
0.76798711122981,1278.63771935161
0.770925331283905,1278.64771935161
0.774036816438783,1278.65771935161
0.77815024814349,1278.66771935161
0.784264320113092,1278.67771935161
0.791879106250637,1278.68771935161
0.80177684187412,1278.69771935161
0.815360610736833,1278.70771935161
0.832987810152175,1278.71771935161
0.855251499424253,1278.72771935161
0.88109449699117,1278.73771935161
0.910507649683604,1278.74771935161
0.942610797880671,1278.75771935161
0.975262757317198,1278.76771935161
1.00643211790209,1278.77771935161
1.03532414661876,1278.78771935161
1.0611899684029,1278.79771935161
1.0835158068356,1278.80771935161
1.10205205400311,1278.81771935161
1.11783527056367,1278.82771935161
1.13101724535049,1278.83771935161
1.14343557703789,1278.84771935161
1.15559477965479,1278.85771935161
1.16742060365983,1278.86771935161
1.17947395984733,1278.87771935161
1.19166510835262,1278.88771935161
1.20407015701662,1278.89771935161
1.21673095957261,1278.90771935161
1.22941344088744,1278.91771935161
1.24197721427077,1278.92771935161
1.25542787012754,1278.93771935161
1.26959987377566,1278.94771935161
1.28504072762028,1278.95771935161
1.30087877787188,1278.96771935161
1.3160967218477,1278.97771935161
1.32977208853549,1278.98771935161
1.34145549473988,1278.99771935161
1.35118380567206,1279.00771935161
1.3593904365128,1279.01771935161
1.36674790042029,1279.02771935161
1.37311395568596,1279.03771935161
1.37888519086948,1279.04771935161
1.38407863822491,1279.05771935161
1.38845914147538,1279.06771935161
1.3924036690508,1279.07771935161
1.39530752501127,1279.08771935161
1.3971093721799,1279.09771935161
1.39757324832609,1279.10771935161
1.39701324072603,1279.11771935161
1.39588310667175,1279.12771935161
1.39433329116856,1279.13771935161
1.393186924866,1279.14771935161
1.39253576947822,1279.15771935161
1.39239950368772,1279.16771935161
1.39307281605722,1279.17771935161
1.39441718622295,1279.18771935161
1.39655615134797,1279.19771935161
1.39933904629736,1279.20771935161
1.40236941162401,1279.21771935161
1.40551182473686,1279.22771935161
1.40957170369758,1279.23771935161
1.41490912724189,1279.24771935161
1.42110672384491,1279.25771935161
1.42919877870556,1279.26771935161
1.4383602246893,1279.27771935161
1.44846723094554,1279.28771935161
1.45873153114037,1279.29771935161
1.46850108838466,1279.30771935161
1.47699691782701,1279.31771935161
1.48394713304336,1279.32771935161
1.48890939671274,1279.33771935161
1.49260425057716,1279.34771935161
1.49401187697517,1279.35771935161
1.49402677288969,1279.36771935161
1.49227358607108,1279.37771935161
1.48860056656249,1279.38771935161
1.48367573565514,1279.39771935161
1.47684325502452,1279.40771935161
1.46899552181655,1279.41771935161
1.46055479731406,1279.42771935161
1.45105548927193,1279.43771935161
1.44120805764725,1279.44771935161
1.43045526277199,1279.45771935161
1.41799096592967,1279.46771935161
1.40356073301852,1279.47771935161
1.38865401082336,1279.48771935161
1.37353483988003,1279.49771935161
1.35641508365488,1279.50771935161
1.33254860860613,1279.51771935161
1.2995030379846,1279.52771935161
1.258472395514,1279.53771935161
1.21196387373688,1279.54771935161
1.16367705227847,1279.55771935161
1.11509017913978,1279.56771935161
1.06689486443991,1279.57771935161
1.0203336416904,1279.58771935161
0.976459945649572,1279.59771935161
0.934383645672887,1279.60771935161
0.895411210203031,1279.61771935161
0.859273329481645,1279.62771935161
0.825674838363405,1279.63771935161
0.794543064403933,1279.64771935161
0.765840588709367,1279.65771935161
0.738559056988693,1279.66771935161
0.71299929720739,1279.67771935161
0.688044731765075,1279.68771935161
0.664336142718484,1279.69771935161
0.641866402760945,1279.70771935161
0.620500993440944,1279.71771935161
0.600725668569064,1279.72771935161
0.582385774707431,1279.73771935161
0.565364308698187,1279.74771935161
0.54985720266719,1279.75771935161
0.536314972348564,1279.76771935161
0.526334252487961,1279.77771935161
0.521466873865463,1279.78771935161
0.523010926141936,1279.79771935161
0.530476038261048,1279.80771935161
0.54242318215689,1279.81771935161
0.55758594222597,1279.82771935161
0.574754334967757,1279.83771935161
0.592433233845479,1279.84771935161
0.609841772098906,1279.85771935161
0.625324185938631,1279.86771935161
0.637904128975872,1279.87771935161
0.647739951670695,1279.88771935161
0.654777351365487,1279.89771935161
0.659566249826286,1279.90771935161
0.662440929316283,1279.91771935161
0.663599954456815,1279.92771935161
0.66379534739734,1279.93771935161
0.663626882646801,1279.94771935161
0.662892128851961,1279.95771935161
0.661804072888013,1279.96771935161
0.660625013980051,1279.97771935161
0.659285269487265,1279.98771935161
0.657743018075838,1279.99771935161
0.656028713682549,1280.00771935161
0.65413433138452,1280.01771935161
0.652084586733966,1280.02771935161
0.649294990666823,1280.03771935161
0.645522091290471,1280.04771935161
0.640801753688164,1280.05771935161
0.635260171164847,1280.06771935161
0.62880310737551,1280.07771935161
0.621639963714114,1280.08771935161
0.614921477631412,1280.09771935161
0.608577442050827,1280.10771935161
0.60224476548099,1280.11771935161
0.596586930908834,1280.12771935161
0.592569018343945,1280.13771935161
0.589770697483402,1280.14771935161
0.588473624374993,1280.15771935161
0.588641787272941,1280.16771935161
0.589151941086208,1280.17771935161
0.589382358420719,1280.18771935161
0.58936713019915,1280.19771935161
0.588820645918178,1280.20771935161
0.587954679406072,1280.21771935161
0.586738035552943,1280.22771935161
0.584577970479906,1280.23771935161
0.582468151838243,1280.24771935161
0.579271259380464,1280.25771935161
0.575443794667194,1280.26771935161
0.570198121641103,1280.27771935161
0.563562547721728,1280.28771935161
0.557010099048978,1280.29771935161
0.549930701728764,1280.30771935161
0.542095240814487,1280.31771935161
0.534507751083469,1280.32771935161
0.526335267459688,1280.33771935161
0.517836392401493,1280.34771935161
0.508822601644719,1280.35771935161
0.499300501180867,1280.36771935161
0.489569214181453,1280.37771935161
0.479619518545888,1280.38771935161
0.469692210509294,1280.39771935161
0.460593653365575,1280.40771935161
0.451727187173565,1280.41771935161
0.443311762569948,1280.42771935161
0.435280397591882,1280.43771935161
0.426556551080554,1280.44771935161
0.417791136526441,1280.45771935161
0.409258585147566,1280.46771935161
0.401062992147431,1280.47771935161
0.393594109153074,1280.48771935161
0.385503952458131,1280.49771935161
0.377641799605913,1280.50771935161
0.369653244290369,1280.51771935161
0.361718377355215,1280.52771935161
0.353631801610867,1280.53771935161
0.345530000948149,1280.54771935161
0.338004037043927,1280.55771935161
0.330313981786078,1280.56771935161
0.322404510018336,1280.57771935161
0.314586940103122,1280.58771935161
0.306758655941187,1280.59771935161
0.299476463597882,1280.60771935161
0.292757037045095,1280.61771935161
0.286516457303436,1280.62771935161
0.280443131781607,1280.63771935161
0.273686664378511,1280.64771935161
0.266239724532002,1280.65771935161
0.258322798157574,1280.66771935161
0.250252783770012,1280.67771935161
0.242484588835819,1280.68771935161
0.234676479582125,1280.69771935161
0.227797795823862,1280.70771935161
0.221385925227699,1280.71771935161
0.215184728499533,1280.72771935161
0.208886964277288,1280.73771935161
0.20230205115592,1280.74771935161
0.195772697295849,1280.75771935161
0.188993010027527,1280.76771935161
0.182073270785476,1280.77771935161
0.175844280011005,1280.78771935161
0.169086461674103,1280.79771935161
0.162526435184142,1280.80771935161
0.155336661501634,1280.81771935161
0.147978115801654,1280.82771935161
0.140306769099821,1280.83771935161
0.132738859292301,1280.84771935161
0.125994421855043,1280.85771935161
0.119250781035038,1280.86771935161
0.113606433679748,1280.87771935161
0.107982919590745,1280.88771935161
0.102363752229416,1280.89771935161
0.0968522610241313,1280.90771935161
0.0908389843802012,1280.91771935161
0.0852217248751048,1280.92771935161
0.0804552602851803,1280.93771935161
0.0783951450034307,1280.94771935161
0.0790694438822209,1280.95771935161
0.0855086013082915,1280.96771935161
0.0977161654465023,1280.97771935161
0.115625294206215,1280.98771935161
0.138062442436766,1280.99771935161
0.163636395757423,1281.00771935161
0.191534013869418,1281.01771935161
0.219839938216039,1281.02771935161
0.247654773684452,1281.03771935161
0.272801868606372,1281.04771935161
0.295954018115994,1281.05771935161
0.31616038136917,1281.06771935161
0.333554803750406,1281.07771935161
0.347906687864692,1281.08771935161
0.358844319011994,1281.09771935161
0.367028778757553,1281.10771935161
0.37208396714979,1281.11771935161
0.374956342497563,1281.12771935161
0.376140771186102,1281.13771935161
0.37686721918754,1281.14771935161
0.377349803675914,1281.15771935161
0.378576470690721,1281.16771935161
0.380304007590662,1281.17771935161
0.38208015843841,1281.18771935161
0.38358261682457,1281.19771935161
0.384625348726655,1281.20771935161
0.384663046031667,1281.21771935161
0.384718576211528,1281.22771935161
0.384569720047279,1281.23771935161
0.384168598044783,1281.24771935161
0.383120330421376,1281.25771935161
0.38208300624373,1281.26771935161
0.381181831492403,1281.27771935161
0.381559178554461,1281.28771935161
0.382876197208183,1281.29771935161
0.385605745464317,1281.30771935161
0.388868419154431,1281.31771935161
0.392903991957759,1281.32771935161
0.39728340295412,1281.33771935161
0.4021255814117,1281.34771935161
0.407721965212429,1281.35771935161
0.41353644247273,1281.36771935161
0.419440149885836,1281.37771935161
0.42539839876413,1281.38771935161
0.430488006514564,1281.39771935161
0.435056272216981,1281.40771935161
0.438859152119,1281.41771935161
0.441299887673075,1281.42771935161
0.442701571919533,1281.43771935161
0.44291975757245,1281.44771935161
0.442866747016012,1281.45771935161
0.442033702368446,1281.46771935161
0.440999851151665,1281.47771935161
0.439223169278727,1281.48771935161
0.436801870994933,1281.49771935161
0.433896498278699,1281.50771935161
0.430269053682691,1281.51771935161
0.426778682598096,1281.52771935161
0.423722823524424,1281.53771935161
0.420471038394609,1281.54771935161
0.417051475150759,1281.55771935161
0.413730925144164,1281.56771935161
0.410253322515807,1281.57771935161
0.406502431595597,1281.58771935161
0.402205994874286,1281.59771935161
0.397395395711543,1281.60771935161
0.39251909739524,1281.61771935161
0.387367634471229,1281.62771935161
0.382594465672943,1281.63771935161
0.377817040935037,1281.64771935161
0.373211299489642,1281.65771935161
0.368708040514457,1281.66771935161
0.364886795549832,1281.67771935161
0.361109574390212,1281.68771935161
0.35692381927807,1281.69771935161
0.35268878113473,1281.70771935161
0.348334233846599,1281.71771935161
0.343676015640589,1281.72771935161
0.338503356714863,1281.73771935161
0.333661839583619,1281.74771935161
0.328627634821915,1281.75771935161
0.323953162019069,1281.76771935161
0.319524333634235,1281.77771935161
0.31456083828672,1281.78771935161
0.30959067807467,1281.79771935161
0.30404401914874,1281.80771935161
0.298084324077252,1281.81771935161
0.291965347302323,1281.82771935161
0.285934428621013,1281.83771935161
0.280123495015167,1281.84771935161
0.274118469987069,1281.85771935161
0.268325223055699,1281.86771935161
0.26278970937753,1281.87771935161
0.257376105859768,1281.88771935161
0.252073904235492,1281.89771935161
0.246600804463523,1281.90771935161
0.24130829884859,1281.91771935161
0.235642061869427,1281.92771935161
0.229610804298762,1281.93771935161
0.223684445177541,1281.94771935161
0.217929314830734,1281.95771935161
0.213957874093229,1281.96771935161
0.212728709087811,1281.97771935161
0.216533251057119,1281.98771935161
0.226494641381007,1281.99771935161
0.243862512973783,1282.00771935161
0.267203132152932,1282.01771935161
0.295929950907323,1282.02771935161
0.329273619489219,1282.03771935161
0.365127366787924,1282.04771935161
0.401417203530607,1282.05771935161
0.43705707781294,1282.06771935161
0.470729813383319,1282.07771935161
0.500866159882787,1282.08771935161
0.527054196217222,1282.09771935161
0.549033344724754,1282.10771935161
0.566884776139657,1282.11771935161
0.581386796766085,1282.12771935161
0.592715017479336,1282.13771935161
0.60169937365777,1282.14771935161
0.609001242316922,1282.15771935161
0.615035400798605,1282.16771935161
0.619889476819439,1282.17771935161
0.623581353678788,1282.18771935161
0.626759366928076,1282.19771935161
0.62981421815859,1282.20771935161
0.632278920577237,1282.21771935161
0.635101192731015,1282.22771935161
0.63792523557389,1282.23771935161
0.640668144030832,1282.24771935161
0.642314172321508,1282.25771935161
0.643171104988639,1282.26771935161
0.643299359339913,1282.27771935161
0.642734296502957,1282.28771935161
0.641297942232693,1282.29771935161
0.639835372632177,1282.30771935161
0.638838084918561,1282.31771935161
0.638356410893687,1282.32771935161
0.6387297885226,1282.33771935161
0.639524149605866,1282.34771935161
0.641345376153213,1282.35771935161
0.643337464074511,1282.36771935161
0.646536896129542,1282.37771935161
0.650161272750555,1282.38771935161
0.65394987010868,1282.39771935161
0.658680859516974,1282.40771935161
0.662758995862236,1282.41771935161
0.666742345238248,1282.42771935161
0.670366572742582,1282.43771935161
0.672790875463912,1282.44771935161
0.674658085343732,1282.45771935161
0.675640376604128,1282.46771935161
0.675569590519263,1282.47771935161
0.674222791514389,1282.48771935161
0.671101982919878,1282.49771935161
0.667253187382859,1282.50771935161
0.662224130762314,1282.51771935161
0.65686452600902,1282.52771935161
0.65063509479686,1282.53771935161
0.643422673283926,1282.54771935161
0.636931435368588,1282.55771935161
0.630678301039831,1282.56771935161
0.624341007780157,1282.57771935161
0.618205050031853,1282.58771935161
0.611572454690687,1282.59771935161
0.60500196541079,1282.60771935161
0.598427647152648,1282.61771935161
0.591582571326914,1282.62771935161
0.584346062541221,1282.63771935161
0.57690169419416,1282.64771935161
0.569273151835671,1282.65771935161
0.561173251428067,1282.66771935161
0.553414647448476,1282.67771935161
0.545880032234385,1282.68771935161
0.538508555247343,1282.69771935161
0.531710977680201,1282.70771935161
0.525184031039334,1282.71771935161
0.518881623389073,1282.72771935161
0.512581584457809,1282.73771935161
0.506463075276554,1282.74771935161
0.499667373396949,1282.75771935161
0.493181002151366,1282.76771935161
0.485836998996778,1282.77771935161
0.478532014652676,1282.78771935161
0.470877895182801,1282.79771935161
0.463086648120561,1282.80771935161
0.455473850901698,1282.81771935161
0.44782395344228,1282.82771935161
0.440313433113057,1282.83771935161
0.433022404606841,1282.84771935161
0.425692787875571,1282.85771935161
0.417744756741633,1282.86771935161
0.409943980468549,1282.87771935161
0.40164809213782,1282.88771935161
0.393108593745598,1282.89771935161
0.384615568013928,1282.90771935161
0.376539839595152,1282.91771935161
0.369114958681411,1282.92771935161
0.361298275042549,1282.93771935161
0.353487173498706,1282.94771935161
0.345838109470553,1282.95771935161
0.338425008176764,1282.96771935161
0.331669876120381,1282.97771935161
0.32491294545779,1282.98771935161
0.318483392212481,1282.99771935161
0.31115399783843,1283.00771935161
0.303464462838627,1283.01771935161
0.294892783231491,1283.02771935161
0.286577036928647,1283.03771935161
0.278827353325783,1283.04771935161
0.273580130327391,1283.05771935161
0.272680416063122,1283.06771935161
0.278305429557451,1283.07771935161
0.291656190595992,1283.08771935161
0.313219860459237,1283.09771935161
0.342968932010149,1283.10771935161
0.37934995541626,1283.11771935161
0.421272701727413,1283.12771935161
0.466297956000595,1283.13771935161
0.511424829027538,1283.14771935161
0.5548071185817,1283.15771935161
0.595271977255929,1283.16771935161
0.631014664181356,1283.17771935161
0.661327854315991,1283.18771935161
0.68539935329098,1283.19771935161
0.704058309531936,1283.20771935161
0.717580621524544,1283.21771935161
0.727145622552537,1283.22771935161
0.733934763535982,1283.23771935161
0.738850823578877,1283.24771935161
0.741157005224823,1283.25771935161
0.742248941031859,1283.26771935161
0.74261748644227,1283.27771935161
0.742664038988114,1283.28771935161
0.743357942521675,1283.29771935161
0.743650584371888,1283.30771935161
0.744418859055125,1283.31771935161
0.745317314834564,1283.32771935161
0.745501876113823,1283.33771935161
0.744773265022331,1283.34771935161
0.741751104285375,1283.35771935161
0.737213919618714,1283.36771935161
0.731626644072403,1283.37771935161
0.726202747924085,1283.38771935161
0.721336686519241,1283.39771935161
0.717054420509296,1283.40771935161
0.714053180148039,1283.41771935161
0.712587176518286,1283.42771935161
0.712268738376357,1283.43771935161
0.713067957881445,1283.44771935161
0.714769412148133,1283.45771935161
0.71692892351979,1283.46771935161
0.719383670739798,1283.47771935161
0.721427676050519,1283.48771935161
0.72388875343875,1283.49771935161
0.725792765509827,1283.50771935161
0.727623741792485,1283.51771935161
0.728756731279271,1283.52771935161
0.728922623074318,1283.53771935161
0.727976023699799,1283.54771935161
0.725860752886834,1283.55771935161
0.722441990200287,1283.56771935161
0.717756937628109,1283.57771935161
0.712060580054396,1283.58771935161
0.704756488111936,1283.59771935161
0.696987264597891,1283.60771935161
0.689175547213147,1283.61771935161
0.680961296322665,1283.62771935161
0.672213486953867,1283.63771935161
0.66360635250739,1283.64771935161
0.65464403664382,1283.65771935161
0.645342777260059,1283.66771935161
0.636555538999636,1283.67771935161
0.628197833874767,1283.68771935161
0.619593495916802,1283.69771935161
0.610912850431883,1283.70771935161
0.602199805159498,1283.71771935161
0.593181123846874,1283.72771935161
0.584500755326968,1283.73771935161
0.575381605855165,1283.74771935161
0.566309757639391,1283.75771935161
0.557242650272624,1283.76771935161
0.548576909742008,1283.77771935161
0.539562006610262,1283.78771935161
0.530741113365441,1283.79771935161
0.522028512852497,1283.80771935161
0.512725412948401,1283.81771935161
0.503465715389045,1283.82771935161
0.49418774465978,1283.83771935161
0.484777731858517,1283.84771935161
0.475484508234157,1283.85771935161
0.466014632833177,1283.86771935161
0.456439974133983,1283.87771935161
0.446899842674177,1283.88771935161
0.437575986392269,1283.89771935161
0.428484605235299,1283.90771935161
0.419788375756528,1283.91771935161
0.410935937256814,1283.92771935161
0.40189831234948,1283.93771935161
0.392713650205977,1283.94771935161
0.382868102967976,1283.95771935161
0.373376129701258,1283.96771935161
0.363926079216314,1283.97771935161
0.354568259354459,1283.98771935161
0.345609337739747,1283.99771935161
0.336880185190439,1284.00771935161
0.328391458691967,1284.01771935161
0.320396575248275,1284.02771935161
0.312604710032232,1284.03771935161
0.304844537170802,1284.04771935161
0.296790739934422,1284.05771935161
0.288616705354904,1284.06771935161
0.280541480868525,1284.07771935161
0.272353948442249,1284.08771935161
0.263742096801473,1284.09771935161
0.255016916214142,1284.10771935161
0.245782727559249,1284.11771935161
0.237138891095854,1284.12771935161
0.228641626125113,1284.13771935161
0.220802849367606,1284.14771935161
0.213069976862447,1284.15771935161
0.205829298578779,1284.16771935161
0.198609184854555,1284.17771935161
0.191297476107979,1284.18771935161
0.1837460259499,1284.19771935161
0.176088732543084,1284.20771935161
0.168392312006584,1284.21771935161
0.160811783108219,1284.22771935161
0.152763833930302,1284.23771935161
0.14505017402229,1284.24771935161
0.137776151048925,1284.25771935161
0.131459257675806,1284.26771935161
0.127837816465029,1284.27771935161
0.128424644982841,1284.28771935161
0.136358044368929,1284.29771935161
0.153189991082371,1284.30771935161
0.179073578620275,1284.31771935161
0.214473808844362,1284.32771935161
0.257770561904092,1284.33771935161
0.307303815681486,1284.34771935161
0.360644976479105,1284.35771935161
0.413755948139133,1284.36771935161
0.465152385337208,1284.37771935161
0.512499525844127,1284.38771935161
0.554602362566698,1284.39771935161
0.590274273535014,1284.40771935161
0.619484709405756,1284.41771935161
0.642426021323361,1284.42771935161
0.659420536078766,1284.43771935161
0.670969501534468,1284.44771935161
0.677351238889101,1284.45771935161
0.680659310343898,1284.46771935161
0.6814037219435,1284.47771935161
0.680651470627345,1284.48771935161
0.679189822837816,1284.49771935161
0.677197034821147,1284.50771935161
0.675790311651733,1284.51771935161
0.674091247432546,1284.52771935161
0.671951865200094,1284.53771935161
0.668968514622122,1284.54771935161
0.665246832421608,1284.55771935161
0.661006593473401,1284.56771935161
0.65593531430808,1284.57771935161
0.650330827638162,1284.58771935161
0.644198719164943,1284.59771935161
0.638076655926945,1284.60771935161
0.632540474738698,1284.61771935161
0.627749219187101,1284.62771935161
0.624595868065631,1284.63771935161
0.622565777531978,1284.64771935161
0.621833741767664,1284.65771935161
0.622252421777086,1284.66771935161
0.623880430441227,1284.67771935161
0.626128603835645,1284.68771935161
0.628577930623658,1284.69771935161
0.631497191011444,1284.70771935161
0.634836233905129,1284.71771935161
0.637801376169612,1284.72771935161
0.640544766800753,1284.73771935161
0.642398661487587,1284.74771935161
0.642733131007683,1284.75771935161
0.642228682225788,1284.76771935161
0.640457309255328,1284.77771935161
0.63721006978338,1284.78771935161
0.632197328518457,1284.79771935161
0.625816488225833,1284.80771935161
0.618505774484193,1284.81771935161
0.610620021644587,1284.82771935161
0.601888501379717,1284.83771935161
0.592596359167485,1284.84771935161
0.582902287123821,1284.85771935161
0.573330437409467,1284.86771935161
0.563246977551101,1284.87771935161
0.553017135889088,1284.88771935161
0.542656940987848,1284.89771935161
0.532641754072349,1284.90771935161
0.522916365814088,1284.91771935161
0.513549749364147,1284.92771935161
0.50456027237299,1284.93771935161
0.495622584849377,1284.94771935161
0.487362526365315,1284.95771935161
0.47854070942561,1284.96771935161
0.469283974616959,1284.97771935161
0.459636564412551,1284.98771935161
0.449673134669595,1284.99771935161
0.440277189834937,1285.00771935161
0.430930822358144,1285.01771935161
0.422385827946578,1285.02771935161
0.413605034475603,1285.03771935161
0.405020931018669,1285.04771935161
0.39635154915643,1285.05771935161
0.387071327012955,1285.06771935161
0.377677009763334,1285.07771935161
0.368262749440702,1285.08771935161
0.358705239641953,1285.09771935161
0.349179096148635,1285.10771935161
0.339479364599017,1285.11771935161
0.329966875230658,1285.12771935161
0.320698462940936,1285.13771935161
0.311495119834199,1285.14771935161
0.302377613868634,1285.15771935161
0.293014067366539,1285.16771935161
0.284176462516087,1285.17771935161
0.274964071082804,1285.18771935161
0.265681586989993,1285.19771935161
0.256858241003675,1285.20771935161
0.24837493813365,1285.21771935161
0.23976538113618,1285.22771935161
0.231250893014388,1285.23771935161
0.222605534251522,1285.24771935161
0.213450458049883,1285.25771935161
0.204030577169399,1285.26771935161
0.194407999703763,1285.27771935161
0.185163526157079,1285.28771935161
0.175965597103026,1285.29771935161
0.167158706357985,1285.30771935161
0.1594114243545,1285.31771935161
0.151954782720978,1285.32771935161
0.144499456947786,1285.33771935161
0.137734309394491,1285.34771935161
0.130408756850498,1285.35771935161
0.123224421400097,1285.36771935161
0.115530238615787,1285.37771935161
0.107672956865444,1285.38771935161
0.0993632798059256,1285.39771935161
0.0912418969406708,1285.40771935161
0.0842913586907922,1285.41771935161
0.0799336250970124,1285.42771935161
0.0794481903751182,1285.43771935161
0.0844206576689434,1285.44771935161
0.0981444410987904,1285.45771935161
0.121325666319365,1285.46771935161
0.155403365468077,1285.47771935161
0.198731440585422,1285.48771935161
0.250747771808166,1285.49771935161
0.308180672074299,1285.50771935161
0.367605806064031,1285.51771935161
0.426588845523803,1285.52771935161
0.482151116972025,1285.53771935161
0.5322110544191,1285.54771935161
0.575022837189618,1285.55771935161
0.610757894541059,1285.56771935161
0.638752799614724,1285.57771935161
0.659158958167007,1285.58771935161
0.673632175593241,1285.59771935161
0.682978536568755,1285.60771935161
0.687960320999289,1285.61771935161
0.689762481595122,1285.62771935161
0.6894250990984,1285.63771935161
0.687647477122487,1285.64771935161
0.684053071175201,1285.65771935161
0.680442169987531,1285.66771935161
0.676316494558494,1285.67771935161
0.672199866885952,1285.68771935161
0.667984287846458,1285.69771935161
0.663290512649253,1285.70771935161
0.659118608892835,1285.71771935161
0.654867452347365,1285.72771935161
0.649526417435157,1285.73771935161
0.642787358283506,1285.74771935161
0.635266688093875,1285.75771935161
0.627340496462894,1285.76771935161
0.619558684686543,1285.77771935161
0.613207042618379,1285.78771935161
0.608488000997751,1285.79771935161
0.605353483337313,1285.80771935161
0.603609343387425,1285.81771935161
0.603270687452828,1285.82771935161
0.603803435464823,1285.83771935161
0.605101231280573,1285.84771935161
0.607570148582297,1285.85771935161
0.610115578379622,1285.86771935161
0.613245145069271,1285.87771935161
0.616080820618203,1285.88771935161
0.618593671246865,1285.89771935161
0.620214520500139,1285.90771935161
0.620780221841503,1285.91771935161
0.619978975550605,1285.92771935161
0.617361360735688,1285.93771935161
0.613322070342955,1285.94771935161
0.607166397614862,1285.95771935161
0.599619452069966,1285.96771935161
0.590821376818627,1285.97771935161
0.581076158242792,1285.98771935161
0.570620618060241,1285.99771935161
0.559482718936173,1286.00771935161
0.547631989534355,1286.01771935161
0.535673065289099,1286.02771935161
0.523767682760227,1286.03771935161
0.511911123265552,1286.04771935161
0.500337219775105,1286.05771935161
0.488796785332439,1286.06771935161
0.47766522538997,1286.07771935161
0.466119889715398,1286.08771935161
0.455041580137032,1286.09771935161
0.444335387810659,1286.10771935161
0.433485005922375,1286.11771935161
0.422617467696755,1286.12771935161
0.41202639193467,1286.13771935161
0.401830703962488,1286.14771935161
0.392264776986095,1286.15771935161
0.382546395430972,1286.16771935161
0.37338379974704,1286.17771935161
0.364004610827369,1286.18771935161
0.354284671746322,1286.19771935161
0.34408762675891,1286.20771935161
0.333601036430976,1286.21771935161
0.323254534120875,1286.22771935161
0.312797057873144,1286.23771935161
0.302582940522877,1286.24771935161
0.29243728225067,1286.25771935161
0.282524020666953,1286.26771935161
0.272864436356289,1286.27771935161
0.262861568137275,1286.28771935161
0.253042262689731,1286.29771935161
0.243477682943255,1286.30771935161
0.233158742025804,1286.31771935161
0.223112062719096,1286.32771935161
0.213611566563201,1286.33771935161
0.20378005919073,1286.34771935161
0.193824887330456,1286.35771935161
0.183920043796704,1286.36771935161
0.173824159457024,1286.37771935161
0.164138297775509,1286.38771935161
0.154367368053924,1286.39771935161
0.145006862074521,1286.40771935161
0.13574855225948,1286.41771935161
0.12641470699331,1286.42771935161
0.117949246139953,1286.43771935161
0.108962518057202,1286.44771935161
0.100341472008555,1286.45771935161
0.0914408004157028,1286.46771935161
0.0835165364065868,1286.47771935161
0.0758693781681541,1286.48771935161
0.0686554364339397,1286.49771935161
0.0617815998456373,1286.50771935161
0.0548279385498413,1286.51771935161
0.0482427142813233,1286.52771935161
0.0432212638399331,1286.53771935161
0.0421022598321156,1286.54771935161
0.0470234546059347,1286.55771935161
0.0615313463281461,1286.56771935161
0.0872374517461834,1286.57771935161
0.125167948687829,1286.58771935161
0.175614087254536,1286.59771935161
0.235547485020155,1286.60771935161
0.300906148633321,1286.61771935161
0.367841351945009,1286.62771935161
0.431301181043881,1286.63771935161
0.488604110947705,1286.64771935161
0.537027968729274,1286.65771935161
0.577267527979881,1286.66771935161
0.611620132974983,1286.67771935161
0.641299168610504,1286.68771935161
0.666231834954824,1286.69771935161
0.685042337445368,1286.70771935161
0.697509204510498,1286.71771935161
0.700936693619403,1286.72771935161
0.695437329562868,1286.73771935161
0.679868187923622,1286.74771935161
0.655986836280643,1286.75771935161
0.626741951784565,1286.76771935161
0.59675013575286,1286.77771935161
0.571062943004135,1286.78771935161
0.550797483091772,1286.79771935161
0.535518547747536,1286.80771935161
0.520334056640677,1286.81771935161
0.50074752573095,1286.82771935161
0.472949474714766,1286.83771935161
0.434836568674818,1286.84771935161
0.389161672878725,1286.85771935161
0.338514662466798,1286.86771935161
0.286510096626951,1286.87771935161
0.233323139675804,1286.88771935161
0.179734591781064,1286.89771935161
0.125510152516283,1286.90771935161
0.0721292526498119,1286.91771935161
0.0204184538641968,1286.92771935161
-0.0278665415344344,1286.93771935161
-0.0665407918000289,1286.94771935161
-0.0864273969198592,1286.95771935161
-0.0779232167413033,1286.96771935161
-0.048208427622373,1286.97771935161
-0.01406554857602,1286.98771935161
0.0175835838355018,1286.99771935161
0.0473779371654402,1287.00771935161
0.0745392728238646,1287.01771935161
0.0981282392218643,1287.02771935161
0.116956684315996,1287.03771935161
0.133012670207107,1287.04771935161
0.147194019614965,1287.05771935161
0.160343497549642,1287.06771935161
0.1727335763788,1287.07771935161
0.184795095081384,1287.08771935161
0.196995526247169,1287.09771935161
0.21018549474162,1287.10771935161
0.225270175474418,1287.11771935161
0.242214471086401,1287.12771935161
0.259325142964208,1287.13771935161
0.275556191576757,1287.14771935161
0.289479934364582,1287.15771935161
0.299648280535932,1287.16771935161
0.303916278150452,1287.17771935161
0.301945602827983,1287.18771935161
0.294170130022362,1287.19771935161
0.280562989861539,1287.20771935161
0.258185387913092,1287.21771935161
0.217025605165364,1287.22771935161
0.137114871324841,1287.23771935161
-0.0121684763747936,1287.24771935161
-0.253807984384709,1287.25771935161
-0.58519602847792,1287.26771935161
-0.980978421893741,1287.27771935161
-1.39632069288646,1287.28771935161
-1.78583932338274,1287.29771935161
-2.11865624481094,1287.30771935161
-2.38388909600696,1287.31771935161
-2.58678032405273,1287.32771935161
-2.74063577250808,1287.33771935161
-2.85912345761612,1287.34771935161
-2.95514706476642,1287.35771935161
-3.03896516754093,1287.36771935161
-3.1136895731942,1287.37771935161
-3.17443677464761,1287.38771935161
-3.21618727375285,1287.39771935161
-3.23412494477422,1287.40771935161
-3.23257136186827,1287.41771935161
-3.22213864089585,1287.42771935161
-3.21178119805951,1287.43771935161
-3.20861333309194,1287.44771935161
-3.21485450583141,1287.45771935161
-3.23047122981043,1287.46771935161
-3.25348568047166,1287.47771935161
-3.28058084317048,1287.48771935161
-3.30733449241895,1287.49771935161
-3.33183062934079,1287.50771935161
-3.35264321977291,1287.51771935161
-3.36891546701466,1287.52771935161
-3.3813253533554,1287.53771935161
-3.39024886921403,1287.54771935161
-3.3955929218422,1287.55771935161
-3.39675091226416,1287.56771935161
-3.39402620413195,1287.57771935161
-3.3863900765567,1287.58771935161
-3.37339542948552,1287.59771935161
-3.35406801770143,1287.60771935161
-3.32649023354666,1287.61771935161
-3.29064988001593,1287.62771935161
-3.24701088246171,1287.63771935161
-3.19563582561964,1287.64771935161
-3.13824539654255,1287.65771935161
-3.07520207642807,1287.66771935161
-3.00729408428021,1287.67771935161
-2.93342394159237,1287.68771935161
-2.85425023142404,1287.69771935161
-2.77054348557797,1287.70771935161
-2.68334983690921,1287.71771935161
-2.59467195948484,1287.72771935161
-2.50435277653911,1287.73771935161
-2.41335740304586,1287.74771935161
-2.32231685834943,1287.75771935161
-2.23751405790156,1287.76771935161
-2.16817533654337,1287.77771935161
-2.12352175528802,1287.78771935161
-2.10761200666233,1287.79771935161
-2.11832455290571,1287.80771935161
-2.15212417045177,1287.81771935161
-2.20435873476133,1287.82771935161
-2.27180746811239,1287.83771935161
-2.34986092100251,1287.84771935161
-2.43177258991907,1287.85771935161
-2.51110870036215,1287.86771935161
-2.57989341881315,1287.87771935161
-2.63342779867381,1287.88771935161
-2.66857596799016,1287.89771935161
-2.68400334806907,1287.90771935161
-2.67980826323357,1287.91771935161
-2.65606670511771,1287.92771935161
-2.61443651081677,1287.93771935161
-2.55709465923681,1287.94771935161
-2.48869721582554,1287.95771935161
-2.41310012146407,1287.96771935161
-2.33357877671907,1287.97771935161
-2.25195860334399,1287.98771935161
-2.17108337853532,1287.99771935161
-2.08944397392058,1288.00771935161
-1.99607496303566,1288.01771935161
-1.87257527560107,1288.02771935161
-1.71212915672176,1288.03771935161
-1.52919562081973,1288.04771935161
-1.34532812693236,1288.05771935161
-1.17719719372454,1288.06771935161
-1.03306002332741,1288.07771935161
-0.91035264183531,1288.08771935161
-0.8028001986023,1288.09771935161
-0.70205611493653,1288.10771935161
-0.604314294404935,1288.11771935161
-0.509448820050382,1288.12771935161
-0.42056111396056,1288.13771935161
-0.34148505527974,1288.14771935161
-0.274771720653764,1288.15771935161
-0.21882840374383,1288.16771935161
-0.17199775127594,1288.17771935161
-0.13064794484302,1288.18771935161
-0.0906935032499564,1288.19771935161
-0.0503229125716732,1288.20771935161
-0.0082001934798674,1288.21771935161
0.0362916109875628,1288.22771935161
0.0826761622976795,1288.23771935161
0.13025281973615,1288.24771935161
0.177038117488992,1288.25771935161
0.221528037618112,1288.26771935161
0.262521028801126,1288.27771935161
0.300858633017945,1288.28771935161
0.337792773497721,1288.29771935161
0.373190870329677,1288.30771935161
0.40633817585294,1288.31771935161
0.435701615103675,1288.32771935161
0.4615061042222,1288.33771935161
0.485627997374802,1288.34771935161
0.510189632814983,1288.35771935161
0.53704522544505,1288.36771935161
0.565309029557374,1288.37771935161
0.593643807950225,1288.38771935161
0.620073472583747,1288.39771935161
0.643639626298238,1288.40771935161
0.664809792440264,1288.41771935161
0.684542204497827,1288.42771935161
0.703439186107185,1288.43771935161
0.722830548872696,1288.44771935161
0.742134545405525,1288.45771935161
0.761977278703326,1288.46771935161
0.781864571159035,1288.47771935161
0.801574763783566,1288.48771935161
0.820627134484102,1288.49771935161
0.838423726364799,1288.50771935161
0.854690013956631,1288.51771935161
0.869804943323461,1288.52771935161
0.884255821230256,1288.53771935161
0.898258650010684,1288.54771935161
0.913005848614818,1288.55771935161
0.927525675215409,1288.56771935161
0.942627822666823,1288.57771935161
0.959323132004147,1288.58771935161
0.980067857641465,1288.59771935161
1.00823816031904,1288.60771935161
1.04718852969414,1288.61771935161
1.09950532852982,1288.62771935161
1.16477931298419,1288.63771935161
1.24206355212216,1288.64771935161
1.32854707043832,1288.65771935161
1.42010529408031,1288.66771935161
1.51256163101944,1288.67771935161
1.60162380987343,1288.68771935161
1.68419194407799,1288.69771935161
1.75797483768027,1288.70771935161
1.82043463489542,1288.71771935161
1.87128432632373,1288.72771935161
1.91130930333747,1288.73771935161
1.94133271659636,1288.74771935161
1.96279361848885,1288.75771935161
1.97716684829718,1288.76771935161
1.98612680939309,1288.77771935161
1.99064015411864,1288.78771935161
1.99155011468613,1288.79771935161
1.99030159129828,1288.80771935161
1.98647713520559,1288.81771935161
1.98116150710225,1288.82771935161
1.97463581787819,1288.83771935161
1.96768594339388,1288.84771935161
1.9595801089542,1288.85771935161
1.95078229835237,1288.86771935161
1.94087937504832,1288.87771935161
1.93031051906505,1288.88771935161
1.9180204480196,1288.89771935161
1.90417110762577,1288.90771935161
1.88863216950219,1288.91771935161
1.87251925560039,1288.92771935161
1.85733563193419,1288.93771935161
1.84263754103989,1288.94771935161
1.82960311002646,1288.95771935161
1.81768496860894,1288.96771935161
1.80778183929539,1288.97771935161
1.79929758512954,1288.98771935161
1.79260912447735,1288.99771935161
1.78727509891346,1289.00771935161
1.78303275327438,1289.01771935161
1.77836481678665,1289.02771935161
1.77177228499358,1289.03771935161
1.76093910614086,1289.04771935161
1.74270107879009,1289.05771935161
1.71752286413426,1289.06771935161
1.68904070236707,1289.07771935161
1.66088244380496,1289.08771935161
1.63684868402663,1289.09771935161
1.61789343463847,1289.10771935161
1.6030517930391,1289.11771935161
1.59093062342538,1289.12771935161
1.58020258054749,1289.13771935161
1.57075992179863,1289.14771935161
1.56315661853695,1289.15771935161
1.55666393993701,1289.16771935161
1.55165599350321,1289.17771935161
1.54792546425246,1289.18771935161
1.5458172117064,1289.19771935161
1.54654350858844,1289.20771935161
1.55130557239755,1289.21771935161
1.56154894077627,1289.22771935161
1.57757084833835,1289.23771935161
1.59782739556587,1289.24771935161
1.62112876913848,1289.25771935161
1.64630331719136,1289.26771935161
1.6725681527371,1289.27771935161
1.69812484203042,1289.28771935161
1.72074312484321,1289.29771935161
1.73896259593903,1289.30771935161
1.75099923160795,1289.31771935161
1.75752736416974,1289.32771935161
1.75909030795577,1289.33771935161
1.75811423588674,1289.34771935161
1.75714838863535,1289.35771935161
1.75828983663306,1289.36771935161
1.76316312048746,1289.37771935161
1.77288573807735,1289.38771935161
1.78700387511507,1289.39771935161
1.80529493979708,1289.40771935161
1.82525988090879,1289.41771935161
1.84591247665216,1289.42771935161
1.86511097321082,1289.43771935161
1.88155544243943,1289.44771935161
1.8941988832225,1289.45771935161
1.9032496997053,1289.46771935161
1.90748577555938,1289.47771935161
1.90796077290052,1289.48771935161
1.90473066174628,1289.49771935161
1.897685997146,1289.50771935161
1.88735757060634,1289.51771935161
1.87426184831029,1289.52771935161
1.85842054359864,1289.53771935161
1.84048456964815,1289.54771935161
1.82019329936481,1289.55771935161
1.79958286940854,1289.56771935161
1.78099955158632,1289.57771935161
1.76570931274854,1289.58771935161
1.75420449151489,1289.59771935161
1.74711850946518,1289.60771935161
1.7468923983161,1289.61771935161
1.75696217720506,1289.62771935161
1.77960336105479,1289.63771935161
1.81690518733505,1289.64771935161
1.86846807884757,1289.65771935161
1.93122403184725,1289.66771935161
2.00101253385038,1289.67771935161
2.07277974902855,1289.68771935161
2.14124825930617,1289.69771935161
2.20245435043658,1289.70771935161
2.25285742885957,1289.71771935161
2.29069266817321,1289.72771935161
2.31607971047686,1289.73771935161
2.32901488290974,1289.74771935161
2.33161238394038,1289.75771935161
2.32515701637311,1289.76771935161
2.31253212100467,1289.77771935161
2.29537005399504,1289.78771935161
2.27542595153367,1289.79771935161
2.25458448098289,1289.80771935161
2.23380295894262,1289.81771935161
2.21373149429113,1289.82771935161
2.1945947055767,1289.83771935161
2.1767919726522,1289.84771935161
2.16030182707568,1289.85771935161
2.14458366090064,1289.86771935161
2.12935350389237,1289.87771935161
2.11335836894163,1289.88771935161
2.09580331250967,1289.89771935161
2.07669177346809,1289.90771935161
2.05614966535582,1289.91771935161
2.03447124495552,1289.92771935161
2.0117115186279,1289.93771935161
1.98922453723762,1289.94771935161
1.96818656427249,1289.95771935161
1.94869906947718,1289.96771935161
1.93145214628458,1289.97771935161
1.91654503162029,1289.98771935161
1.9039218358506,1289.99771935161
1.8933372449497,1290.00771935161
1.88421965770508,1290.01771935161
1.87558489852474,1290.02771935161
1.86678535243188,1290.03771935161
1.85724968499063,1290.04771935161
1.84665550904106,1290.05771935161
1.83481970032754,1290.06771935161
1.82092330523322,1290.07771935161
1.80487964142384,1290.08771935161
1.78623461127521,1290.09771935161
1.76603360427204,1290.10771935161
1.74358503477197,1290.11771935161
1.71961723951509,1290.12771935161
1.69413080320588,1290.13771935161
1.66717127365482,1290.14771935161
1.63936752380041,1290.15771935161
1.61061673417576,1290.16771935161
1.58152296617412,1290.17771935161
1.55234506377042,1290.18771935161
1.52403044961471,1290.19771935161
1.49696598836229,1290.20771935161
1.47017353128925,1290.21771935161
1.44425329771749,1290.22771935161
1.41893592147465,1290.23771935161
1.39453634492037,1290.24771935161
1.37036414379647,1290.25771935161
1.34716845998108,1290.26771935161
1.32365748137725,1290.27771935161
1.30038902119091,1290.28771935161
1.27721410541192,1290.29771935161
1.2544414360378,1290.30771935161
1.23150250722117,1290.31771935161
1.20849785988694,1290.32771935161
1.18593846374831,1290.33771935161
1.16345752029646,1290.34771935161
1.14188547597585,1290.35771935161
1.12072258167684,1290.36771935161
1.09983046981437,1290.37771935161
1.07916345008496,1290.38771935161
1.05825945188732,1290.39771935161
1.03762402669914,1290.40771935161
1.01657770332352,1290.41771935161
0.996168393265474,1290.42771935161
0.975575242259024,1290.43771935161
0.954896921872181,1290.44771935161
0.934773662910984,1290.45771935161
0.915018306214454,1290.46771935161
0.895074328896005,1290.47771935161
0.874905797531059,1290.48771935161
0.854609041135916,1290.49771935161
0.834211347062612,1290.50771935161
0.813817557919742,1290.51771935161
0.793118358946297,1290.52771935161
0.772610810615501,1290.53771935161
0.753111251552933,1290.54771935161
0.734805036589999,1290.55771935161
0.719712267425444,1290.56771935161
0.710282749880887,1290.57771935161
0.709126475813446,1290.58771935161
0.718701549692847,1290.59771935161
0.740077703901345,1290.60771935161
0.772319742747397,1290.61771935161
0.813336335492052,1290.62771935161
0.859972725044694,1290.63771935161
0.908286847118632,1290.64771935161
0.954615607503565,1290.65771935161
0.996429689857637,1290.66771935161
1.03129609398366,1290.67771935161
1.05887161124032,1290.68771935161
1.07826857755916,1290.69771935161
1.09016817934286,1290.70771935161
1.09451101424288,1290.71771935161
1.09184431370314,1290.72771935161
1.08323502998518,1290.73771935161
1.0686983568994,1290.74771935161
1.05020669138068,1290.75771935161
1.02758380829917,1290.76771935161
1.00214299013392,1290.77771935161
0.975041633420757,1290.78771935161
0.947619883162641,1290.79771935161
0.92104258236138,1290.80771935161
0.896082664253891,1290.81771935161
0.872216857995881,1290.82771935161
0.849703631093084,1290.83771935161
0.827407234137838,1290.84771935161
0.804473117694621,1290.85771935161
0.780516885401329,1290.86771935161
0.756631746375562,1290.87771935161
0.732416223022674,1290.88771935161
0.709300750224255,1290.89771935161
0.687579927749601,1290.90771935161
0.667998303290801,1290.91771935161
0.650593546256706,1290.92771935161
0.635703055684675,1290.93771935161
0.622545057680836,1290.94771935161
0.610982935325384,1290.95771935161
0.600454689962275,1290.96771935161
0.590981743135478,1290.97771935161
0.582172353715731,1290.98771935161
0.573164617586843,1290.99771935161
0.563807027224377,1291.00771935161
0.553477289423474,1291.01771935161
0.542115476006596,1291.02771935161
0.529171918602097,1291.03771935161
0.515343889136098,1291.04771935161
0.50011207468506,1291.05771935161
0.483458313907192,1291.06771935161
0.46560536495079,1291.07771935161
0.446540520252954,1291.08771935161
0.426734668312393,1291.09771935161
0.405963757520782,1291.10771935161
0.384896970686745,1291.11771935161
0.363440812796521,1291.12771935161
0.342398367535477,1291.13771935161
0.32216163752166,1291.14771935161
0.301806798782295,1291.15771935161
0.282298900620233,1291.16771935161
0.263254480360351,1291.17771935161
0.244926921495576,1291.18771935161
0.22665366251539,1291.19771935161
0.208886322242088,1291.20771935161
0.191808580356403,1291.21771935161
0.174975071280187,1291.22771935161
0.158348450890776,1291.23771935161
0.141795696081264,1291.24771935161
0.125978047568743,1291.25771935161
0.110683776846972,1291.26771935161
0.0962973774566905,1291.27771935161
0.0823114398720144,1291.28771935161
0.0688794418467671,1291.29771935161
0.0554994401041839,1291.30771935161
0.0417170106244585,1291.31771935161
0.0283300688964673,1291.32771935161
0.0153023936142237,1291.33771935161
0.00250938133665717,1291.34771935161
-0.0104174690056042,1291.35771935161
-0.023361438868576,1291.36771935161
-0.0370376915001389,1291.37771935161
-0.0501745392471757,1291.38771935161
-0.0640835497969228,1291.39771935161
-0.0783221679072378,1291.40771935161
-0.0931478930519686,1291.41771935161
-0.107981736546619,1291.42771935161
-0.121965616972388,1291.43771935161
-0.135224833367833,1291.44771935161
-0.145512578242877,1291.45771935161
-0.152089329749616,1291.46771935161
-0.151762619683616,1291.47771935161
-0.143167092297365,1291.48771935161
-0.12490519214455,1291.49771935161
-0.0971100295489676,1291.50771935161
-0.0620595546805422,1291.51771935161
-0.0219116762543358,1291.52771935161
0.0207675464098134,1291.53771935161
0.0632900482713154,1291.54771935161
0.102446590453165,1291.55771935161
0.137183851448038,1291.56771935161
0.166658246632844,1291.57771935161
0.189518585510642,1291.58771935161
0.20652658411761,1291.59771935161
0.217501271053184,1291.60771935161
0.222798255894415,1291.61771935161
0.223515287432726,1291.62771935161
0.220957251633362,1291.63771935161
0.215696409633219,1291.64771935161
0.209388340381324,1291.65771935161
0.202306309356252,1291.66771935161
0.194847156648975,1291.67771935161
0.187300761592371,1291.68771935161
0.179554140250467,1291.69771935161
0.171614177627068,1291.70771935161
0.16342004266902,1291.71771935161
0.155267219737746,1291.72771935161
0.146538955082461,1291.73771935161
0.137042070470865,1291.74771935161
0.126854136343809,1291.75771935161
0.115966043988759,1291.76771935161
0.104836975836735,1291.77771935161
0.0937772292351239,1291.78771935161
0.0828115400049987,1291.79771935161
0.0727872127018647,1291.80771935161
0.0641369291962888,1291.81771935161
0.0569834055105219,1291.82771935161
0.0512352168598811,1291.83771935161
0.0469228815265223,1291.84771935161
0.0440599213432242,1291.85771935161
0.0418944277441066,1291.86771935161
0.0403844099110337,1291.87771935161
0.0387556709484686,1291.88771935161
0.0374166399216569,1291.89771935161
0.0354097777900174,1291.90771935161
0.0324538274255921,1291.91771935161
0.0284788713210492,1291.92771935161
0.0229708468791003,1291.93771935161
0.0166537560081555,1291.94771935161
0.00934842882880257,1291.95771935161
0.001294743076375,1291.96771935161
-0.0079409953604105,1291.97771935161
-0.0173954428034489,1291.98771935161
-0.0273984842561853,1291.99771935161
-0.0378674565036471,1292.00771935161
-0.0485238080436008,1292.01771935161
-0.0591262014492019,1292.02771935161
-0.0702167589781806,1292.03771935161
-0.081675772240973,1292.04771935161
-0.0930471990574394,1292.05771935161
-0.105102402427879,1292.06771935161
-0.116859988985064,1292.07771935161
-0.128150550218363,1292.08771935161
-0.139132443729308,1292.09771935161
-0.149891458965719,1292.10771935161
-0.160067786197369,1292.11771935161
-0.170455655231203,1292.12771935161
-0.180747657400965,1292.13771935161
-0.191353990255062,1292.14771935161
-0.201569980416789,1292.15771935161
-0.212027416095306,1292.16771935161
-0.222279583929754,1292.17771935161
-0.232555079107137,1292.18771935161
-0.242956365114109,1292.19771935161
-0.253048832803869,1292.20771935161
-0.263335291740305,1292.21771935161
-0.273760970938847,1292.22771935161
-0.284657675049125,1292.23771935161
-0.295226485763473,1292.24771935161
-0.305927317800764,1292.25771935161
-0.316781561749048,1292.26771935161
-0.327143316945081,1292.27771935161
-0.337496961671671,1292.28771935161
-0.34714371457973,1292.29771935161
-0.357003468062548,1292.30771935161
-0.367059332690529,1292.31771935161
-0.377997609806346,1292.32771935161
-0.388553186466632,1292.33771935161
-0.398677714951714,1292.34771935161
-0.407472795053857,1292.35771935161
-0.415438467172729,1292.36771935161
-0.423074044908558,1292.37771935161
-0.43100893570877,1292.38771935161
-0.439514548155139,1292.39771935161
-0.448692236590312,1292.40771935161
-0.458356003799564,1292.41771935161
-0.466724501464471,1292.42771935161
-0.472602491889993,1292.43771935161
-0.474261615988338,1292.44771935161
-0.469561952326002,1292.45771935161
-0.457141856364899,1292.46771935161
-0.43652741915489,1292.47771935161
-0.408849486457145,1292.48771935161
-0.375259673991142,1292.49771935161
-0.338612682235438,1292.50771935161
-0.300662596331632,1292.51771935161
-0.263561407295024,1292.52771935161
-0.228936833752947,1292.53771935161
-0.197703107054069,1292.54771935161
-0.170912935194558,1292.55771935161
-0.14934079385093,1292.56771935161
-0.13246025417807,1292.57771935161
-0.12012374126384,1292.58771935161
-0.112105033673852,1292.59771935161
-0.107664854481689,1292.60771935161
-0.106211891903665,1292.61771935161
-0.106301764546007,1292.62771935161
-0.108103879821884,1292.63771935161
-0.109845759658856,1292.64771935161
-0.111735174291223,1292.65771935161
-0.113522024371593,1292.66771935161
-0.114948378076613,1292.67771935161
-0.116031733346424,1292.68771935161
-0.117155384465275,1292.69771935161
-0.117633290439527,1292.70771935161
-0.118655702603273,1292.71771935161
-0.120594938460088,1292.72771935161
-0.124391078912412,1292.73771935161
-0.129518679839219,1292.74771935161
-0.13590993162041,1292.75771935161
-0.142738082843905,1292.76771935161
-0.149549039050264,1292.77771935161
-0.155560010985232,1292.78771935161
-0.160735646912675,1292.79771935161
-0.164908541627985,1292.80771935161
-0.168918003858321,1292.81771935161
-0.172443415008948,1292.82771935161
-0.174556153480052,1292.83771935161
-0.176398035352695,1292.84771935161
-0.177488576361831,1292.85771935161
-0.177893855986693,1292.86771935161
-0.178030600119728,1292.87771935161
-0.178674506136171,1292.88771935161
-0.179102370029041,1292.89771935161
-0.180348940178367,1292.90771935161
-0.182154172966452,1292.91771935161
-0.184588132306052,1292.92771935161
-0.188110822913928,1292.93771935161
-0.192305273026756,1292.94771935161
-0.197853853301473,1292.95771935161
-0.203712189287337,1292.96771935161
-0.210721483412643,1292.97771935161
-0.217922394413339,1292.98771935161
-0.226234077991571,1292.99771935161
-0.234238314242863,1293.00771935161
-0.242153951657365,1293.01771935161
-0.249909616415213,1293.02771935161
-0.257813464353419,1293.03771935161
-0.265705573987766,1293.04771935161
-0.273859594571319,1293.05771935161
-0.281920486878156,1293.06771935161
-0.290165663732697,1293.07771935161
-0.298561147291364,1293.08771935161
-0.306894592674408,1293.09771935161
-0.315316878142129,1293.10771935161
-0.323265565613123,1293.11771935161
-0.330979585790358,1293.12771935161
-0.337887430316014,1293.13771935161
-0.345022184680599,1293.14771935161
-0.352310340007121,1293.15771935161
-0.360165949549945,1293.16771935161
-0.36828736731831,1293.17771935161
-0.37653430743094,1293.18771935161
-0.384791888589108,1293.19771935161
-0.39232698947193,1293.20771935161
-0.399514425253704,1293.21771935161
-0.406061882698223,1293.22771935161
-0.413344024674325,1293.23771935161
-0.421216388927954,1293.24771935161
-0.429000933644095,1293.25771935161
-0.437469469281047,1293.26771935161
-0.445295529712617,1293.27771935161
-0.452754452875752,1293.28771935161
-0.460190666911648,1293.29771935161
-0.46712029905136,1293.30771935161
-0.474352019208091,1293.31771935161
-0.481462553829844,1293.32771935161
-0.488483532991017,1293.33771935161
-0.495693867944609,1293.34771935161
-0.503039657072039,1293.35771935161
-0.509954321496677,1293.36771935161
-0.517045645033778,1293.37771935161
-0.523906000844871,1293.38771935161
-0.53069929588768,1293.39771935161
-0.537372069358925,1293.40771935161
-0.544245155188748,1293.41771935161
-0.55083753997024,1293.42771935161
-0.557522236093741,1293.43771935161
-0.564331633834405,1293.44771935161
-0.570037919408803,1293.45771935161
-0.57585690958251,1293.46771935161
-0.582118822217108,1293.47771935161
-0.588802255818342,1293.48771935161
-0.595559902119285,1293.49771935161
-0.602920015184622,1293.50771935161
-0.60958827051798,1293.51771935161
-0.613866173309372,1293.52771935161
-0.614694672511625,1293.53771935161
-0.610185306255268,1293.54771935161
-0.599037922582923,1293.55771935161
-0.581992833828438,1293.56771935161
-0.559615629940313,1293.57771935161
-0.533121638412255,1293.58771935161
-0.504193396933068,1293.59771935161
-0.474376218074973,1293.60771935161
-0.445129383133851,1293.61771935161
-0.417705558096533,1293.62771935161
-0.393229067267374,1293.63771935161
-0.372483938963202,1293.64771935161
-0.355478309439897,1293.65771935161
-0.342614031357887,1293.66771935161
-0.333536263777272,1293.67771935161
-0.326830153801284,1293.68771935161
-0.323369087091365,1293.69771935161
-0.321575343413371,1293.70771935161
-0.32096296339048,1293.71771935161
-0.321189122444207,1293.72771935161
-0.321626870178123,1293.73771935161
-0.322171686078221,1293.74771935161
-0.32260495906129,1293.75771935161
-0.323475552707351,1293.76771935161
-0.324324107200602,1293.77771935161
-0.325435006414077,1293.78771935161
-0.326767774919052,1293.79771935161
-0.328476910708736,1293.80771935161
-0.331254005737887,1293.81771935161
-0.33497658577514,1293.82771935161
-0.339077319334265,1293.83771935161
-0.343565468932146,1293.84771935161
-0.347715868544157,1293.85771935161
-0.351633166753275,1293.86771935161
-0.354677029850608,1293.87771935161
-0.356881544090173,1293.88771935161
-0.358601175826686,1293.89771935161
-0.359154472220705,1293.90771935161
-0.359340571140606,1293.91771935161
-0.358623407027402,1293.92771935161
-0.357642183340311,1293.93771935161
-0.356595047842378,1293.94771935161
-0.355027059725145,1293.95771935161
-0.353980493668315,1293.96771935161
-0.352788617710695,1293.97771935161
-0.352306216809278,1293.98771935161
-0.353014547057759,1293.99771935161
-0.35458672058948,1294.00771935161
-0.356998191914685,1294.01771935161
-0.35953172148817,1294.02771935161
-0.362370007109827,1294.03771935161
-0.365212074987911,1294.04771935161
-0.368217435637276,1294.05771935161
-0.371931659879087,1294.06771935161
-0.376553013730256,1294.07771935161
-0.381449110195072,1294.08771935161
-0.386763307817035,1294.09771935161
-0.392499160100194,1294.10771935161
-0.398570953270604,1294.11771935161
-0.404589617309393,1294.12771935161
-0.411184763632074,1294.13771935161
-0.418179240959119,1294.14771935161
-0.424724395462037,1294.15771935161
-0.431747175604134,1294.16771935161
-0.439524822811607,1294.17771935161
-0.446548901522107,1294.18771935161
-0.453187746959378,1294.19771935161
-0.459745631870231,1294.20771935161
-0.46531424759062,1294.21771935161
-0.470756539240328,1294.22771935161
-0.475817555602251,1294.23771935161
-0.48069347064086,1294.24771935161
-0.48606468836499,1294.25771935161
-0.491515606462755,1294.26771935161
-0.496865938387523,1294.27771935161
-0.502673681437769,1294.28771935161
-0.508113995920474,1294.29771935161
-0.513819597300703,1294.30771935161
-0.519381189444863,1294.31771935161
-0.525405297105607,1294.32771935161
-0.531398409698884,1294.33771935161
-0.536654777235933,1294.34771935161
-0.541534053947626,1294.35771935161
-0.54660127771172,1294.36771935161
-0.55110854962461,1294.37771935161
-0.555950808641061,1294.38771935161
-0.561524152457772,1294.39771935161
-0.567760209675686,1294.40771935161
-0.574433876324429,1294.41771935161
-0.580934528959611,1294.42771935161
-0.587538347063931,1294.43771935161
-0.593810913077327,1294.44771935161
-0.599620534758374,1294.45771935161
-0.604590558776469,1294.46771935161
-0.609617298774047,1294.47771935161
-0.614205206917306,1294.48771935161
-0.619454166769261,1294.49771935161
-0.624758909897962,1294.50771935161
-0.630227675872763,1294.51771935161
-0.634976598809743,1294.52771935161
-0.637728724669797,1294.53771935161
-0.637794697328168,1294.54771935161
-0.633564820410221,1294.55771935161
-0.624283820160564,1294.56771935161
-0.609807743029333,1294.57771935161
-0.590714512090719,1294.58771935161
-0.568414262689603,1294.59771935161
-0.543998465647976,1294.60771935161
-0.519072264238299,1294.61771935161
-0.494874813234568,1294.62771935161
-0.472352192176222,1294.63771935161
-0.453079907735535,1294.64771935161
-0.436404880820635,1294.65771935161
-0.423243817470515,1294.66771935161
-0.412815805462732,1294.67771935161
-0.404841050139768,1294.68771935161
-0.39953066099345,1294.69771935161
-0.39601011872753,1294.70771935161
-0.39376051778665,1294.71771935161
-0.393215113304941,1294.72771935161
-0.393564883796666,1294.73771935161
-0.394733837799502,1294.74771935161
-0.395849601060408,1294.75771935161
-0.397232834736431,1294.76771935161
-0.398469018608896,1294.77771935161
-0.399751329654649,1294.78771935161
-0.401435659502988,1294.79771935161
-0.404205097932996,1294.80771935161
-0.406991983471062,1294.81771935161
-0.410655631676409,1294.82771935161
-0.413972493684138,1294.83771935161
-0.417010246168678,1294.84771935161
-0.419521105188967,1294.85771935161
-0.421446342150394,1294.86771935161
-0.422591177113751,1294.87771935161
-0.422672980119118,1294.88771935161
-0.421934320616829,1294.89771935161
-0.420278588014125,1294.90771935161
-0.417263929874337,1294.91771935161
-0.413711110156059,1294.92771935161
-0.409981046478964,1294.93771935161
-0.405945899790005,1294.94771935161
-0.40216796813022,1294.95771935161
-0.398837462099856,1294.96771935161
-0.395356118939464,1294.97771935161
-0.392457694294948,1294.98771935161
-0.390330066694432,1294.99771935161
-0.389186435185693,1295.00771935161
-0.388639540913818,1295.01771935161
-0.388814448924141,1295.02771935161
-0.388701068322933,1295.03771935161
-0.389048204393381,1295.04771935161
-0.390059934126199,1295.05771935161
-0.391348181508163,1295.06771935161
-0.392948053279722,1295.07771935161
-0.394371674916527,1295.08771935161
-0.396123709982193,1295.09771935161
-0.397546118726656,1295.10771935161
-0.399390206921331,1295.11771935161
-0.401763740026986,1295.12771935161
-0.404579759349554,1295.13771935161
-0.407749077315407,1295.14771935161
-0.410753973813697,1295.15771935161
-0.413312683287385,1295.16771935161
-0.415397440717616,1295.17771935161
-0.416910339514954,1295.18771935161
-0.418508482232335,1295.19771935161
-0.42095922478143,1295.20771935161
-0.423081663016591,1295.21771935161
-0.425853204805499,1295.22771935161
-0.428400582976434,1295.23771935161
-0.43088282485696,1295.24771935161
-0.433503455496522,1295.25771935161
-0.435755802545358,1295.26771935161
-0.438332233550732,1295.27771935161
-0.441123594477107,1295.28771935161
-0.444110948260346,1295.29771935161
-0.44666437647591,1295.30771935161
-0.44947356527518,1295.31771935161
-0.45247032468348,1295.32771935161
-0.455475942806117,1295.33771935161
-0.458547940398921,1295.34771935161
-0.461450131420751,1295.35771935161
-0.464423629927447,1295.36771935161
-0.467669398556238,1295.37771935161
-0.471265543057617,1295.38771935161
-0.475777657645973,1295.39771935161
-0.481003589301884,1295.40771935161
-0.486022549436557,1295.41771935161
-0.490952664004317,1295.42771935161
-0.494667601076895,1295.43771935161
-0.495716955175578,1295.44771935161
-0.492959076660832,1295.45771935161
-0.48500749784259,1295.46771935161
-0.4711613853617,1295.47771935161
-0.45205193888884,1295.48771935161
-0.428018609872407,1295.49771935161
-0.4006547347821,1295.50771935161
-0.371662287761019,1295.51771935161
-0.342396916825576,1295.52771935161
-0.314716409827128,1295.53771935161
-0.287976423442554,1295.54771935161
-0.263648874503815,1295.55771935161
-0.24222477707071,1295.56771935161
-0.224426406673536,1295.57771935161
-0.209386897755933,1295.58771935161
-0.198585174540496,1295.59771935161
-0.190335744609137,1295.60771935161
-0.184402909658801,1295.61771935161
-0.180474850428662,1295.62771935161
-0.177070472379231,1295.63771935161
-0.174183153764969,1295.64771935161
-0.171222129368717,1295.65771935161
-0.168562221599453,1295.66771935161
-0.165248063278821,1295.67771935161
-0.162095366026274,1295.68771935161
-0.159217602410402,1295.69771935161
-0.156919223604913,1295.70771935161
-0.155069094955834,1295.71771935161
-0.154603705950255,1295.72771935161
-0.154572800448973,1295.73771935161
-0.1550955292966,1295.74771935161
-0.155718038852426,1295.75771935161
-0.155764363920165,1295.76771935161
-0.155608109018241,1295.77771935161
-0.155448036339607,1295.78771935161
-0.15531316194227,1295.79771935161
-0.154663561268274,1295.80771935161
-0.154075318986683,1295.81771935161
-0.153079533031893,1295.82771935161
-0.151532201590736,1295.83771935161
-0.149613910447368,1295.84771935161
-0.147395985071494,1295.85771935161
-0.144808102353832,1295.86771935161
-0.142500949916054,1295.87771935161
-0.140339031081603,1295.88771935161
-0.138269313850538,1295.89771935161
-0.13662574674286,1295.90771935161
-0.135178361087759,1295.91771935161
-0.134668854158149,1295.92771935161
-0.135118645912556,1295.93771935161
-0.135958985070807,1295.94771935161
-0.137786799519334,1295.95771935161
-0.139621528759536,1295.96771935161
-0.141742602734177,1295.97771935161
-0.144432880065115,1295.98771935161
-0.147953244331085,1295.99771935161
-0.152109164192922,1296.00771935161
-0.156688281096251,1296.01771935161
-0.161199417478302,1296.02771935161
-0.165960838441566,1296.03771935161
-0.170316692362302,1296.04771935161
-0.174823462776328,1296.05771935161
-0.179538915504155,1296.06771935161
-0.1844537913812,1296.07771935161
-0.189859090160062,1296.08771935161
-0.195449115800729,1296.09771935161
-0.201435115857155,1296.10771935161
-0.207129851108898,1296.11771935161
-0.21304523163144,1296.12771935161
-0.218614987476982,1296.13771935161
-0.223589632736436,1296.14771935161
-0.228318475009588,1296.15771935161
-0.232136405731753,1296.16771935161
-0.236332699751822,1296.17771935161
-0.240473528843948,1296.18771935161
-0.244590672314855,1296.19771935161
-0.249108249341442,1296.20771935161
-0.253897348967636,1296.21771935161
-0.258126733186354,1296.22771935161
-0.261576246454381,1296.23771935161
-0.265037232365035,1296.24771935161
-0.268402147734973,1296.25771935161
-0.272190851346213,1296.26771935161
-0.276582507668697,1296.27771935161
-0.281618063539416,1296.28771935161
-0.286554437134423,1296.29771935161
-0.291570166164243,1296.30771935161
-0.296261438882139,1296.31771935161
-0.300389340674442,1296.32771935161
-0.304534674985124,1296.33771935161
-0.308570727751911,1296.34771935161
-0.312836116370051,1296.35771935161
-0.317395237036387,1296.36771935161
-0.322220947758669,1296.37771935161
-0.326916235518841,1296.38771935161
-0.33159021130087,1296.39771935161
-0.335874187539967,1296.40771935161
-0.339623170312745,1296.41771935161
-0.342903615924596,1296.42771935161
-0.346444830720414,1296.43771935161
-0.350319565399402,1296.44771935161
-0.354038238198788,1296.45771935161
-0.357358055447565,1296.46771935161
-0.359071966999274,1296.47771935161
-0.357710370934227,1296.48771935161
-0.35155160905921,1296.49771935161
-0.339147243328972,1296.50771935161
-0.320373852185684,1296.51771935161
-0.295417825283784,1296.52771935161
-0.265054899786757,1296.53771935161
-0.231488153047784,1296.54771935161
-0.196220931969332,1296.55771935161
-0.161076318553642,1296.56771935161
-0.127078499100464,1296.57771935161
-0.0957328613672469,1296.58771935161
-0.0679609630744038,1296.59771935161
-0.0441436376820566,1296.60771935161
-0.0239925184981589,1296.61771935161
-0.00727395616867198,1296.62771935161
0.00620694661186159,1296.63771935161
0.0160006292325073,1296.64771935161
0.0238741700051643,1296.65771935161
0.0288300954888201,1296.66771935161
0.0323907721308528,1296.67771935161
0.0352169905539148,1296.68771935161
0.0374034752316734,1296.69771935161
0.0400170566108162,1296.70771935161
0.0424215494566551,1296.71771935161
0.045619004335608,1296.72771935161
0.0488190858678751,1296.73771935161
0.0522458386109579,1296.74771935161
0.0549992833496962,1296.75771935161
0.0564189606380827,1296.76771935161
0.0569230230540333,1296.77771935161
0.0555811492105685,1296.78771935161
0.0529075963089501,1296.79771935161
0.0496996636280315,1296.80771935161
0.0464341038648347,1296.81771935161
0.043545214482192,1296.82771935161
0.0414676792485696,1296.83771935161
0.0403238740818413,1296.84771935161
0.0405315243413923,1296.85771935161
0.0414468744765035,1296.86771935161
0.0436412039080024,1296.87771935161
0.0469437342347848,1296.88771935161
0.0500813120550279,1296.89771935161
0.0535759641635904,1296.90771935161
0.0568242922313399,1296.91771935161
0.059655057967433,1296.92771935161
0.0615182558466039,1296.93771935161
0.0630367571572647,1296.94771935161
0.0641167805332761,1296.95771935161
0.0638906298609228,1296.96771935161
0.0630870573013385,1296.97771935161
0.0619055625833037,1296.98771935161
0.060654078725442,1296.99771935161
0.0582492826102141,1297.00771935161
0.0553597281414235,1297.01771935161
0.0515559512266401,1297.02771935161
0.0469125352916678,1297.03771935161
0.0417660780757994,1297.04771935161
0.0358459767098981,1297.05771935161
0.0296679098704107,1297.06771935161
0.0237806767468771,1297.07771935161
0.0181105687820479,1297.08771935161
0.0128572258451192,1297.09771935161
0.00746235622825762,1297.10771935161
0.0026554739977248,1297.11771935161
-0.00258021520449773,1297.12771935161
-0.00800737775724685,1297.13771935161
-0.0136994251535041,1297.14771935161
-0.0195712083797988,1297.15771935161
-0.0254892554358834,1297.16771935161
-0.0320284441699642,1297.17771935161
-0.0382336906475188,1297.18771935161
-0.0446700603728133,1297.19771935161
-0.0499930476936229,1297.20771935161
-0.0552693103816463,1297.21771935161
-0.0599589029640515,1297.22771935161
-0.0645032159331061,1297.23771935161
-0.0687499315298466,1297.24771935161
-0.0732032746593438,1297.25771935161
-0.0778787466961046,1297.26771935161
-0.0822941688907415,1297.27771935161
-0.0869898949429758,1297.28771935161
-0.0919264110662252,1297.29771935161
-0.0968948413700075,1297.30771935161
-0.101377869850403,1297.31771935161
-0.105797896105976,1297.32771935161
-0.110450797283949,1297.33771935161
-0.115371902537138,1297.34771935161
-0.120918385841857,1297.35771935161
-0.126400285103349,1297.36771935161
-0.131898372864832,1297.37771935161
-0.137437056765152,1297.38771935161
-0.142344629507656,1297.39771935161
-0.147191427723554,1297.40771935161
-0.151965720410518,1297.41771935161
-0.156575119873538,1297.42771935161
-0.161411916435772,1297.43771935161
-0.166258480972251,1297.44771935161
-0.172056610830626,1297.45771935161
-0.178730617759561,1297.46771935161
-0.185585230119064,1297.47771935161
-0.192706842804992,1297.48771935161
-0.199544963538858,1297.49771935161
-0.204463136144786,1297.50771935161
-0.206424677052343,1297.51771935161
-0.203570110205718,1297.52771935161
-0.194101993587911,1297.53771935161
-0.176897044121406,1297.54771935161
-0.15183751664649,1297.55771935161
-0.119596366586843,1297.56771935161
-0.0810126707154829,1297.57771935161
-0.0383371599316902,1297.58771935161
0.00644690378173645,1297.59771935161
0.0508681380556651,1297.60771935161
0.0928154811667797,1297.61771935161
0.130764551140277,1297.62771935161
0.164313704667892,1297.63771935161
0.191727323724857,1297.64771935161
0.213619961009967,1297.65771935161
0.23008588077918,1297.66771935161
0.241712076487203,1297.67771935161
0.249710088163497,1297.68771935161
0.255017015150258,1297.69771935161
0.257770320684355,1297.70771935161
0.259348997690196,1297.71771935161
0.260059737537868,1297.72771935161
0.26002921950091,1297.73771935161
0.260149730752229,1297.74771935161
0.259842825713476,1297.75771935161
0.259627261175739,1297.76771935161
0.258713702690934,1297.77771935161
0.257609553725492,1297.78771935161
0.255815014661891,1297.79771935161
0.253593672362332,1297.80771935161
0.250791350598205,1297.81771935161
0.247205487816853,1297.82771935161
0.242757088168801,1297.83771935161
0.238283067810748,1297.84771935161
0.233687562910316,1297.85771935161
0.229890482305504,1297.86771935161
0.227473924471811,1297.87771935161
0.226297384158382,1297.88771935161
0.226190951846801,1297.89771935161
0.226551386225711,1297.90771935161
0.227850964422666,1297.91771935161
0.230060685558554,1297.92771935161
0.232928428739411,1297.93771935161
0.236454649223533,1297.94771935161
0.239795243790771,1297.95771935161
0.243294843579104,1297.96771935161
0.245869990652094,1297.97771935161
0.247432971967824,1297.98771935161
0.247307966281638,1297.99771935161
0.245679271968283,1298.00771935161
0.242759104901358,1298.01771935161
0.238835734105513,1298.02771935161
0.233513575838169,1298.03771935161
0.226965215075711,1298.04771935161
0.219676940237974,1298.05771935161
0.211748128214035,1298.06771935161
0.203716322799686,1298.07771935161
0.195250247741913,1298.08771935161
0.186599237084601,1298.09771935161
0.17754342868232,1298.10771935161
0.167975921182562,1298.11771935161
0.158772057248399,1298.12771935161
0.150172474881823,1298.13771935161
0.141819677066438,1298.14771935161
