PPG,time
-0.115251396824647,2979.5315608411
-0.23810693743876,2979.5415608411
-0.225002792151195,2979.5515608411
-0.252807203961731,2979.5615608411
-0.257220125622578,2979.5715608411
-0.276593654119452,2979.5815608411
-0.286779748542509,2979.5915608411
-0.303024680561167,2979.6015608411
-0.315042238867171,2979.6115608411
-0.328414217209137,2979.6215608411
-0.34042662034174,2979.6315608411
-0.351970535836188,2979.6415608411
-0.363143874435426,2979.6515608411
-0.374237271215735,2979.6615608411
-0.385767102361465,2979.6715608411
-0.397969407474855,2979.6815608411
-0.410340641886271,2979.6915608411
-0.423230536120763,2979.7015608411
-0.436769055269413,2979.7115608411
-0.450335904401379,2979.7215608411
-0.463668232058312,2979.7315608411
-0.474397859304653,2979.7415608411
-0.479795463686405,2979.7515608411
-0.474990944648868,2979.7615608411
-0.453136538829896,2979.7715608411
-0.409117941540657,2979.7815608411
-0.341320205994098,2979.7915608411
-0.24960138723971,2979.8015608411
-0.13800738351862,2979.8115608411
-0.0122265674029727,2979.8215608411
0.120819525588174,2979.8315608411
0.252814501524562,2979.8415608411
0.377016220846472,2979.8515608411
0.487938850277624,2979.8615608411
0.582523818933839,2979.8715608411
0.658626874158173,2979.8815608411
0.716973385265596,2979.8915608411
0.759325419171557,2979.9015608411
0.788099816351765,2979.9115608411
0.806338427402334,2979.9215608411
0.815579046152651,2979.9315608411
0.818880888638961,2979.9415608411
0.818249796825332,2979.9515608411
0.814957795324229,2979.9615608411
0.810567067491255,2979.9715608411
0.805180740006692,2979.9815608411
0.799572278565404,2979.9915608411
0.794217275172874,2980.0015608411
0.789543641394907,2980.0115608411
0.784349944880835,2980.0215608411
0.778341672817766,2980.0315608411
0.770390816521052,2980.0415608411
0.758305677111859,2980.0515608411
0.741864622079374,2980.0615608411
0.721192349498324,2980.0715608411
0.696011536366059,2980.0815608411
0.668207639993957,2980.0915608411
0.640186426455756,2980.1015608411
0.613793073239686,2980.1115608411
0.590643476301864,2980.1215608411
0.57127776395025,2980.1315608411
0.556377187889044,2980.1415608411
0.545204407270037,2980.1515608411
0.538095382411455,2980.1615608411
0.533583974106647,2980.1715608411
0.530297497246119,2980.1815608411
0.528029078118926,2980.1915608411
0.5261389657561,2980.2015608411
0.523553194990765,2980.2115608411
0.519561303224933,2980.2215608411
0.513722166696962,2980.2315608411
0.50503691230156,2980.2415608411
0.493638474811605,2980.2515608411
0.480292871111192,2980.2615608411
0.46506375955846,2980.2715608411
0.448203746791792,2980.2815608411
0.430074710142718,2980.2915608411
0.409806122958882,2980.3015608411
0.387880267029406,2980.3115608411
0.364574284252299,2980.3215608411
0.340285320049666,2980.3315608411
0.315582439859867,2980.3415608411
0.290811400453786,2980.3515608411
0.266232267298238,2980.3615608411
0.241030470599566,2980.3715608411
0.216002571272874,2980.3815608411
0.19091331669437,2980.3915608411
0.166396394816413,2980.4015608411
0.142815947430867,2980.4115608411
0.119872560462736,2980.4215608411
0.0972937103438143,2980.4315608411
0.0747198432449905,2980.4415608411
0.0522489148744851,2980.4515608411
0.030743597870739,2980.4615608411
0.00979539741876031,2980.4715608411
-0.00964198285787395,2980.4815608411
-0.0283650841336993,2980.4915608411
-0.0466960851593567,2980.5015608411
-0.064670150237991,2980.5115608411
-0.0822327582140212,2980.5215608411
-0.0999790956302633,2980.5315608411
-0.116827478904802,2980.5415608411
-0.132857011200946,2980.5515608411
-0.148470183200171,2980.5615608411
-0.163583244544165,2980.5715608411
-0.178606909355385,2980.5815608411
-0.19441768301943,2980.5915608411
-0.210136039127321,2980.6015608411
-0.225207490250608,2980.6115608411
-0.240433055694718,2980.6215608411
-0.255605132371126,2980.6315608411
-0.270357901082964,2980.6415608411
-0.285192214788439,2980.6515608411
-0.300009590923501,2980.6615608411
-0.314104108875358,2980.6715608411
-0.328733597823812,2980.6815608411
-0.343727513840737,2980.6915608411
-0.358496725038968,2980.7015608411
-0.372676720723597,2980.7115608411
-0.385969287846654,2980.7215608411
-0.398696598338797,2980.7315608411
-0.411517212719145,2980.7415608411
-0.424447931984782,2980.7515608411
-0.437647150456226,2980.7615608411
-0.451313316988219,2980.7715608411
-0.465570753295146,2980.7815608411
-0.479460528841514,2980.7915608411
-0.493506969068777,2980.8015608411
-0.506429654768389,2980.8115608411
-0.516158297342586,2980.8215608411
-0.519202234155247,2980.8315608411
-0.509658213684393,2980.8415608411
-0.482044011046567,2980.8515608411
-0.431917330374173,2980.8615608411
-0.356247931030856,2980.8715608411
-0.257915721106418,2980.8815608411
-0.140850191272574,2980.8915608411
-0.0122158866375497,2980.9015608411
0.119342624039153,2980.9115608411
0.247483689573116,2980.9215608411
0.365627869246044,2980.9315608411
0.469356425693668,2980.9415608411
0.556145126909915,2980.9515608411
0.624698627472906,2980.9615608411
0.676436085443288,2980.9715608411
0.712551833455076,2980.9815608411
0.736642955738561,2980.9915608411
0.750579865134742,2981.0015608411
0.756636571202122,2981.0115608411
0.757131020838942,2981.0215608411
0.753629842585612,2981.0315608411
0.747186308520067,2981.0415608411
0.739479624814423,2981.0515608411
0.731174824132252,2981.0615608411
0.722230928269992,2981.0715608411
0.713023136093512,2981.0815608411
0.70326710848354,2981.0915608411
0.692468076305444,2981.1015608411
0.679283988843955,2981.1115608411
0.662985194402285,2981.1215608411
0.642428707170116,2981.1315608411
0.618114373675603,2981.1415608411
0.591599197805598,2981.1515608411
0.56528470120665,2981.1615608411
0.540982968829513,2981.1715608411
0.519991767990631,2981.1815608411
0.503503181869882,2981.1915608411
0.491852877957943,2981.2015608411
0.484909293030937,2981.2115608411
0.482451021167319,2981.2215608411
0.482706003790309,2981.2315608411
0.485255975543362,2981.2415608411
0.48928502804805,2981.2515608411
0.493492414709399,2981.2615608411
0.497288664602197,2981.2715608411
0.500247549426227,2981.2815608411
0.500962662873691,2981.2915608411
0.498558997427133,2981.3015608411
0.493057947845575,2981.3115608411
0.48391939508733,2981.3215608411
0.472372189035153,2981.3315608411
0.458037340160342,2981.3415608411
0.441751753430255,2981.3515608411
0.423106566776681,2981.3615608411
0.402725325998342,2981.3715608411
0.381327823215722,2981.3815608411
0.359300897663163,2981.3915608411
0.337265735404723,2981.4015608411
0.314641045218843,2981.4115608411
0.291626891906489,2981.4215608411
0.268961486321471,2981.4315608411
0.246139763146936,2981.4415608411
0.223266462721129,2981.4515608411
0.201005684434209,2981.4615608411
0.179020182405146,2981.4715608411
0.157606152786668,2981.4815608411
0.136584937647413,2981.4915608411
0.116580605272473,2981.5015608411
0.0978266119205434,2981.5115608411
0.0794537816084034,2981.5215608411
0.061549217412832,2981.5315608411
0.0437938427510582,2981.5415608411
0.0264938645258255,2981.5515608411
0.00968543704851828,2981.5615608411
-0.00642702883205117,2981.5715608411
-0.0220857053452418,2981.5815608411
-0.0368382791716658,2981.5915608411
-0.0509776268064828,2981.6015608411
-0.065315724234657,2981.6115608411
-0.0796744488209697,2981.6215608411
-0.094178200261041,2981.6315608411
-0.109271320180433,2981.6415608411
-0.123884301942868,2981.6515608411
-0.138273729215392,2981.6615608411
-0.15208776654826,2981.6715608411
-0.164888334427973,2981.6815608411
-0.177473627032075,2981.6915608411
-0.189860205709048,2981.7015608411
-0.202137883022692,2981.7115608411
-0.214273963636466,2981.7215608411
-0.225905373643328,2981.7315608411
-0.237425814339402,2981.7415608411
-0.24902378194394,2981.7515608411
-0.260174491608294,2981.7615608411
-0.27194613979562,2981.7715608411
-0.284069063045188,2981.7815608411
-0.296411478993923,2981.7915608411
-0.309586852783885,2981.8015608411
-0.322529724140173,2981.8115608411
-0.335959223683772,2981.8215608411
-0.348882591943137,2981.8315608411
-0.360784883537317,2981.8415608411
-0.370141794322057,2981.8515608411
-0.374803182718442,2981.8615608411
-0.369702053720785,2981.8715608411
-0.348616603848191,2981.8815608411
-0.305264061502345,2981.8915608411
-0.235679720104289,2981.9015608411
-0.139439906053125,2981.9115608411
-0.0207176342494514,2981.9215608411
0.113694174871621,2981.9315608411
0.256314218570445,2981.9415608411
0.397741272359689,2981.9515608411
0.530292664482428,2981.9615608411
0.648563851494597,2981.9715608411
0.74857583592654,2981.9815608411
0.828788910216164,2981.9915608411
0.88970198740065,2982.0015608411
0.934128554739465,2982.0115608411
0.965037739497768,2982.0215608411
0.984166622227005,2982.0315608411
0.995038597397749,2982.0415608411
0.999374110522495,2982.0515608411
0.999163476929914,2982.0615608411
0.99633285995392,2982.0715608411
0.991614469332857,2982.0815608411
0.987099249955574,2982.0915608411
0.982720240269763,2982.1015608411
0.978733257055143,2982.1115608411
0.975132067395086,2982.1215608411
0.971679148810172,2982.1315608411
0.967422135721222,2982.1415608411
0.960626193897658,2982.1515608411
0.95032026165708,2982.1615608411
0.934793853820731,2982.1715608411
0.913661993151195,2982.1815608411
0.88802171995052,2982.1915608411
0.86015140323796,2982.2015608411
0.832180202493326,2982.2115608411
0.805402462607631,2982.2215608411
0.78142491099928,2982.2315608411
0.760194723117127,2982.2415608411
0.742619004178977,2982.2515608411
0.728317984073127,2982.2615608411
0.717197352964697,2982.2715608411
0.708245306590363,2982.2815608411
0.701523578155666,2982.2915608411
0.696522229020147,2982.3015608411
0.693156658847943,2982.3115608411
0.690294903056597,2982.3215608411
0.68739831992079,2982.3315608411
0.683178091449667,2982.3415608411
0.676218833759533,2982.3515608411
0.666789602407308,2982.3615608411
0.654941367647305,2982.3715608411
0.640816103851118,2982.3815608411
0.624348367722474,2982.3915608411
0.60606495526235,2982.4015608411
0.585862689832376,2982.4115608411
0.563704347656622,2982.4215608411
0.540688460009119,2982.4315608411
0.516499820583362,2982.4415608411
0.492044719810538,2982.4515608411
0.467370475612042,2982.4615608411
0.442851493602406,2982.4715608411
0.418174496575427,2982.4815608411
0.393774618722978,2982.4915608411
0.369172380043534,2982.5015608411
0.34504320829692,2982.5115608411
0.321348075148236,2982.5215608411
0.298395113830365,2982.5315608411
0.276178394170935,2982.5415608411
0.254811695916725,2982.5515608411
0.233558685790712,2982.5615608411
0.213122639149997,2982.5715608411
0.193729261554544,2982.5815608411
0.174740036262179,2982.5915608411
0.156619393416087,2982.6015608411
0.138856167634801,2982.6115608411
0.121453792166455,2982.6215608411
0.104387199669116,2982.6315608411
0.0872305391615534,2982.6415608411
0.0704034960879122,2982.6515608411
0.0539910494343221,2982.6615608411
0.0381700897895707,2982.6715608411
0.0225044368089197,2982.6815608411
0.00738413632536212,2982.6915608411
-0.00730691255456024,2982.7015608411
-0.0213139191805471,2982.7115608411
-0.0352637284954002,2982.7215608411
-0.0489899388134734,2982.7315608411
-0.0631586130025686,2982.7415608411
-0.076755134898118,2982.7515608411
-0.0905099467459122,2982.7615608411
-0.104281197358369,2982.7715608411
-0.118349311368252,2982.7815608411
-0.132065156716004,2982.7915608411
-0.145540285393285,2982.8015608411
-0.159555460864866,2982.8115608411
-0.172997815334636,2982.8215608411
-0.18701442949921,2982.8315608411
-0.200926703433812,2982.8415608411
-0.215408450448602,2982.8515608411
-0.229839754669509,2982.8615608411
-0.244024880916158,2982.8715608411
-0.257547066625663,2982.8815608411
-0.270023631697748,2982.8915608411
-0.282634223588512,2982.9015608411
-0.294850414078776,2982.9115608411
-0.306437927677281,2982.9215608411
-0.318897490945342,2982.9315608411
-0.332060692634724,2982.9415608411
-0.345524594401181,2982.9515608411
-0.35942356824079,2982.9615608411
-0.373247775393343,2982.9715608411
-0.386692396246736,2982.9815608411
-0.398956314829121,2982.9915608411
-0.406986147426026,2983.0015608411
-0.406915821847965,2983.0115608411
-0.392744718943233,2983.0215608411
-0.357768137948845,2983.0315608411
-0.296326110448508,2983.0415608411
-0.206310291390901,2983.0515608411
-0.0898954222723514,2983.0615608411
0.0470060792352311,2983.0715608411
0.195430894380714,2983.0815608411
0.346358113751094,2983.0915608411
0.490314711302495,2983.1015608411
0.620207757136241,2983.1115608411
0.731044904396672,2983.1215608411
0.820764735390953,2983.1315608411
0.88956411969422,2983.1415608411
0.938984322140434,2983.1515608411
0.972615464533242,2983.1615608411
0.993531128168622,2983.1715608411
1.00453218689689,2983.1815608411
1.00793394319773,2983.1915608411
1.00583538963296,2983.2015608411
0.999977435806143,2983.2115608411
0.99131081313993,2983.2215608411
0.981411389095675,2983.2315608411
0.971347985275846,2983.2415608411
0.961928316097395,2983.2515608411
0.953418821730869,2983.2615608411
0.945363060904563,2983.2715608411
0.937543972054472,2983.2815608411
0.928593262782848,2983.2915608411
0.917264584876494,2983.3015608411
0.9020621305693,2983.3115608411
0.882126782016327,2983.3215608411
0.858288098622143,2983.3315608411
0.831503911708631,2983.3415608411
0.803331538867897,2983.3515608411
0.77601710907493,2983.3615608411
0.750546074476822,2983.3715608411
0.728091795818065,2983.3815608411
0.709907872733062,2983.3915608411
0.695538370393164,2983.4015608411
0.685265224088791,2983.4115608411
0.678954634701477,2983.4215608411
0.675708069619532,2983.4315608411
0.674832427227465,2983.4415608411
0.674442238758654,2983.4515608411
0.674728076932872,2983.4615608411
0.673672779803818,2983.4715608411
0.671517693950891,2983.4815608411
0.666823128230419,2983.4915608411
0.659432778736847,2983.5015608411
0.649209670416902,2983.5115608411
0.636377208673833,2983.5215608411
0.621306823079865,2983.5315608411
0.603814690359623,2983.5415608411
0.584310029042431,2983.5515608411
0.563174171939615,2983.5615608411
0.54058863261689,2983.5715608411
0.517621350587177,2983.5815608411
0.494150626872392,2983.5915608411
0.469993037941945,2983.6015608411
0.446081834850254,2983.6115608411
0.421353713081027,2983.6215608411
0.39668730767259,2983.6315608411
0.371813226616778,2983.6415608411
0.346880980266788,2983.6515608411
0.32237207939955,2983.6615608411
0.297996601789971,2983.6715608411
0.275128553156918,2983.6815608411
0.252882732400018,2983.6915608411
0.23125882604115,2983.7015608411
0.210395549602945,2983.7115608411
0.190042331852792,2983.7215608411
0.169553278426113,2983.7315608411
0.14994656130167,2983.7415608411
0.131075666733141,2983.7515608411
0.112652991405816,2983.7615608411
0.0948920042863219,2983.7715608411
0.0770245243565308,2983.7815608411
0.0599351969511928,2983.7915608411
0.0430038092425696,2983.8015608411
0.0268842375477428,2983.8115608411
0.012089177128099,2983.8215608411
-0.00179350705759151,2983.8315608411
-0.0151836269014896,2983.8415608411
-0.0284231017371502,2983.8515608411
-0.0415647050999451,2983.8615608411
-0.0551477794171428,2983.8715608411
-0.0690539646420127,2983.8815608411
-0.0826923159764685,2983.8915608411
-0.0958107073247509,2983.9015608411
-0.108569412962201,2983.9115608411
-0.121577557863173,2983.9215608411
-0.133824398105589,2983.9315608411
-0.146250002442322,2983.9415608411
-0.158413318863574,2983.9515608411
-0.170256337448495,2983.9615608411
-0.182831688266545,2983.9715608411
-0.195499490625265,2983.9815608411
-0.208446728350072,2983.9915608411
-0.221852694104771,2984.0015608411
-0.235324701112684,2984.0115608411
-0.249175469788547,2984.0215608411
-0.263093414215862,2984.0315608411
-0.276352082270179,2984.0415608411
-0.290242277486153,2984.0515608411
-0.30433767448368,2984.0615608411
-0.318177757277396,2984.0715608411
-0.332327141461847,2984.0815608411
-0.3463092014302,2984.0915608411
-0.360532462512514,2984.1015608411
-0.375100709076101,2984.1115608411
-0.389883450283896,2984.1215608411
-0.403763722561184,2984.1315608411
-0.413714440007569,2984.1415608411
-0.415727380817148,2984.1515608411
-0.403099135389456,2984.1615608411
-0.368336168688593,2984.1715608411
-0.306172235492568,2984.1815608411
-0.214109383855177,2984.1915608411
-0.0945930157579095,2984.2015608411
0.0448086378426376,2984.2115608411
0.195148643240992,2984.2215608411
0.346343503897913,2984.2315608411
0.489623794414562,2984.2415608411
0.617766166562781,2984.2515608411
0.725713406493954,2984.2615608411
0.812431675465719,2984.2715608411
0.877955916546869,2984.2815608411
0.924154605970339,2984.2915608411
0.953953165984533,2984.3015608411
0.970256874383765,2984.3115608411
0.975794109636505,2984.3215608411
0.973452702525428,2984.3315608411
0.965950713714579,2984.3415608411
0.95536296213575,2984.3515608411
0.943184570642007,2984.3615608411
0.931017907244317,2984.3715608411
0.918699525615926,2984.3815608411
0.906917845116742,2984.3915608411
0.895997964172686,2984.4015608411
0.885767605945762,2984.4115608411
0.875277597183207,2984.4215608411
0.863249448558844,2984.4315608411
0.8478606307815,2984.4415608411
0.828220971703288,2984.4515608411
0.804659747138394,2984.4615608411
0.7768088106087,2984.4715608411
0.746280034757327,2984.4815608411
0.714519478851765,2984.4915608411
0.683734113925257,2984.5015608411
0.656432780616284,2984.5115608411
0.632901493832071,2984.5215608411
0.613774232761499,2984.5315608411
0.599915405910017,2984.5415608411
0.590748377147558,2984.5515608411
0.58580289106033,2984.5615608411
0.58428298825705,2984.5715608411
0.584568302087616,2984.5815608411
0.58611442526616,2984.5915608411
0.587012802909386,2984.6015608411
0.586418081392907,2984.6115608411
0.583505476347196,2984.6215608411
0.578163418990803,2984.6315608411
0.569633530607979,2984.6415608411
0.558675077392426,2984.6515608411
0.545098647814551,2984.6615608411
0.528919138715043,2984.6715608411
0.510517098605615,2984.6815608411
0.490321066384972,2984.6915608411
0.46816036530694,2984.7015608411
0.444768323895857,2984.7115608411
0.420556930084777,2984.7215608411
0.395689162631178,2984.7315608411
0.370125842597227,2984.7415608411
0.344037533829297,2984.7515608411
0.317658041971934,2984.7615608411
0.291854890189715,2984.7715608411
0.26644149192957,2984.7815608411
0.241470419484028,2984.7915608411
0.216736667753894,2984.8015608411
0.192824939692047,2984.8115608411
0.168830323872456,2984.8215608411
0.14550215220156,2984.8315608411
0.123067621455848,2984.8415608411
0.101408681815034,2984.8515608411
0.080528334365429,2984.8615608411
0.0606480420984257,2984.8715608411
0.0413466923299448,2984.8815608411
0.0220199875044605,2984.8915608411
0.00366982855529033,2984.9015608411
-0.0142663014796821,2984.9115608411
-0.0317679147411714,2984.9215608411
-0.0487438948608026,2984.9315608411
-0.0654241677596159,2984.9415608411
-0.0817989072753048,2984.9515608411
-0.0975680772516949,2984.9615608411
-0.112972935435533,2984.9715608411
-0.128286784090285,2984.9815608411
-0.143020253738935,2984.9915608411
-0.157272376029643,2985.0015608411
-0.170749800706702,2985.0115608411
-0.184290259129222,2985.0215608411
-0.198437515629524,2985.0315608411
-0.212286229449271,2985.0415608411
-0.226833761018773,2985.0515608411
-0.241710853278124,2985.0615608411
-0.256451651383549,2985.0715608411
-0.270736193830776,2985.0815608411
-0.284183648745083,2985.0915608411
-0.296670540808408,2985.1015608411
-0.308490830303221,2985.1115608411
-0.32061732190939,2985.1215608411
-0.333034694601292,2985.1315608411
-0.344880401324537,2985.1415608411
-0.356791786014974,2985.1515608411
-0.368736815124112,2985.1615608411
-0.380994372834665,2985.1715608411
-0.393830510791774,2985.1815608411
-0.407319777549254,2985.1915608411
-0.420399711690294,2985.2015608411
-0.43334591452668,2985.2115608411
-0.446477138386291,2985.2215608411
-0.458639490627275,2985.2315608411
-0.469403589947434,2985.2415608411
-0.475050433437372,2985.2515608411
-0.470003187777977,2985.2615608411
-0.447064573778973,2985.2715608411
-0.399478808117915,2985.2815608411
-0.32347757813124,2985.2915608411
-0.21820094459419,2985.3015608411
-0.0889542089473114,2985.3115608411
0.0561243648336638,2985.3215608411
0.207585900928132,2985.3315608411
0.355570810856589,2985.3415608411
0.492112281672543,2985.3515608411
0.611234784655044,2985.3615608411
0.709611954719077,2985.3715608411
0.786279566177693,2985.3815608411
0.842377255128315,2985.3915608411
0.880621166284554,2985.4015608411
0.903671507114456,2985.4115608411
0.914314480171239,2985.4215608411
0.91574195875083,2985.4315608411
0.910028994040129,2985.4415608411
0.899232718074314,2985.4515608411
0.885785173857643,2985.4615608411
0.870368147174677,2985.4715608411
0.854340719709116,2985.4815608411
0.839034869737953,2985.4915608411
0.824323050968381,2985.5015608411
0.810058651923278,2985.5115608411
0.794867554438182,2985.5215608411
0.777598305842523,2985.5315608411
0.75650209787075,2985.5415608411
0.731528222933945,2985.5515608411
0.702952179100274,2985.5615608411
0.672309173416565,2985.5715608411
0.64178034280466,2985.5815608411
0.613589408431061,2985.5915608411
0.588465484113182,2985.6015608411
0.567208049411131,2985.6115608411
0.550690318720681,2985.6215608411
0.538630619388865,2985.6315608411
0.531618642553002,2985.6415608411
0.529653745226659,2985.6515608411
0.531512783758897,2985.6615608411
0.536894654319199,2985.6715608411
0.544274528946824,2985.6815608411
0.551807151791574,2985.6915608411
0.558752913663631,2985.7015608411
0.563448325545331,2985.7115608411
0.56449199309356,2985.7215608411
0.561335566497564,2985.7315608411
0.554310472229108,2985.7415608411
0.543686695244442,2985.7515608411
0.529235049526065,2985.7615608411
0.512537347472927,2985.7715608411
0.494105734353588,2985.7815608411
0.474536991580132,2985.7915608411
0.454155562038529,2985.8015608411
0.433074652112727,2985.8115608411
0.411117657075381,2985.8215608411
0.388479889099353,2985.8315608411
0.365480584348145,2985.8415608411
0.342035945430725,2985.8515608411
0.318501456772906,2985.8615608411
0.294487950401028,2985.8715608411
0.270880363471595,2985.8815608411
0.248237147093448,2985.8915608411
0.226176017892496,2985.9015608411
0.204994070886366,2985.9115608411
0.185015565089772,2985.9215608411
0.166179028766798,2985.9315608411
0.147998402477665,2985.9415608411
0.129965850220816,2985.9515608411
0.112545764039153,2985.9615608411
0.0957457309206634,2985.9715608411
0.0792622710304202,2985.9815608411
0.0635532742852023,2985.9915608411
0.0476518560437355,2986.0015608411
0.0318697288161408,2986.0115608411
0.0161546722993216,2986.0215608411
0.00101389421020445,2986.0315608411
-0.0135106364858629,2986.0415608411
-0.0275989053488155,2986.0515608411
-0.041016583133218,2986.0615608411
-0.0544979366474527,2986.0715608411
-0.0683241004694824,2986.0815608411
-0.0815809533439196,2986.0915608411
-0.0948110885011696,2986.1015608411
-0.107223876361797,2986.1115608411
-0.11928230724749,2986.1215608411
-0.131234594215072,2986.1315608411
-0.142947860913023,2986.1415608411
-0.154797244296793,2986.1515608411
-0.16683173721793,2986.1615608411
-0.178982830377131,2986.1715608411
-0.190793341837671,2986.1815608411
-0.201992766502418,2986.1915608411
-0.213089806582147,2986.2015608411
-0.22383396269546,2986.2115608411
-0.234624279974268,2986.2215608411
-0.245793511664281,2986.2315608411
-0.25704613624545,2986.2415608411
-0.268263067468426,2986.2515608411
-0.279597132080115,2986.2615608411
-0.290825751099946,2986.2715608411
-0.30199779623757,2986.2815608411
-0.313414992154299,2986.2915608411
-0.325261339926617,2986.3015608411
-0.337298454973751,2986.3115608411
-0.346186048625071,2986.3215608411
-0.348434510260606,2986.3315608411
-0.337539148882126,2986.3415608411
-0.305591212211816,2986.3515608411
-0.246780242955897,2986.3615608411
-0.157037996470052,2986.3715608411
-0.0375745558619386,2986.3815608411
0.105448028759862,2986.3915608411
0.263174368587157,2986.4015608411
0.425060072641703,2986.4115608411
0.579816168061333,2986.4215608411
0.719753149060914,2986.4315608411
0.839723398783231,2986.4415608411
0.937261760615905,2986.4515608411
1.01286599543077,2986.4615608411
1.06819642653614,2986.4715608411
1.10598042858295,2986.4815608411
1.12988632658755,2986.4915608411
1.14299049344472,2986.5015608411
1.14719689841842,2986.5115608411
1.14647212935118,2986.5215608411
1.14213967235344,2986.5315608411
1.13595151701955,2986.5415608411
1.12883528578022,2986.5515608411
1.12113142550234,2986.5615608411
1.11324552420041,2986.5715608411
1.10526497560827,2986.5815608411
1.09747453122348,2986.5915608411
1.08953388114918,2986.6015608411
1.0805988864157,2986.6115608411
1.06979580481824,2986.6215608411
1.05614117473149,2986.6315608411
1.03764180493351,2986.6415608411
1.01399928505758,2986.6515608411
0.985611117700807,2986.6615608411
0.954404166782403,2986.6715608411
0.922455598006283,2986.6815608411
0.891503558685907,2986.6915608411
0.863296255819276,2986.7015608411
0.838898015201496,2986.7115608411
0.818429456660416,2986.7215608411
0.803159639529773,2986.7315608411
0.792712118658302,2986.7415608411
0.785621261759207,2986.7515608411
0.78274118733904,2986.7615608411
0.781523181394776,2986.7715608411
0.781343727309492,2986.7815608411
0.781129111089025,2986.7915608411
0.779275224637667,2986.8015608411
0.775770972593153,2986.8115608411
0.769650618981258,2986.8215608411
0.759959227625284,2986.8315608411
0.746765340996246,2986.8415608411
0.730752466369158,2986.8515608411
0.71265700810131,2986.8615608411
0.692892687739038,2986.8715608411
0.671530616767795,2986.8815608411
0.649722361560096,2986.8915608411
0.626425807402014,2986.9015608411
0.602217284158313,2986.9115608411
0.577253428052948,2986.9215608411
0.552421463588847,2986.9315608411
0.527540762688223,2986.9415608411
0.502948679350605,2986.9515608411
0.478928417282962,2986.9615608411
0.455329977388703,2986.9715608411
0.431972357144065,2986.9815608411
0.409063003152175,2986.9915608411
0.386654933682757,2987.0015608411
0.364224405375972,2987.0115608411
0.341992777862365,2987.0215608411
0.320724676289515,2987.0315608411
0.2993492278203,2987.0415608411
0.279646626263583,2987.0515608411
0.26126342910757,2987.0615608411
0.243895862070011,2987.0715608411
0.227423112986368,2987.0815608411
0.210818513277656,2987.0915608411
0.193595658370544,2987.1015608411
0.175480283089055,2987.1115608411
0.157846881589874,2987.1215608411
0.140707942392551,2987.1315608411
0.124127224874217,2987.1415608411
0.108439055277503,2987.1515608411
0.0936712561420601,2987.1615608411
0.0797903056267888,2987.1715608411
0.0661992430124291,2987.1815608411
0.0530767381086797,2987.1915608411
0.0397321875135133,2987.2015608411
0.0254851483610134,2987.2115608411
0.0107096142165275,2987.2215608411
-0.00463036529031492,2987.2315608411
-0.0202037110703335,2987.2415608411
-0.0359346256115306,2987.2515608411
-0.051135623926576,2987.2615608411
-0.0657054323106716,2987.2715608411
-0.0798594789831576,2987.2815608411
-0.0941883687323078,2987.2915608411
-0.108489522766006,2987.3015608411
-0.122813404490317,2987.3115608411
-0.136483970153656,2987.3215608411
-0.15014539803276,2987.3315608411
-0.163704913441924,2987.3415608411
-0.177689707761586,2987.3515608411
-0.192234797762222,2987.3615608411
-0.206854392278532,2987.3715608411
-0.22189415047398,2987.3815608411
-0.236590831378538,2987.3915608411
-0.251296370506835,2987.4015608411
-0.265863885453524,2987.4115608411
-0.280046355482493,2987.4215608411
-0.294269757742622,2987.4315608411
-0.308892302733399,2987.4415608411
-0.322704296705437,2987.4515608411
-0.335352064382161,2987.4615608411
-0.34339769080546,2987.4715608411
-0.341956330572877,2987.4815608411
-0.324104355157689,2987.4915608411
-0.281799571513235,2987.5015608411
-0.210020260735707,2987.5115608411
-0.108319481270725,2987.5215608411
0.0190990724630769,2987.5315608411
0.164844142626743,2987.5415608411
0.318431169670943,2987.5515608411
0.469981442030294,2987.5615608411
0.611230191202543,2987.5715608411
0.734909353656813,2987.5815608411
0.838233486453475,2987.5915608411
0.919553382182712,2987.6015608411
0.979664663242472,2987.6115608411
1.02108889084075,2987.6215608411
1.04691732697468,2987.6315608411
1.06033114381158,2987.6415608411
1.06514130697534,2987.6515608411
1.06339177312097,2987.6615608411
1.05756215719873,2987.6715608411
1.0490915467107,2987.6815608411
1.03906102918422,2987.6915608411
1.0281707935865,2987.7015608411
1.01688220251198,2987.7115608411
1.00588264819944,2987.7215608411
0.995574368639132,2987.7315608411
0.985878657109953,2987.7415608411
0.976567785265499,2987.7515608411
0.965906999770236,2987.7615608411
0.951777649148907,2987.7715608411
0.931986379100584,2987.7815608411
0.906537903119944,2987.7915608411
0.876442902543472,2987.8015608411
0.843151033602913,2987.8115608411
0.809840420356649,2987.8215608411
0.778302926974729,2987.8315608411
0.749873806667273,2987.8415608411
0.72539909059417,2987.8515608411
0.705455260081787,2987.8615608411
0.689040202145442,2987.8715608411
0.677150294740875,2987.8815608411
0.668618088463396,2987.8915608411
0.66333037206724,2987.9015608411
0.660294613747397,2987.9115608411
0.657776956343901,2987.9215608411
0.654600639883824,2987.9315608411
0.650222420398502,2987.9415608411
0.643698725987401,2987.9515608411
0.634605942145292,2987.9615608411
0.622860478400033,2987.9715608411
0.607990603364945,2987.9815608411
0.590875736044061,2987.9915608411
0.571183989093181,2988.0015608411
0.549301607951428,2988.0115608411
0.52483978968631,2988.0215608411
0.499278220924059,2988.0315608411
0.473404388376479,2988.0415608411
0.446124104672376,2988.0515608411
0.418761442909408,2988.0615608411
0.39074679824414,2988.0715608411
0.362530156534073,2988.0815608411
0.334935360696894,2988.0915608411
0.308022720046804,2988.1015608411
0.281614483933483,2988.1115608411
0.255763605957114,2988.1215608411
0.229591440305907,2988.1315608411
0.203672473544916,2988.1415608411
0.178393398835235,2988.1515608411
0.154079786628192,2988.1615608411
0.130928712063514,2988.1715608411
0.10848194977329,2988.1815608411
0.0871110769916433,2988.1915608411
0.066240773205817,2988.2015608411
0.045137811224395,2988.2115608411
0.0239161754351005,2988.2215608411
0.0028184372266806,2988.2315608411
-0.0181634530387482,2988.2415608411
-0.0379542434217168,2988.2515608411
-0.0570672736396552,2988.2615608411
-0.0757401595104605,2988.2715608411
-0.0936098953701416,2988.2815608411
-0.111320470380271,2988.2915608411
-0.129103525686619,2988.3015608411
-0.147456628572657,2988.3115608411
-0.165677689375923,2988.3215608411
-0.183860883683557,2988.3315608411
-0.202398424869996,2988.3415608411
-0.219870027427983,2988.3515608411
-0.238058147725523,2988.3615608411
-0.256214595832863,2988.3715608411
-0.273765590159094,2988.3815608411
-0.290826719376182,2988.3915608411
-0.307159734435823,2988.4015608411
-0.323704246905228,2988.4115608411
-0.340760393616098,2988.4215608411
-0.357775537619566,2988.4315608411
-0.375247142806376,2988.4415608411
-0.393078367680897,2988.4515608411
-0.410787552494136,2988.4615608411
-0.428318902019517,2988.4715608411
-0.444922004709512,2988.4815608411
-0.461607719689859,2988.4915608411
-0.478655722281866,2988.5015608411
-0.496266844864924,2988.5115608411
-0.515075385026588,2988.5215608411
-0.533507521143481,2988.5315608411
-0.551924411302302,2988.5415608411
-0.569889970964937,2988.5515608411
-0.586664216639317,2988.5615608411
-0.600812566819652,2988.5715608411
-0.608790773065166,2988.5815608411
-0.605253679055379,2988.5915608411
-0.584227701138146,2988.6015608411
-0.53886685946687,2988.6115608411
-0.466699436434274,2988.6215608411
-0.367713050834445,2988.6315608411
-0.247120695016797,2988.6415608411
-0.111916739334087,2988.6515608411
0.0290448885327947,2988.6615608411
0.166213440730609,2988.6715608411
0.293038432920913,2988.6815608411
0.404060109655845,2988.6915608411
0.496215504172854,2988.7015608411
0.568587207718802,2988.7115608411
0.622354161429187,2988.7215608411
0.659458576771705,2988.7315608411
0.682574130199858,2988.7415608411
0.694432547036025,2988.7515608411
0.698021176682929,2988.7615608411
0.696069115330485,2988.7715608411
0.690347978298943,2988.7815608411
0.682467603175116,2988.7915608411
0.673342742098329,2988.8015608411
0.663002346479046,2988.8115608411
0.65234809605007,2988.8215608411
0.64211001094831,2988.8315608411
0.63123962405987,2988.8415608411
0.620108030194799,2988.8515608411
0.607596739198607,2988.8615608411
0.592295948670435,2988.8715608411
0.573317656476826,2988.8815608411
0.549788514363956,2988.8915608411
0.522411082020732,2988.9015608411
0.491966229309986,2988.9115608411
0.461422078019623,2988.9215608411
0.431974109255732,2988.9315608411
0.405556818802472,2988.9415608411
0.383645571733397,2988.9515608411
0.36625844685745,2988.9615608411
0.353623855223515,2988.9715608411
0.345153529582472,2988.9815608411
0.339916647456016,2988.9915608411
0.337585987591556,2989.0015608411
0.337299086099697,2989.0115608411
0.338827526384107,2989.0215608411
0.341086757405618,2989.0315608411
0.342607446876044,2989.0415608411
0.342687870942208,2989.0515608411
0.339511599097757,2989.0615608411
0.333329963395715,2989.0715608411
0.323757663748551,2989.0815608411
0.310744448975729,2989.0915608411
0.294736317132791,2989.1015608411
0.275651097544384,2989.1115608411
0.255149716915241,2989.1215608411
0.232630453318025,2989.1315608411
0.20914215183453,2989.1415608411
0.184886310122432,2989.1515608411
0.160053643193971,2989.1615608411
0.134822207462427,2989.1715608411
0.109861389603992,2989.1815608411
0.0844936658864482,2989.1915608411
0.0591539730090622,2989.2015608411
0.0341681874548726,2989.2115608411
0.00947239237234631,2989.2215608411
-0.0134705403743025,2989.2315608411
-0.0356211217948432,2989.2415608411
-0.0562143611430128,2989.2515608411
-0.0757957586312829,2989.2615608411
-0.0948892333838188,2989.2715608411
-0.113501197891278,2989.2815608411
-0.131369474733409,2989.2915608411
-0.148961225679473,2989.3015608411
-0.166197504490134,2989.3115608411
-0.183143960675225,2989.3215608411
-0.199675491044111,2989.3315608411
-0.216410564909638,2989.3415608411
-0.232782325034086,2989.3515608411
-0.248545518026493,2989.3615608411
-0.263952514872998,2989.3715608411
-0.279261070204653,2989.3815608411
-0.293747791521485,2989.3915608411
-0.308312012612145,2989.4015608411
-0.322093958614314,2989.4115608411
-0.335738625473066,2989.4215608411
-0.349851415381807,2989.4315608411
-0.364408935172433,2989.4415608411
-0.37909510831839,2989.4515608411
-0.393829535557087,2989.4615608411
-0.408773778325714,2989.4715608411
-0.42258192962342,2989.4815608411
-0.435855655170968,2989.4915608411
-0.448169457004548,2989.5015608411
-0.460739047012583,2989.5115608411
-0.473539486596466,2989.5215608411
-0.487095746633403,2989.5315608411
-0.501870328461354,2989.5415608411
-0.516866828186401,2989.5515608411
-0.532041711294889,2989.5615608411
-0.547485320420457,2989.5715608411
-0.562185269170286,2989.5815608411
-0.574496331084024,2989.5915608411
-0.581413336228453,2989.6015608411
-0.578447134709445,2989.6115608411
-0.559709643375439,2989.6215608411
-0.519017398778286,2989.6315608411
-0.452999090423092,2989.6415608411
-0.361385559003573,2989.6515608411
-0.247282290703626,2989.6615608411
-0.117955995507603,2989.6715608411
0.018605085337946,2989.6815608411
0.153705393882987,2989.6915608411
0.280177028312881,2989.7015608411
0.392276766933815,2989.7115608411
0.48694019651592,2989.7215608411
0.562764451628334,2989.7315608411
0.621227092758252,2989.7415608411
0.663745116301882,2989.7515608411
0.69270673309453,2989.7615608411
0.71053595382544,2989.7715608411
0.719193110030367,2989.7815608411
0.721734033119204,2989.7915608411
0.719900186808345,2989.8015608411
0.715939127567842,2989.8115608411
0.711192737309895,2989.8215608411
0.706058521160638,2989.8315608411
0.700896232581107,2989.8415608411
0.69542147563233,2989.8515608411
0.689713436184715,2989.8615608411
0.683829830019788,2989.8715608411
0.676383550844019,2989.8815608411
0.666037115651441,2989.8915608411
0.651091917006477,2989.9015608411
0.630683329771492,2989.9115608411
0.605198702753243,2989.9215608411
0.575342155126368,2989.9315608411
0.543698127033225,2989.9415608411
0.511947856604414,2989.9515608411
0.482875663855922,2989.9615608411
0.457894211981054,2989.9715608411
0.437861690460555,2989.9815608411
0.421893944494851,2989.9915608411
0.410595572820358,2990.0015608411
0.402907733244152,2990.0115608411
0.397951371897613,2990.0215608411
0.394662418488215,2990.0315608411
0.392653256700871,2990.0415608411
0.391596816586925,2990.0515608411
0.389893795638688,2990.0615608411
0.387354759623319,2990.0715608411
0.382581794543825,2990.0815608411
0.374644296916475,2990.0915608411
0.363483780753866,2990.1015608411
0.348796091538634,2990.1115608411
0.330765317081941,2990.1215608411
0.310858534326064,2990.1315608411
0.289050083033618,2990.1415608411
0.266554186354709,2990.1515608411
0.243218296484671,2990.1615608411
0.219229846586782,2990.1715608411
0.194218466829185,2990.1815608411
0.169308195376927,2990.1915608411
0.144451074254654,2990.2015608411
0.120240959172718,2990.2115608411
0.0966837112117145,2990.2215608411
0.0731435182404938,2990.2315608411
0.0494842557215272,2990.2415608411
0.0256134777517481,2990.2515608411
0.00225602094888983,2990.2615608411
-0.0206330144384262,2990.2715608411
-0.0432095420914937,2990.2815608411
-0.0649043171851347,2990.2915608411
-0.0855742679411951,2990.3015608411
-0.105557510112614,2990.3115608411
-0.124733805267413,2990.3215608411
-0.143634941221536,2990.3315608411
-0.161981089103613,2990.3415608411
-0.180153131940392,2990.3515608411
-0.19821291979522,2990.3615608411
-0.216353677779234,2990.3715608411
-0.233847554539331,2990.3815608411
-0.251127756299938,2990.3915608411
-0.267786319265905,2990.4015608411
-0.2843109203181,2990.4115608411
-0.301356383468201,2990.4215608411
-0.317507021035963,2990.4315608411
-0.333349148480091,2990.4415608411
-0.348990107995328,2990.4515608411
-0.364215548039124,2990.4615608411
-0.379885077651493,2990.4715608411
-0.395193955606877,2990.4815608411
-0.41033620478789,2990.4915608411
-0.42554822466516,2990.5015608411
-0.441042249323311,2990.5115608411
-0.456371544540819,2990.5215608411
-0.471568327725183,2990.5315608411
-0.486680001336754,2990.5415608411
-0.502145602707336,2990.5515608411
-0.517552729628563,2990.5615608411
-0.53282082489649,2990.5715608411
-0.547333821362873,2990.5815608411
-0.562150038481177,2990.5915608411
-0.577093442713154,2990.6015608411
-0.592700474095226,2990.6115608411
-0.607846508678457,2990.6215608411
-0.622530428505279,2990.6315608411
-0.636409355574871,2990.6415608411
-0.649894181426461,2990.6515608411
-0.663540450917676,2990.6615608411
-0.677301151042418,2990.6715608411
-0.691228373553816,2990.6815608411
-0.706161299163863,2990.6915608411
-0.721331774762265,2990.7015608411
-0.737282776874975,2990.7115608411
-0.752605398920183,2990.7215608411
-0.765960787121217,2990.7315608411
-0.774944858643705,2990.7415608411
-0.77562957116655,2990.7515608411
-0.762111703792696,2990.7615608411
-0.727365666834583,2990.7715608411
-0.666312797286589,2990.7815608411
-0.577702483554283,2990.7915608411
-0.463823838489353,2990.8015608411
-0.330428725675566,2990.8115608411
-0.185489685245519,2990.8215608411
-0.03764209773122,2990.8315608411
0.104990714733325,2990.8415608411
0.23558285138675,2990.8515608411
0.349077330537534,2990.8615608411
0.442639018211315,2990.8715608411
0.516159385193648,2990.8815608411
0.570925491381913,2990.8915608411
0.609827619874469,2990.9015608411
0.634763021351887,2990.9115608411
0.648942569608074,2990.9215608411
0.654924520856139,2990.9315608411
0.655805701155772,2990.9415608411
0.653198316698079,2990.9515608411
0.648832132368346,2990.9615608411
0.643517358525405,2990.9715608411
0.638015209390992,2990.9815608411
0.632683099998008,2990.9915608411
0.62788639192233,2991.0015608411
0.623105789512491,2991.0115608411
0.618240960172982,2991.0215608411
0.611368417683245,2991.0315608411
0.600792112591262,2991.0415608411
0.585794695083528,2991.0515608411
0.564966770344617,2991.0615608411
0.539983205080505,2991.0715608411
0.510980554625822,2991.0815608411
0.480118631357848,2991.0915608411
0.448828558702264,2991.1015608411
0.419527682144534,2991.1115608411
0.392668793080334,2991.1215608411
0.369545215933131,2991.1315608411
0.351400021577509,2991.1415608411
0.337373263295728,2991.1515608411
0.327035253013059,2991.1615608411
0.320153000248476,2991.1715608411
0.315477308747022,2991.1815608411
0.311514838748227,2991.1915608411
0.307965372142725,2991.2015608411
0.304273591063713,2991.2115608411
0.299893001360883,2991.2215608411
0.293871565773422,2991.2315608411
0.285901788905848,2991.2415608411
0.274967612090843,2991.2515608411
0.261212626697386,2991.2615608411
0.244529400174764,2991.2715608411
0.225046719404531,2991.2815608411
0.203643021834477,2991.2915608411
0.180792542609748,2991.3015608411
0.156684795213036,2991.3115608411
0.131736780295968,2991.3215608411
0.106508892994834,2991.3315608411
0.0814028538495047,2991.3415608411
0.0554431758718667,2991.3515608411
0.0292756456292164,2991.3615608411
0.00372145799694258,2991.3715608411
-0.0217697343492499,2991.3815608411
-0.0466418643303504,2991.3915608411
-0.0710141230526442,2991.4015608411
-0.0952122797516135,2991.4115608411
-0.118932515252107,2991.4215608411
-0.142587841305516,2991.4315608411
-0.165958357683457,2991.4415608411
-0.189029547932832,2991.4515608411
-0.211243961914535,2991.4615608411
-0.23264057708076,2991.4715608411
-0.253204158146347,2991.4815608411
-0.272734527641727,2991.4915608411
-0.291918425609473,2991.5015608411
-0.310483312817857,2991.5115608411
-0.329387932380656,2991.5215608411
-0.348275953061929,2991.5315608411
-0.367251947827414,2991.5415608411
-0.385945720013957,2991.5515608411
-0.404146704993893,2991.5615608411
-0.421195502436185,2991.5715608411
-0.437405255188331,2991.5815608411
-0.453385131875314,2991.5915608411
-0.469486348278566,2991.6015608411
-0.485570273550102,2991.6115608411
-0.502228714274106,2991.6215608411
-0.519112658975073,2991.6315608411
-0.536035896474947,2991.6415608411
-0.553823050626849,2991.6515608411
-0.571229133535854,2991.6615608411
-0.588033067870989,2991.6715608411
-0.604711457302204,2991.6815608411
-0.62066389021376,2991.6915608411
-0.636014888185194,2991.7015608411
-0.651071263431547,2991.7115608411
-0.665770013907937,2991.7215608411
-0.680464401065176,2991.7315608411
-0.695513751203797,2991.7415608411
-0.710641364163953,2991.7515608411
-0.726497749897505,2991.7615608411
-0.742672127591065,2991.7715608411
-0.759571212536375,2991.7815608411
-0.777001166622342,2991.7915608411
-0.793743088846158,2991.8015608411
-0.809135074784228,2991.8115608411
-0.821111093227051,2991.8215608411
-0.825527718630425,2991.8315608411
-0.816578391787642,2991.8415608411
-0.788370304002292,2991.8515608411
-0.736222655518075,2991.8615608411
-0.658305781516724,2991.8715608411
-0.556900893947165,2991.8815608411
-0.437354824515958,2991.8915608411
-0.306658879156313,2991.9015608411
-0.172454462130517,2991.9115608411
-0.0421126922167317,2991.9215608411
0.0768796883511955,2991.9315608411
0.179993888970105,2991.9415608411
0.265192470170226,2991.9515608411
0.33164957078978,2991.9615608411
0.3812050585331,2991.9715608411
0.415042520995388,2991.9815608411
0.43626689473823,2991.9915608411
0.446804229727728,2992.0015608411
0.449272143758122,2992.0115608411
0.44588409390302,2992.0215608411
0.438344708614318,2992.0315608411
0.427928028929104,2992.0415608411
0.416142686738182,2992.0515608411
0.403430985251372,2992.0615608411
0.38936454841727,2992.0715608411
0.374195574780136,2992.0815608411
0.357718752498669,2992.0915608411
0.33925741959532,2992.1015608411
0.317292242574522,2992.1115608411
0.291405605625843,2992.1215608411
0.26173332524574,2992.1315608411
0.229103562401405,2992.1415608411
0.194997979977595,2992.1515608411
0.161191203568287,2992.1615608411
0.12867672830285,2992.1715608411
0.099787127968376,2992.1815608411
0.0755164835984763,2992.1915608411
0.0561718044929893,2992.2015608411
0.042151156891488,2992.2115608411
0.0324597312565304,2992.2215608411
0.0266196691050529,2992.2315608411
0.0235855718801435,2992.2415608411
0.0222026890219103,2992.2515608411
0.0221157840875745,2992.2615608411
0.0214158561034506,2992.2715608411
0.0194544322687268,2992.2815608411
0.015276729836502,2992.2915608411
0.00776179722633761,2992.3015608411
-0.00304581561706737,2992.3115608411
-0.0175338983348358,2992.3215608411
-0.0361742076572317,2992.3315608411
-0.0574050302302186,2992.3415608411
-0.0811801404441759,2992.3515608411
-0.10626470236809,2992.3615608411
-0.132309442285981,2992.3715608411
-0.159209167808167,2992.3815608411
-0.187050370376508,2992.3915608411
-0.216068329827078,2992.4015608411
-0.245278527426388,2992.4115608411
-0.275184462439074,2992.4215608411
-0.3050054650026,2992.4315608411
-0.335591181724688,2992.4415608411
-0.36641261838555,2992.4515608411
-0.397297994509288,2992.4615608411
-0.427723790731645,2992.4715608411
-0.457690293735919,2992.4815608411
-0.48701262852865,2992.4915608411
-0.515881566344621,2992.5015608411
-0.544470615509768,2992.5115608411
-0.572387970760417,2992.5215608411
-0.599519178760066,2992.5315608411
-0.625542352413355,2992.5415608411
-0.652020134981257,2992.5515608411
-0.678171699148834,2992.5615608411
-0.704057919586606,2992.5715608411
-0.729256651350793,2992.5815608411
-0.753594401731612,2992.5915608411
-0.77750126678875,2992.6015608411
-0.800962296564016,2992.6115608411
-0.8244536982179,2992.6215608411
-0.847505068785542,2992.6315608411
-0.870037162396662,2992.6415608411
-0.892513898117244,2992.6515608411
-0.914703892539822,2992.6615608411
-0.936478254041406,2992.6715608411
-0.957572222646603,2992.6815608411
-0.979106726383301,2992.6915608411
-0.99998377049766,2992.7015608411
-1.01960428992095,2992.7115608411
-1.0357107506368,2992.7215608411
-1.04400732312315,2992.7315608411
-1.04028859102427,2992.7415608411
-1.02050774675038,2992.7515608411
-0.982998367445035,2992.7615608411
-0.927710286703616,2992.7715608411
-0.857385214002549,2992.7815608411
-0.776537292355873,2992.7915608411
-0.690159775079036,2992.8015608411
-0.602860462296914,2992.8115608411
-0.518160700956083,2992.8215608411
-0.439370530575785,2992.8315608411
-0.368225442272277,2992.8415608411
-0.307031176031007,2992.8515608411
-0.256185542643048,2992.8615608411
-0.215226104322879,2992.8715608411
-0.183170710657178,2992.8815608411
-0.159352136286979,2992.8915608411
-0.141965729450069,2992.9015608411
-0.129484351218471,2992.9115608411
-0.121507905559329,2992.9215608411
-0.11618851092676,2992.9315608411
-0.113634431149747,2992.9415608411
-0.112478237145821,2992.9515608411
-0.112297372404371,2992.9615608411
-0.113237685230765,2992.9715608411
-0.114766635383282,2992.9815608411
-0.118316307307987,2992.9915608411
-0.123505549993606,2993.0015608411
-0.132333815789932,2993.0115608411
-0.144809906935617,2993.0215608411
-0.161576012603191,2993.0315608411
-0.183071104152203,2993.0415608411
-0.207728519519828,2993.0515608411
-0.234311873362063,2993.0615608411
-0.261605251006371,2993.0715608411
-0.288345160544517,2993.0815608411
-0.313001439995531,2993.0915608411
-0.335662289351648,2993.1015608411
-0.355607227732695,2993.1115608411
-0.373172620066454,2993.1215608411
-0.388188759324944,2993.1315608411
-0.401482564544594,2993.1415608411
-0.412538098239956,2993.1515608411
-0.422413420577395,2993.1615608411
-0.431368376152168,2993.1715608411
-0.44048190754804,2993.1815608411
-0.449979917132093,2993.1915608411
-0.461037505955663,2993.2015608411
-0.473972507282072,2993.2115608411
-0.487962266553867,2993.2215608411
-0.503948844434754,2993.2315608411
-0.521248565188214,2993.2415608411
-0.540253740613888,2993.2515608411
-0.561275723733593,2993.2615608411
-0.583244931363117,2993.2715608411
-0.606451936957449,2993.2815608411
-0.631129661012921,2993.2915608411
-0.656332045924885,2993.3015608411
-0.682231100798097,2993.3115608411
-0.708384256721847,2993.3215608411
-0.733924815356003,2993.3315608411
-0.759927340255311,2993.3415608411
-0.785373004520325,2993.3515608411
-0.811401313632415,2993.3615608411
-0.837678084464908,2993.3715608411
-0.864275520924755,2993.3815608411
-0.890848008239716,2993.3915608411
-0.916762685122013,2993.4015608411
-0.941779841589584,2993.4115608411
-0.966083184009793,2993.4215608411
-0.989505409237186,2993.4315608411
-1.01257477114722,2993.4415608411
-1.03578474903624,2993.4515608411
-1.05885131206668,2993.4615608411
-1.08142345892668,2993.4715608411
-1.10376424477703,2993.4815608411
-1.12584414130747,2993.4915608411
-1.14799243677027,2993.5015608411
-1.16987794470562,2993.5115608411
-1.19170615398429,2993.5215608411
-1.21320555452478,2993.5315608411
-1.23413298328716,2993.5415608411
-1.254386980342,2993.5515608411
-1.27404670539766,2993.5615608411
-1.29377762902918,2993.5715608411
-1.3128059475617,2993.5815608411
-1.33226788999046,2993.5915608411
-1.35125952658357,2993.6015608411
-1.36997199232429,2993.6115608411
-1.38793668789645,2993.6215608411
-1.40517806842371,2993.6315608411
-1.42161966712773,2993.6415608411
-1.43809597219712,2993.6515608411
-1.4550513031027,2993.6615608411
-1.47199569331293,2993.6715608411
-1.48947603635974,2993.6815608411
-1.50755790368251,2993.6915608411
-1.52537158261225,2993.7015608411
-1.54340162561306,2993.7115608411
-1.56088016741634,2993.7215608411
-1.57698836695519,2993.7315608411
-1.59040189265096,2993.7415608411
-1.59852459963023,2993.7515608411
-1.59758086171757,2993.7615608411
-1.58475673043659,2993.7715608411
-1.5579176346301,2993.7815608411
-1.5169564523505,2993.7915608411
-1.46461688339123,2993.8015608411
-1.40479911623696,2993.8115608411
-1.34139124233159,2993.8215608411
-1.27725567753134,2993.8315608411
-1.21670996128853,2993.8415608411
-1.16022884864545,2993.8515608411
-1.10941915401672,2993.8615608411
-1.06465576009489,2993.8715608411
-1.02634104828765,2993.8815608411
-0.994096008550627,2993.8915608411
-0.966455952820678,2993.9015608411
-0.943416507641057,2993.9115608411
-0.923765358627059,2993.9215608411
-0.907012953586339,2993.9315608411
-0.893081147576154,2993.9415608411
-0.881146929184279,2993.9515608411
-0.871499252729853,2993.9615608411
-0.862784595811154,2993.9715608411
-0.854712931098943,2993.9815608411
-0.847843424172022,2993.9915608411
-0.841442490272035,2994.0015608411
-0.836122277092096,2994.0115608411
-0.832337563709212,2994.0215608411
-0.830781385274972,2994.0315608411
-0.83098267256567,2994.0415608411
-0.834204469477512,2994.0515608411
-0.840787322154444,2994.0615608411
-0.85055565989809,2994.0715608411
-0.863400251087336,2994.0815608411
-0.877524511890651,2994.0915608411
-0.892078989889575,2994.1015608411
-0.906658244343279,2994.1115608411
-0.920022855846872,2994.1215608411
-0.932076596576937,2994.1315608411
-0.942923283895134,2994.1415608411
-0.952319848812758,2994.1515608411
-0.960698131636541,2994.1615608411
-0.967428639764531,2994.1715608411
-0.973801651703408,2994.1815608411
-0.979581358680863,2994.1915608411
-0.985196730471175,2994.2015608411
-0.990819650426761,2994.2115608411
-0.99731747187336,2994.2215608411
-1.00464440796449,2994.2315608411
-1.01297079291912,2994.2415608411
-1.02277773832394,2994.2515608411
-1.0337318226936,2994.2615608411
-1.04708903354641,2994.2715608411
-1.06121763123047,2994.2815608411
-1.07628527895094,2994.2915608411
-1.0916683935761,2994.3015608411
-1.10684036269372,2994.3115608411
-1.12272739855604,2994.3215608411
-1.13894107439261,2994.3315608411
-1.15570310031658,2994.3415608411
-1.17300308291371,2994.3515608411
-1.19068653660268,2994.3615608411
-1.20818332963841,2994.3715608411
-1.22567578585169,2994.3815608411
-1.24288661360386,2994.3915608411
-1.25963786271016,2994.4015608411
-1.27615133685604,2994.4115608411
-1.29338826387442,2994.4215608411
-1.31093452096613,2994.4315608411
-1.32851817226525,2994.4415608411
-1.34588297082033,2994.4515608411
-1.3626118209072,2994.4615608411
-1.37891543010215,2994.4715608411
-1.39503710981241,2994.4815608411
-1.4107113923471,2994.4915608411
-1.42652304611608,2994.5015608411
-1.44220330277615,2994.5115608411
-1.45745214428348,2994.5215608411
-1.47286877695276,2994.5315608411
-1.48787676376124,2994.5415608411
-1.5025008898424,2994.5515608411
-1.51742228881664,2994.5615608411
-1.53203812895425,2994.5715608411
-1.54616433028935,2994.5815608411
-1.56021688877504,2994.5915608411
-1.57355677961904,2994.6015608411
-1.58749458527374,2994.6115608411
-1.60139143560277,2994.6215608411
-1.61541567413997,2994.6315608411
-1.62948669756086,2994.6415608411
-1.64313273110719,2994.6515608411
-1.65641811057028,2994.6615608411
-1.6688173028076,2994.6715608411
-1.68145700523269,2994.6815608411
-1.69365057059968,2994.6915608411
-1.70464457671347,2994.7015608411
-1.71530138928284,2994.7115608411
-1.72490294244888,2994.7215608411
-1.73398636677445,2994.7315608411
-1.7420235188223,2994.7415608411
-1.7494339315567,2994.7515608411
-1.75658180354886,2994.7615608411
-1.76338847796284,2994.7715608411
-1.76954434954535,2994.7815608411
-1.77557148261353,2994.7915608411
-1.78160388025514,2994.8015608411
-1.78771218149497,2994.8115608411
-1.79285546013061,2994.8215608411
-1.79513265452655,2994.8315608411
-1.79272800569559,2994.8415608411
-1.78175898789816,2994.8515608411
-1.7606592408893,2994.8615608411
-1.7284460798679,2994.8715608411
-1.68721274323078,2994.8815608411
-1.63973087947327,2994.8915608411
-1.59020164530838,2994.9015608411
-1.54236016730817,2994.9115608411
-1.49815352929894,2994.9215608411
-1.45992007924571,2994.9315608411
-1.42818692239219,2994.9415608411
-1.402755238065,2994.9515608411
-1.38270050519168,2994.9615608411
-1.36700855837408,2994.9715608411
-1.35474949233617,2994.9815608411
-1.34510069034875,2994.9915608411
-1.33744906542983,2995.0015608411
-1.33050214496238,2995.0115608411
-1.32460675988566,2995.0215608411
-1.31938510588252,2995.0315608411
-1.31342539054734,2995.0415608411
-1.30771969327219,2995.0515608411
-1.30232711589769,2995.0615608411
-1.29768190698782,2995.0715608411
-1.29310441683247,2995.0815608411
-1.28866084812024,2995.0915608411
-1.28497745109185,2995.1015608411
-1.28270588720566,2995.1115608411
-1.28237174421122,2995.1215608411
-1.28449162536743,2995.1315608411
-1.28907958478166,2995.1415608411
-1.29447098570678,2995.1515608411
-1.30008242975493,2995.1615608411
-1.30487436639014,2995.1715608411
-1.30849435756409,2995.1815608411
-1.31072440501462,2995.1915608411
-1.31175370824186,2995.2015608411
-1.31180339217331,2995.2115608411
-1.31054983576963,2995.2215608411
-1.3082421944934,2995.2315608411
-1.30540917074161,2995.2415608411
-1.30174356491857,2995.2515608411
-1.29838949641449,2995.2615608411
-1.29549716757303,2995.2715608411
-1.29346145735692,2995.2815608411
-1.29294096935485,2995.2915608411
-1.29318584992145,2995.3015608411
-1.2947221392749,2995.3115608411
-1.29721706992107,2995.3215608411
-1.30067485763113,2995.3315608411
-1.30525599667323,2995.3415608411
-1.310449249936,2995.3515608411
-1.31676437816638,2995.3615608411
-1.32327648986093,2995.3715608411
-1.33046375740644,2995.3815608411
-1.33750613436013,2995.3915608411
-1.3447075865428,2995.4015608411
-1.35269454015129,2995.4115608411
-1.36004186113265,2995.4215608411
-1.36693778340876,2995.4315608411
-1.37351427183576,2995.4415608411
-1.37954274927965,2995.4515608411
-1.38549020579815,2995.4615608411
-1.39146431076587,2995.4715608411
-1.39793543637418,2995.4815608411
-1.40477923128417,2995.4915608411
-1.41165497276562,2995.5015608411
-1.41859170121267,2995.5115608411
-1.42479506284081,2995.5215608411
-1.43088741221231,2995.5315608411
-1.43671760589676,2995.5415608411
-1.44318350043739,2995.5515608411
-1.44969002158523,2995.5615608411
-1.45634557768605,2995.5715608411
-1.46265860554843,2995.5815608411
-1.46942228595852,2995.5915608411
-1.47555452045713,2995.6015608411
-1.48206937390616,2995.6115608411
-1.4887381101693,2995.6215608411
-1.49597514259398,2995.6315608411
-1.50303330581059,2995.6415608411
-1.50969089585691,2995.6515608411
-1.51597167861173,2995.6615608411
-1.52216479846483,2995.6715608411
-1.52815324980409,2995.6815608411
-1.53467434218764,2995.6915608411
-1.54135905514373,2995.7015608411
-1.54793431833824,2995.7115608411
-1.55385601560856,2995.7215608411
-1.55964732885884,2995.7315608411
-1.56514852259445,2995.7415608411
-1.57100785645897,2995.7515608411
-1.57719960193452,2995.7615608411
-1.5836494573129,2995.7715608411
-1.5903293858807,2995.7815608411
-1.5965024207562,2995.7915608411
-1.60338688276488,2995.8015608411
-1.6097657730595,2995.8115608411
-1.61620921067479,2995.8215608411
-1.62206497308731,2995.8315608411
-1.62739435262837,2995.8415608411
-1.63080699760018,2995.8515608411
-1.62988361230661,2995.8615608411
-1.62215316890319,2995.8715608411
-1.60577559858838,2995.8815608411
-1.57941398432593,2995.8915608411
-1.54504998289569,2995.9015608411
-1.50413405039744,2995.9115608411
-1.46075721965659,2995.9215608411
-1.41790027632739,2995.9315608411
-1.37808676391502,2995.9415608411
-1.3434780365528,2995.9515608411
-1.31378942298503,2995.9615608411
-1.28995273031185,2995.9715608411
-1.27101411243834,2995.9815608411
-1.25664287855826,2995.9915608411
-1.24513754384769,2996.0015608411
-1.23492939045426,2996.0115608411
-1.22580110106608,2996.0215608411
-1.21704328157248,2996.0315608411
-1.20854891188753,2996.0415608411
-1.2004739962073,2996.0515608411
-1.19231228853096,2996.0615608411
-1.18361298111472,2996.0715608411
-1.17493752966974,2996.0815608411
-1.16607733726088,2996.0915608411
-1.15765302085505,2996.1015608411
-1.14940543379191,2996.1115608411
-1.1415530768604,2996.1215608411
-1.13492294386972,2996.1315608411
-1.12971578190851,2996.1415608411
-1.12665579185251,2996.1515608411
-1.12525406917975,2996.1615608411
-1.1260073112993,2996.1715608411
-1.1284583895905,2996.1815608411
-1.13143880915436,2996.1915608411
-1.13484454541503,2996.2015608411
-1.13716373567161,2996.2115608411
-1.13833095881814,2996.2215608411
-1.13732652869884,2996.2315608411
-1.13512963520664,2996.2415608411
-1.13229985168119,2996.2515608411
-1.12878589095319,2996.2615608411
-1.1250981780381,2996.2715608411
-1.12124224114671,2996.2815608411
-1.11726878603838,2996.2915608411
-1.1140585601934,2996.3015608411
-1.11120247383849,2996.3115608411
-1.1086674890041,2996.3215608411
-1.10716629507589,2996.3315608411
-1.10701048023801,2996.3415608411
-1.10734419139455,2996.3515608411
-1.10865515022889,2996.3615608411
-1.11062157522328,2996.3715608411
-1.11280244143327,2996.3815608411
-1.11566212045172,2996.3915608411
-1.11887446160367,2996.4015608411
-1.12271032412423,2996.4115608411
-1.12735755817964,2996.4215608411
-1.13255968801473,2996.4315608411
-1.13807416141237,2996.4415608411
-1.14371728340641,2996.4515608411
-1.14925353462583,2996.4615608411
-1.15459919024699,2996.4715608411
-1.16009762100288,2996.4815608411
-1.16571566588512,2996.4915608411
-1.17236598476775,2996.5015608411
-1.17916156377907,2996.5115608411
-1.18566736721343,2996.5215608411
-1.19194912532991,2996.5315608411
-1.19738598992489,2996.5415608411
-1.20203777798037,2996.5515608411
-1.20650372066778,2996.5615608411
-1.21111556737205,2996.5715608411
-1.21630235132907,2996.5815608411
-1.22219958739627,2996.5915608411
-1.22878473147262,2996.6015608411
-1.23611667141972,2996.6115608411
-1.24313406909652,2996.6215608411
-1.25032888722331,2996.6315608411
-1.25745467378478,2996.6415608411
-1.26454424971002,2996.6515608411
-1.27151267417986,2996.6615608411
-1.27709022850185,2996.6715608411
-1.28204604846683,2996.6815608411
-1.2866189610886,2996.6915608411
-1.29141045353331,2996.7015608411
-1.29664194594297,2996.7115608411
-1.30168489525455,2996.7215608411
-1.30689724272728,2996.7315608411
-1.31239913140268,2996.7415608411
-1.31831512412307,2996.7515608411
-1.32520118487735,2996.7615608411
-1.33219020082722,2996.7715608411
-1.33940703818843,2996.7815608411
-1.34691211597194,2996.7915608411
-1.35371168939039,2996.8015608411
-1.35945362702751,2996.8115608411
-1.36473142704275,2996.8215608411
-1.36980047556603,2996.8315608411
-1.37519105965219,2996.8415608411
-1.3811066591235,2996.8515608411
-1.38761019374283,2996.8615608411
-1.39374313613365,2996.8715608411
-1.39852038595821,2996.8815608411
-1.40045710962548,2996.8915608411
-1.39746384150768,2996.9015608411
-1.38701444061899,2996.9115608411
-1.36792795701265,2996.9215608411
-1.34003813847216,2996.9315608411
-1.30505092121757,2996.9415608411
-1.26624229024059,2996.9515608411
-1.22698969399431,2996.9615608411
-1.18975901958457,2996.9715608411
-1.1560657574882,2996.9815608411
-1.12637191546421,2996.9915608411
-1.10088475843462,2997.0015608411
-1.07930643563905,2997.0115608411
-1.06132324538962,2997.0215608411
-1.04644404460406,2997.0315608411
-1.03396477008536,2997.0415608411
-1.02284766229917,2997.0515608411
-1.01250958235243,2997.0615608411
-1.00356584935975,2997.0715608411
-0.994468765318037,2997.0815608411
-0.985655953669659,2997.0915608411
-0.976896817739045,2997.1015608411
-0.968351613678618,2997.1115608411
-0.960133482527447,2997.1215608411
-0.952337229119009,2997.1315608411
-0.944477426695823,2997.1415608411
-0.935404967483886,2997.1515608411
-0.926826046123342,2997.1615608411
-0.919417179517218,2997.1715608411
-0.914040070045476,2997.1815608411
-0.911314654933059,2997.1915608411
-0.910703718388744,2997.2015608411
-0.911622568463456,2997.2115608411
-0.913304417917042,2997.2215608411
-0.914643057125363,2997.2315608411
-0.915833382857274,2997.2415608411
-0.915927651837955,2997.2515608411
-0.915116661472091,2997.2615608411
-0.91393861824244,2997.2715608411
-0.911643696851241,2997.2815608411
-0.909033834158315,2997.2915608411
-0.90563249364397,2997.3015608411
-0.901561136337609,2997.3115608411
-0.897275850888095,2997.3215608411
-0.893448783902341,2997.3315608411
-0.890567549715814,2997.3415608411
-0.888961625578751,2997.3515608411
-0.88883570237812,2997.3615608411
-0.889381461142379,2997.3715608411
-0.890182483588978,2997.3815608411
-0.890575303001306,2997.3915608411
-0.890750016672554,2997.4015608411
-0.891013090389594,2997.4115608411
-0.891194482352857,2997.4215608411
-0.891842930176606,2997.4315608411
-0.893912655540606,2997.4415608411
-0.897220057567265,2997.4515608411
-0.901972043610556,2997.4615608411
-0.907000722945507,2997.4715608411
-0.912010242877186,2997.4815608411
-0.916419161822453,2997.4915608411
-0.920752006844116,2997.5015608411
-0.92462045501929,2997.5115608411
-0.92849448365338,2997.5215608411
-0.933062631876971,2997.5315608411
-0.937899950032099,2997.5415608411
-0.943393201442356,2997.5515608411
-0.949160201888693,2997.5615608411
-0.954214908500933,2997.5715608411
-0.959236637325176,2997.5815608411
-0.964034165424831,2997.5915608411
-0.968780634996077,2997.6015608411
-0.974150602963763,2997.6115608411
-0.979292336602391,2997.6215608411
-0.9835287009627,2997.6315608411
-0.986698468193807,2997.6415608411
-0.98990245728642,2997.6515608411
-0.992979584041379,2997.6615608411
-0.996655490633729,2997.6715608411
-1.00074822316474,2997.6815608411
-1.00488741410131,2997.6915608411
-1.00902516420553,2997.7015608411
-1.01351409403315,2997.7115608411
-1.01860003342672,2997.7215608411
-1.02385867435014,2997.7315608411
-1.02940795496965,2997.7415608411
-1.0356380058439,2997.7515608411
-1.04166267777852,2997.7615608411
-1.04690016806809,2997.7715608411
-1.05107093219328,2997.7815608411
-1.05398829810226,2997.7915608411
-1.05587236089343,2997.8015608411
-1.05499276367127,2997.8115608411
-1.04904811846542,2997.8215608411
-1.03638845016695,2997.8315608411
-1.01535804620482,2997.8415608411
-0.986609460250294,2997.8515608411
-0.951673271898891,2997.8615608411
-0.913067662704385,2997.8715608411
-0.872734861199548,2997.8815608411
-0.833087089692863,2997.8915608411
-0.794684783648185,2997.9015608411
-0.758410072557166,2997.9115608411
-0.724541460698929,2997.9215608411
-0.692924899981248,2997.9315608411
-0.663536684674928,2997.9415608411
-0.636019399085899,2997.9515608411
-0.610264222337531,2997.9615608411
-0.586311829770618,2997.9715608411
-0.56356159635791,2997.9815608411
-0.542125431560921,2997.9915608411
-0.521910370256569,2998.0015608411
-0.501761632961952,2998.0115608411
-0.481988096236456,2998.0215608411
-0.463040174418333,2998.0315608411
-0.444424739585779,2998.0415608411
-0.426342533663045,2998.0515608411
-0.409351633761268,2998.0615608411
-0.393716974923032,2998.0715608411
-0.380081599570741,2998.0815608411
-0.36938946497798,2998.0915608411
-0.361230615699592,2998.1015608411
-0.35529888133914,2998.1115608411
-0.350917559537208,2998.1215608411
-0.347603785424041,2998.1315608411
-0.344766713290631,2998.1415608411
-0.341956295320399,2998.1515608411
-0.338507022599113,2998.1615608411
-0.334293849536767,2998.1715608411
-0.329610656381423,2998.1815608411
-0.32402895571467,2998.1915608411
-0.317546014562829,2998.2015608411
-0.310873629104374,2998.2115608411
-0.303438737638239,2998.2215608411
-0.296049074680348,2998.2315608411
-0.288937935073756,2998.2415608411
-0.282361971929824,2998.2515608411
-0.276799324211797,2998.2615608411
-0.272388625452726,2998.2715608411
-0.270101406406887,2998.2815608411
-0.269305399656919,2998.2915608411
-0.270530933369935,2998.3015608411
-0.273116822525056,2998.3115608411
-0.276693799024449,2998.3215608411
-0.281025835899923,2998.3315608411
-0.286144185492472,2998.3415608411
-0.291289254951511,2998.3515608411
-0.296285685131909,2998.3615608411
-0.301432273837165,2998.3715608411
-0.307202456741289,2998.3815608411
-0.312953243508136,2998.3915608411
-0.319438770254587,2998.4015608411
-0.326170900190945,2998.4115608411
-0.332975075499849,2998.4215608411
-0.339705124273505,2998.4315608411
-0.346179677672022,2998.4415608411
-0.3528966042866,2998.4515608411
-0.360034056572725,2998.4615608411
-0.367771058831327,2998.4715608411
-0.376092827364379,2998.4815608411
-0.384539562143268,2998.4915608411
-0.39231182752244,2998.5015608411
-0.399296413463638,2998.5115608411
-0.40614807854799,2998.5215608411
-0.412614113563591,2998.5315608411
-0.419323858917067,2998.5415608411
-0.425712291743169,2998.5515608411
-0.432038706736719,2998.5615608411
-0.437658049154427,2998.5715608411
-0.443811125242626,2998.5815608411
-0.449581015716651,2998.5915608411
-0.455135061398907,2998.6015608411
-0.461142355382409,2998.6115608411
-0.466882254857601,2998.6215608411
-0.472641054354655,2998.6315608411
-0.478377324689275,2998.6415608411
-0.484891100858508,2998.6515608411
-0.491257590261889,2998.6615608411
-0.497512736787027,2998.6715608411
-0.504302126084361,2998.6815608411
-0.510110388680701,2998.6915608411
-0.515017268038334,2998.7015608411
-0.517495887481216,2998.7115608411
-0.515705214860107,2998.7215608411
-0.50655451152185,2998.7315608411
-0.487887739615095,2998.7415608411
-0.458402874599161,2998.7515608411
-0.418540518528176,2998.7615608411
-0.369734432202562,2998.7715608411
-0.3146882083025,2998.7815608411
-0.255399571887465,2998.7915608411
-0.194115910485887,2998.8015608411
-0.132709408727967,2998.8115608411
-0.0730862718802367,2998.8215608411
-0.0167196647902627,2998.8315608411
0.0361614188755731,2998.8415608411
0.0851025006886038,2998.8515608411
0.12984351964024,2998.8615608411
0.17063549711668,2998.8715608411
0.207581392731323,2998.8815608411
0.241909378474255,2998.8915608411
0.274061884907545,2998.9015608411
0.304672548980405,2998.9115608411
0.33434450607378,2998.9215608411
0.36292398581904,2998.9315608411
0.391063906499663,2998.9415608411
0.418011701038062,2998.9515608411
0.444215045458699,2998.9615608411
0.469241040836855,2998.9715608411
0.491858505086346,2998.9815608411
0.511218982942074,2998.9915608411
0.526436847560308,2999.0015608411
0.536876891172772,2999.0115608411
0.542004129477576,2999.0215608411
0.542746100909109,2999.0315608411
0.539205931670816,2999.0415608411
0.533544779549619,2999.0515608411
0.526248647486602,2999.0615608411
0.518671741679712,2999.0715608411
0.510710962224542,2999.0815608411
0.503508953427745,2999.0915608411
0.497480382155217,2999.1015608411
0.492833867763911,2999.1115608411
0.488993913960645,2999.1215608411
0.486255096467126,2999.1315608411
0.484397321558272,2999.1415608411
0.483394021951932,2999.1515608411
0.482948025818801,2999.1615608411
0.482396704413991,2999.1715608411
0.481644582129986,2999.1815608411
0.480091002396003,2999.1915608411
0.477552533609991,2999.2015608411
0.473208558637811,2999.2115608411
0.466695239490782,2999.2215608411
0.458724985970695,2999.2315608411
0.449438361852513,2999.2415608411
0.43940525079971,2999.2515608411
0.42821599462212,2999.2615608411
0.416187090335797,2999.2715608411
0.404162588240162,2999.2815608411
0.391248094966194,2999.2915608411
0.377700897460849,2999.3015608411
0.363846687642514,2999.3115608411
0.348871320160482,2999.3215608411
0.334168424347115,2999.3315608411
0.31939386341625,2999.3415608411
0.304461333421288,2999.3515608411
0.289435177298115,2999.3615608411
0.273766658427734,2999.3715608411
0.258454365007171,2999.3815608411
0.24324321549107,2999.3915608411
0.228565754354138,2999.4015608411
0.213696023069755,2999.4115608411
0.198578370857537,2999.4215608411
0.183375430273751,2999.4315608411
0.167955991676106,2999.4415608411
0.152806433859924,2999.4515608411
0.13869150796688,2999.4615608411
0.124819007699897,2999.4715608411
0.111377709030935,2999.4815608411
0.0983661660237314,2999.4915608411
0.0845356491765146,2999.5015608411
0.0709943177843156,2999.5115608411
0.0570473757424059,2999.5215608411
0.0438113763103741,2999.5315608411
0.0304581099002052,2999.5415608411
0.0178453678476057,2999.5515608411
0.00520865534692344,2999.5615608411
-0.00789586606158683,2999.5715608411
-0.0206870593986375,2999.5815608411
-0.0339366023259513,2999.5915608411
-0.0468700118609381,2999.6015608411
-0.0595948411713308,2999.6115608411
-0.0709925310863263,2999.6215608411
-0.0809409596264185,2999.6315608411
-0.0873168834831483,2999.6415608411
-0.0872068413647048,2999.6515608411
-0.0775431923247182,2999.6615608411
-0.0560186080498482,2999.6715608411
-0.020998108143636,2999.6815608411
0.0267365830773984,2999.6915608411
0.0853640293386969,2999.7015608411
0.152517154974608,2999.7115608411
0.224843566300275,2999.7215608411
0.298471725122947,2999.7315608411
0.369932874443028,2999.7415608411
0.437475860579836,2999.7515608411
0.499771999641806,2999.7615608411
0.555842906462635,2999.7715608411
0.60677147024007,2999.7815608411
0.652012822099798,2999.7915608411
0.69161808517844,2999.8015608411
0.72614574558516,2999.8115608411
0.755951467393423,2999.8215608411
0.780797735089055,2999.8315608411
0.801544508316302,2999.8415608411
0.818836917473328,2999.8515608411
0.834037616194811,2999.8615608411
0.847035167495791,2999.8715608411
0.859375203103102,2999.8815608411
0.870113803836875,2999.8915608411
0.879770565631721,2999.9015608411
0.887544190281577,2999.9115608411
0.892255118744749,2999.9215608411
0.893076375175596,2999.9315608411
0.888564987176188,2999.9415608411
0.879566708920255,2999.9515608411
0.86717513588764,2999.9615608411
0.853002006269651,2999.9715608411
0.838061592674226,2999.9815608411
0.823536672420595,2999.9915608411
0.809695937624959,3000.0015608411
0.797731281431113,3000.0115608411
0.787407356719,3000.0215608411
0.778236930694154,3000.0315608411
0.770566068292694,3000.0415608411
0.763840481958775,3000.0515608411
0.757691042876494,3000.0615608411
0.752402083586207,3000.0715608411
0.747866860472509,3000.0815608411
0.743397374806586,3000.0915608411
0.738386190784154,3000.1015608411
0.732773106158395,3000.1115608411
0.725753804354911,3000.1215608411
0.717368150052274,3000.1315608411
0.707060948851504,3000.1415608411
0.695317742694722,3000.1515608411
0.68220891918537,3000.1615608411
0.667987542701626,3000.1715608411
0.652866449385552,3000.1815608411
0.637116048047544,3000.1915608411
0.620282058029707,3000.2015608411
0.602401802721615,3000.2115608411
0.58388463809267,3000.2215608411
0.564319556740855,3000.2315608411
0.544607073959875,3000.2415608411
0.523891320663652,3000.2515608411
0.503348273285261,3000.2615608411
0.48232594005916,3000.2715608411
0.461919645417722,3000.2815608411
0.4415851462153,3000.2915608411
0.421791277886924,3000.3015608411
0.402126040090534,3000.3115608411
0.38260496525055,3000.3215608411
0.362785110431704,3000.3315608411
0.342607069189459,3000.3415608411
0.322291332051883,3000.3515608411
0.302013650314418,3000.3615608411
0.282168835872912,3000.3715608411
0.262527331587612,3000.3815608411
0.243189446783032,3000.3915608411
0.224378940406814,3000.4015608411
0.206152845272913,3000.4115608411
0.188530572129959,3000.4215608411
0.170927780307238,3000.4315608411
0.153160837991322,3000.4415608411
0.135776626815279,3000.4515608411
0.118270720623536,3000.4615608411
0.100796593748033,3000.4715608411
0.0833840113536209,3000.4815608411
0.065938765505442,3000.4915608411
0.0483343118198409,3000.5015608411
0.031007467186381,3000.5115608411
0.0138392548307189,3000.5215608411
-0.00313475871257877,3000.5315608411
-0.0188469153310827,3000.5415608411
-0.0322103537534222,3000.5515608411
-0.0412327078456271,3000.5615608411
-0.0422451245650493,3000.5715608411
-0.0315658260169032,3000.5815608411
-0.00806269283053035,3000.5915608411
0.0300761046396328,3000.6015608411
0.0812262061521025,3000.6115608411
0.14334532803485,3000.6215608411
0.212199241596581,3000.6315608411
0.284347324719508,3000.6415608411
0.356321164253683,3000.6515608411
0.425351372792361,3000.6615608411
0.48954096169507,3000.6715608411
0.547644205212193,3000.6815608411
0.598546151500839,3000.6915608411
0.64165526528758,3000.7015608411
0.678113264314546,3000.7115608411
0.707390983280627,3000.7215608411
0.730576396286626,3000.7315608411
0.748989080893284,3000.7415608411
0.763199550554465,3000.7515608411
0.774916208750319,3000.7615608411
0.784386621367065,3000.7715608411
0.79266245916117,3000.7815608411
0.799844682206038,3000.7915608411
0.806365986823096,3000.8015608411
0.811476672521068,3000.8115608411
0.814659685327351,3000.8215608411
0.814620907456436,3000.8315608411
0.810678695339373,3000.8415608411
0.801994356633435,3000.8515608411
0.789025584851424,3000.8615608411
0.772529470656127,3000.8715608411
0.75336097779673,3000.8815608411
0.732436466505009,3000.8915608411
0.711059520599778,3000.9015608411
0.690184268845192,3000.9115608411
0.670133373860714,3000.9215608411
0.652365296591119,3000.9315608411
0.636999762033101,3000.9415608411
0.62419099821893,3000.9515608411
0.613668736280183,3000.9615608411
0.605053619500014,3000.9715608411
0.597418376595428,3000.9815608411
0.59032102245795,3000.9915608411
0.583275062401843,3001.0015608411
0.575589517130773,3001.0115608411
0.566981071109514,3001.0215608411
0.557888711324496,3001.0315608411
0.547352689193599,3001.0415608411
0.53573794790967,3001.0515608411
0.522846803453872,3001.0615608411
0.508476364426021,3001.0715608411
0.49246706326961,3001.0815608411
0.475274934300836,3001.0915608411
0.457136260112763,3001.1015608411
0.438256518025445,3001.1115608411
0.418489892859739,3001.1215608411
0.397856383703578,3001.1315608411
0.376652437016301,3001.1415608411
0.354844720358814,3001.1515608411
0.333089743781366,3001.1615608411
0.311478091041699,3001.1715608411
0.290324218008494,3001.1815608411
0.2688282014541,3001.1915608411
0.246763078083557,3001.2015608411
0.224622264324945,3001.2115608411
0.202524662349697,3001.2215608411
0.180781613657269,3001.2315608411
0.159828468220534,3001.2415608411
0.139358422846613,3001.2515608411
0.119821705439881,3001.2615608411
0.100282604575902,3001.2715608411
0.0810284293726216,3001.2815608411
0.0616031716044657,3001.2915608411
0.0421668655587467,3001.3015608411
0.022626448512761,3001.3115608411
0.00312291353750203,3001.3215608411
-0.0161964396798575,3001.3315608411
-0.0349910587927458,3001.3415608411
-0.0530365770241073,3001.3515608411
-0.0706812945532933,3001.3615608411
-0.0874368074927914,3001.3715608411
-0.101824759550173,3001.3815608411
-0.112313895571958,3001.3915608411
-0.115533150000101,3001.4015608411
-0.109131044042625,3001.4115608411
-0.0904486513479927,3001.4215608411
-0.0580412571430315,3001.4315608411
-0.0126701138883491,3001.4415608411
0.0444188499924627,3001.4515608411
0.108940545124579,3001.4615608411
0.178384638574424,3001.4715608411
0.248998532968881,3001.4815608411
0.317677386397911,3001.4915608411
0.382482620088325,3001.5015608411
0.440769568533308,3001.5115608411
0.492274558000637,3001.5215608411
0.536461699266139,3001.5315608411
0.572593121644205,3001.5415608411
0.601312607074672,3001.5515608411
0.62338979996483,3001.5615608411
0.63946677706562,3001.5715608411
0.650545564851268,3001.5815608411
0.658242263251212,3001.5915608411
0.66353137453457,3001.6015608411
0.667148639654358,3001.6115608411
0.669536346765206,3001.6215608411
0.670386852534675,3001.6315608411
0.669558253854606,3001.6415608411
0.665919163773761,3001.6515608411
0.658686965051221,3001.6615608411
0.647584379623351,3001.6715608411
0.632400382287086,3001.6815608411
0.61464440527384,3001.6915608411
0.595349767306064,3001.7015608411
0.575593724922374,3001.7115608411
0.556802963818288,3001.7215608411
0.540283929068685,3001.7315608411
0.526241132046555,3001.7415608411
0.514812953885618,3001.7515608411
0.505509498751726,3001.7615608411
0.498628764638501,3001.7715608411
0.493619864809005,3001.7815608411
0.490613079002198,3001.7915608411
0.48891803588082,3001.8015608411
0.487327200169713,3001.8115608411
0.485842044176213,3001.8215608411
0.482969817413638,3001.8315608411
0.478339191968364,3001.8415608411
0.471368607740484,3001.8515608411
0.462175415336191,3001.8615608411
0.451093437675597,3001.8715608411
0.43850963811006,3001.8815608411
0.424318161641263,3001.8915608411
0.409005037082441,3001.9015608411
0.39211626348494,3001.9115608411
0.37413444295336,3001.9215608411
0.355984950061503,3001.9315608411
0.337501247629004,3001.9415608411
0.318863073030205,3001.9515608411
0.300086803100171,3001.9615608411
0.280716892722001,3001.9715608411
0.260563374340664,3001.9815608411
0.240315537907621,3001.9915608411
0.220182316414588,3002.0015608411
0.201146402400538,3002.0115608411
0.182550592590996,3002.0215608411
0.165053218679407,3002.0315608411
0.147850541875474,3002.0415608411
0.131396529454544,3002.0515608411
0.114953227430996,3002.0615608411
0.0985709536629333,3002.0715608411
0.0816812529550724,3002.0815608411
0.065282634271155,3002.0915608411
0.0488992628266581,3002.1015608411
0.0332971511311323,3002.1115608411
0.0184790376048203,3002.1215608411
0.00452181972318023,3002.1315608411
-0.00839581078231433,3002.1415608411
-0.0185684639072613,3002.1515608411
-0.0230271223007494,3002.1615608411
-0.018749680084444,3002.1715608411
-0.00199366524880853,3002.1815608411
0.0296872832620153,3002.1915608411
0.0754700902564576,3002.2015608411
0.134248977925198,3002.2115608411
0.203650830324976,3002.2215608411
0.279389481224498,3002.2315608411
0.358718942934273,3002.2415608411
0.437903765186633,3002.2515608411
0.514264770763649,3002.2615608411
0.584219497921182,3002.2715608411
0.647143887652005,3002.2815608411
0.701030622379297,3002.2915608411
0.746702653156559,3002.3015608411
0.783964716954875,3002.3115608411
0.813927798614784,3002.3215608411
0.837654253382694,3002.3315608411
0.856628802606978,3002.3415608411
0.872452573213628,3002.3515608411
0.886809271670602,3002.3615608411
0.899258406669573,3002.3715608411
0.911124503419417,3002.3815608411
0.921435450117094,3002.3915608411
0.929992985432973,3002.4015608411
0.936130826236697,3002.4115608411
0.939347623887575,3002.4215608411
0.938488500035464,3002.4315608411
0.932420801420073,3002.4415608411
0.920557369205478,3002.4515608411
0.903541394357513,3002.4615608411
0.882345896257238,3002.4715608411
0.85901880626036,3002.4815608411
0.834994144417445,3002.4915608411
0.811323479834581,3002.5015608411
0.789255279227197,3002.5115608411
0.768887206731929,3002.5215608411
0.751431434542573,3002.5315608411
0.736922001912828,3002.5415608411
0.724788942431586,3002.5515608411
0.714695089247992,3002.5615608411
0.707399484235001,3002.5715608411
0.70090634518995,3002.5815608411
0.695790422357443,3002.5915608411
0.690298719019914,3002.6015608411
0.684952708150541,3002.6115608411
0.678676749330595,3002.6215608411
0.671759484442741,3002.6315608411
0.663697724184424,3002.6415608411
0.653700827696106,3002.6515608411
0.642540102694629,3002.6615608411
0.629680313468642,3002.6715608411
0.615676497937589,3002.6815608411
0.600121436892675,3002.6915608411
0.583515812261292,3002.7015608411
0.56529449853789,3002.7115608411
0.5460644215144,3002.7215608411
0.526742985553472,3002.7315608411
0.506721346954733,3002.7415608411
0.485918061071629,3002.7515608411
0.464673720476466,3002.7615608411
0.443347122673641,3002.7715608411
0.422312967470248,3002.7815608411
0.401135636090868,3002.7915608411
0.37958238035827,3002.8015608411
0.358615802904446,3002.8115608411
0.338331918754891,3002.8215608411
0.318624428479752,3002.8315608411
0.299337310905612,3002.8415608411
0.280823531930114,3002.8515608411
0.262231894570833,3002.8615608411
0.243283399569481,3002.8715608411
0.224631745939699,3002.8815608411
0.206468614833372,3002.8915608411
0.188687215035877,3002.9015608411
0.171989714457719,3002.9115608411
0.154801391527675,3002.9215608411
0.138027198594811,3002.9315608411
0.121472301130276,3002.9415608411
0.105053880647115,3002.9515608411
0.0888611155591806,3002.9615608411
0.0729411613637498,3002.9715608411
0.0576963157314139,3002.9815608411
0.0458225739995561,3002.9915608411
0.0406843255046861,3003.0015608411
0.0458247280589847,3003.0115608411
0.0650585228943315,3003.0215608411
0.100346806046667,3003.0315608411
0.151999511004613,3003.0415608411
0.218115774202242,3003.0515608411
0.295483632050132,3003.0615608411
0.379740632237773,3003.0715608411
0.466409290080126,3003.0815608411
0.551340762415321,3003.0915608411
0.63094839590242,3003.1015608411
0.703089415850604,3003.1115608411
0.766293274896785,3003.1215608411
0.819502567240415,3003.1315608411
0.862996803329364,3003.1415608411
0.897358201582167,3003.1515608411
0.924127051337205,3003.1615608411
0.945205823766447,3003.1715608411
0.961841812151909,3003.1815608411
0.976388828564698,3003.1915608411
0.989866366073792,3003.2015608411
1.00289189165281,3003.2115608411
1.0158762839197,3003.2215608411
1.02801984589227,3003.2315608411
1.03866999593391,3003.2415608411
1.04695620456531,3003.2515608411
1.0519426827279,3003.2615608411
1.05230367299143,3003.2715608411
1.04726927762071,3003.2815608411
1.03647605973648,3003.2915608411
1.02043551902678,3003.3015608411
0.99979963919927,3003.3115608411
0.976157654477308,3003.3215608411
0.950507259251782,3003.3315608411
0.924672729449949,3003.3415608411
0.900100247243268,3003.3515608411
0.877366147498655,3003.3615608411
0.857368556588812,3003.3715608411
0.839577667520251,3003.3815608411
0.824425159008249,3003.3915608411
0.811162445196747,3003.4015608411
0.799607299988717,3003.4115608411
0.788960747791617,3003.4215608411
0.77894134180242,3003.4315608411
0.769948840798918,3003.4415608411
0.760392954822326,3003.4515608411
0.750830295017635,3003.4615608411
0.739755831313883,3003.4715608411
0.727221620789067,3003.4815608411
0.713016906682061,3003.4915608411
0.69670288246949,3003.5015608411
0.678688074471059,3003.5115608411
0.659017171973683,3003.5215608411
0.637528558250227,3003.5315608411
0.614482231129493,3003.5415608411
0.591119606301129,3003.5515608411
0.566935255392438,3003.5615608411
0.542441145273209,3003.5715608411
0.517811626701393,3003.5815608411
0.492951900908569,3003.5915608411
0.467697080411973,3003.6015608411
0.441744875906957,3003.6115608411
0.415798184005396,3003.6215608411
0.390660167502368,3003.6315608411
0.365523422103459,3003.6415608411
0.341139541828889,3003.6515608411
0.316933472992281,3003.6615608411
0.292859418376725,3003.6715608411
0.269529793919097,3003.6815608411
0.247314661402889,3003.6915608411
0.225945851135172,3003.7015608411
0.206148256840077,3003.7115608411
0.187046407850538,3003.7215608411
0.168065656118763,3003.7315608411
0.149066251929915,3003.7415608411
0.13022129192073,3003.7515608411
0.112005312639198,3003.7615608411
0.094662724057663,3003.7715608411
0.0784996667702849,3003.7815608411
0.0630423737558569,3003.7915608411
0.0478546203213134,3003.8015608411
0.0332541965608725,3003.8115608411
0.0180649161046163,3003.8215608411
0.00274547812727593,3003.8315608411
-0.0129926397396908,3003.8415608411
-0.0295545346493515,3003.8515608411
-0.0464543928710448,3003.8615608411
-0.0624312152964023,3003.8715608411
-0.0773769185043045,3003.8815608411
-0.09207177024248,3003.8915608411
-0.106721543485506,3003.9015608411
-0.122005684242435,3003.9115608411
-0.137345396685295,3003.9215608411
-0.153164501736526,3003.9315608411
-0.169549086023646,3003.9415608411
-0.185703841369804,3003.9515608411
-0.201962980107478,3003.9615608411
-0.21683244932413,3003.9715608411
-0.227921649554997,3003.9815608411
-0.232176559302108,3003.9915608411
-0.225356848792375,3004.0015608411
-0.203914420619388,3004.0115608411
-0.16590590183035,3004.0215608411
-0.110880387079281,3004.0315608411
-0.0405763941407286,3004.0415608411
0.0401322870622002,3004.0515608411
0.12728915940112,3004.0615608411
0.216343369874202,3004.0715608411
0.303222049032259,3004.0815608411
0.385038049337822,3004.0915608411
0.458989699057074,3004.1015608411
0.523162482205728,3004.1115608411
0.577923585399029,3004.1215608411
0.622546964241312,3004.1315608411
0.657950464176014,3004.1415608411
0.685734166153919,3004.1515608411
0.70725850526769,3004.1615608411
0.724288769289546,3004.1715608411
0.738629197848845,3004.1815608411
0.750254377357922,3004.1915608411
0.760384493340022,3004.2015608411
0.769265626292202,3004.2115608411
0.776992108212292,3004.2215608411
0.783773828052902,3004.2315608411
0.788196876987542,3004.2415608411
0.789785472863073,3004.2515608411
0.787337766354663,3004.2615608411
0.780427444836603,3004.2715608411
0.769178238030143,3004.2815608411
0.753186074166085,3004.2915608411
0.733323883406956,3004.3015608411
0.710629578047165,3004.3115608411
0.686506689671547,3004.3215608411
0.662779113260565,3004.3315608411
0.640562892771835,3004.3415608411
0.620903104033465,3004.3515608411
0.603810468634127,3004.3615608411
0.590068453778709,3004.3715608411
0.579082912566885,3004.3815608411
0.57032925233364,3004.3915608411
0.563561231122395,3004.4015608411
0.557564426905662,3004.4115608411
0.55197633943947,3004.4215608411
0.545699589061631,3004.4315608411
0.538255976435898,3004.4415608411
0.529344442577331,3004.4515608411
0.51860433529092,3004.4615608411
0.506280619428334,3004.4715608411
0.49280960908975,3004.4815608411
0.478612838979934,3004.4915608411
0.463122790532404,3004.5015608411
0.446875087449415,3004.5115608411
0.429740689672,3004.5215608411
0.41150882315314,3004.5315608411
0.392585064800015,3004.5415608411
0.372789610225006,3004.5515608411
0.352584883511919,3004.5615608411
0.33206922088398,3004.5715608411
0.311500022255094,3004.5815608411
0.291129296008178,3004.5915608411
0.270807388822427,3004.6015608411
0.250630323853337,3004.6115608411
0.230373675058253,3004.6215608411
0.210400362965617,3004.6315608411
0.19082493916839,3004.6415608411
0.171558372206715,3004.6515608411
0.152682109639561,3004.6615608411
0.134739877534539,3004.6715608411
0.117901563119434,3004.6815608411
0.101046213584943,3004.6915608411
0.084662971442014,3004.7015608411
0.0691470057878109,3004.7115608411
0.0533135978102662,3004.7215608411
0.0374079859596889,3004.7315608411
0.0208121670713409,3004.7415608411
0.00461127544010229,3004.7515608411
-0.0112246988582871,3004.7615608411
-0.0269424396949377,3004.7715608411
-0.041718064642532,3004.7815608411
-0.0564963694885138,3004.7915608411
-0.071414610802957,3004.8015608411
-0.0861994036296954,3004.8115608411
-0.100035639490942,3004.8215608411
-0.111055936359475,3004.8315608411
-0.115677043560309,3004.8415608411
-0.110629024887904,3004.8515608411
-0.0922694583594086,3004.8615608411
-0.0587814091189478,3004.8715608411
-0.0103479646571031,3004.8815608411
0.0505413509368696,3004.8915608411
0.121391106299255,3004.9015608411
0.198628796234569,3004.9115608411
0.278355083552576,3004.9215608411
0.357203469515895,3004.9315608411
0.43167787194283,3004.9415608411
0.49880688837476,3004.9515608411
0.55756484163049,3004.9615608411
0.606245858549005,3004.9715608411
0.645488010609444,3004.9815608411
0.675865638638631,3004.9915608411
0.699151492277493,3005.0015608411
0.716806529479608,3005.0115608411
0.731031357834063,3005.0215608411
0.742853117795317,3005.0315608411
0.752990259844006,3005.0415608411
0.762352670620677,3005.0515608411
0.770327379196067,3005.0615608411
0.777203170967637,3005.0715608411
0.782218989917788,3005.0815608411
0.784770792582204,3005.0915608411
0.784105017387663,3005.1015608411
0.778411511197628,3005.1115608411
0.767964510145432,3005.1215608411
0.751932099774494,3005.1315608411
0.731681718555186,3005.1415608411
0.708646661467641,3005.1515608411
0.684511099437978,3005.1615608411
0.660354077874648,3005.1715608411
0.638353558818152,3005.1815608411
0.618982694443199,3005.1915608411
0.601885835029697,3005.2015608411
0.587293411311003,3005.2115608411
0.575051962071855,3005.2215608411
0.564871628611593,3005.2315608411
0.556295210872961,3005.2415608411
0.549076540783027,3005.2515608411
0.542649667020437,3005.2615608411
0.536585793924098,3005.2715608411
0.530462879630495,3005.2815608411
0.523322262265217,3005.2915608411
0.514873881687652,3005.3015608411
0.505225331821406,3005.3115608411
0.493670048757178,3005.3215608411
0.48100610431457,3005.3315608411
0.46632971549635,3005.3415608411
0.450823922269988,3005.3515608411
0.433941105324746,3005.3615608411
0.415706787878704,3005.3715608411
0.396440357211744,3005.3815608411
0.376331106969299,3005.3915608411
0.355062161153631,3005.4015608411
0.333442118636143,3005.4115608411
0.313379752602898,3005.4215608411
0.292581379906129,3005.4315608411
0.272114857946899,3005.4415608411
0.251331633110243,3005.4515608411
0.230405025200884,3005.4615608411
0.210403211438348,3005.4715608411
0.191116815097798,3005.4815608411
0.172468532135171,3005.4915608411
0.154057971756065,3005.5015608411
0.136445296295602,3005.5115608411
0.119079247343583,3005.5215608411
0.102146943714915,3005.5315608411
0.0860028129663803,3005.5415608411
0.0698584844617237,3005.5515608411
0.0547688068551442,3005.5615608411
0.0399698592993669,3005.5715608411
0.0259308385894717,3005.5815608411
0.0126749282486221,3005.5915608411
-0.000440983731201565,3005.6015608411
-0.0129523788891805,3005.6115608411
-0.025438920282674,3005.6215608411
-0.037728673686786,3005.6315608411
-0.0498309404978344,3005.6415608411
-0.0616401285796582,3005.6515608411
-0.0719280055391623,3005.6615608411
-0.0806031317486984,3005.6715608411
-0.0850202175979738,3005.6815608411
-0.0816333142635021,3005.6915608411
-0.0672460933660554,3005.7015608411
-0.0393062562674698,3005.7115608411
0.00374839213012324,3005.7215608411
0.0617885228508046,3005.7315608411
0.133277984206052,3005.7415608411
0.214399275399298,3005.7515608411
0.30135093492906,3005.7615608411
0.388434475918745,3005.7715608411
0.470343505190267,3005.7815608411
0.543992204631651,3005.7915608411
0.607939708350544,3005.8015608411
0.661009177545069,3005.8115608411
0.70294960248421,3005.8215608411
0.734798731076961,3005.8315608411
0.758513847846679,3005.8415608411
0.776548143719522,3005.8515608411
0.789834315279646,3005.8615608411
0.800252576636151,3005.8715608411
0.80838668631967,3005.8815608411
0.815482012542881,3005.8915608411
0.822678870344053,3005.9015608411
0.830285839194258,3005.9115608411
0.837989096241332,3005.9215608411
0.845182931645024,3005.9315608411
0.849778616184146,3005.9415608411
0.850776301720205,3005.9515608411
0.846761044074773,3005.9615608411
0.836394113547324,3005.9715608411
0.819792847516908,3005.9815608411
0.798471687007793,3005.9915608411
0.773189581836835,3006.0015608411
0.745911452629421,3006.0115608411
0.718677990274373,3006.0215608411
0.692456452489547,3006.0315608411
0.669414229252581,3006.0415608411
0.650464892102366,3006.0515608411
0.635763024621794,3006.0615608411
0.62422201635781,3006.0715608411
0.615446698726689,3006.0815608411
0.607724996121667,3006.0915608411
0.60173363649169,3006.1015608411
0.596580238124511,3006.1115608411
0.591148802638273,3006.1215608411
0.585626863273286,3006.1315608411
0.578715303067174,3006.1415608411
0.570769525307039,3006.1515608411
0.56077726171882,3006.1615608411
0.549957460384975,3006.1715608411
0.537105586102664,3006.1815608411
0.523053076931692,3006.1915608411
0.50762438092455,3006.2015608411
0.490915778191803,3006.2115608411
0.472510107973405,3006.2215608411
0.45342947965676,3006.2315608411
0.432934981485668,3006.2415608411
0.411790713132146,3006.2515608411
0.389981625952066,3006.2615608411
0.367714542562612,3006.2715608411
0.345434016205411,3006.2815608411
0.323470846713548,3006.2915608411
0.30253651487402,3006.3015608411
0.28234868354174,3006.3115608411
0.263210304982265,3006.3215608411
0.244118043140802,3006.3315608411
0.225215394003264,3006.3415608411
0.206209612157511,3006.3515608411
0.187297472236005,3006.3615608411
0.167797882929604,3006.3715608411
0.148711820604385,3006.3815608411
0.130850836153194,3006.3915608411
0.114197986517966,3006.4015608411
0.0987536574239279,3006.4115608411
0.0834994732543771,3006.4215608411
0.0677824512415415,3006.4315608411
0.0513885081524488,3006.4415608411
0.0343685219017174,3006.4515608411
0.017268389133027,3006.4615608411
0.000460656706823165,3006.4715608411
-0.0157480979384622,3006.4815608411
-0.031474538746554,3006.4915608411
-0.047372019395232,3006.5015608411
-0.0640342010409217,3006.5115608411
-0.0813433065166408,3006.5215608411
-0.0984377259330467,3006.5315608411
-0.115077483090229,3006.5415608411
-0.131058883868704,3006.5515608411
-0.146354481804792,3006.5615608411
-0.159595232872753,3006.5715608411
-0.168747753077343,3006.5815608411
-0.170652436615735,3006.5915608411
-0.160957372435864,3006.6015608411
-0.135834492469942,3006.6115608411
-0.0941865962137633,3006.6215608411
-0.0358244216081376,3006.6315608411
0.0365845656343884,3006.6415608411
0.118495302465494,3006.6515608411
0.205713640392377,3006.6615608411
0.292976415248365,3006.6715608411
0.376579885640317,3006.6815608411
0.452799365517493,3006.6915608411
0.519720390972429,3006.7015608411
0.576141748633318,3006.7115608411
0.622154915250361,3006.7215608411
0.658502538129476,3006.7315608411
0.686273729104272,3006.7415608411
0.707465633485218,3006.7515608411
0.722309883510464,3006.7615608411
0.732615163565884,3006.7715608411
0.739124978670746,3006.7815608411
0.743675457766642,3006.7915608411
0.746880636087836,3006.8015608411
0.749163063373064,3006.8115608411
0.750708108831315,3006.8215608411
0.750998285715891,3006.8315608411
0.748853367204468,3006.8415608411
0.742623337386601,3006.8515608411
0.730839335877357,3006.8615608411
0.713971369485715,3006.8715608411
0.692915321324038,3006.8815608411
0.669358467382089,3006.8915608411
0.644714312449295,3006.9015608411
0.619244198120563,3006.9115608411
0.594475128730528,3006.9215608411
0.571493840648616,3006.9315608411
0.551178620693288,3006.9415608411
0.532623926270687,3006.9515608411
0.517663857740707,3006.9615608411
0.505882248251325,3006.9715608411
0.497436614424874,3006.9815608411
0.491016806577788,3006.9915608411
0.485150568629466,3007.0015608411
0.480339463694475,3007.0115608411
0.475632378266242,3007.0215608411
0.470027499711775,3007.0315608411
0.46294378961369,3007.0415608411
0.454891306995475,3007.0515608411
0.444772973505706,3007.0615608411
0.433211757468968,3007.0715608411
0.41989641630429,3007.0815608411
0.403755834909439,3007.0915608411
0.386111902479348,3007.1015608411
0.366605231841998,3007.1115608411
0.346452124610633,3007.1215608411
0.325218240867572,3007.1315608411
0.303482413193864,3007.1415608411
0.280282641710121,3007.1515608411
0.256319298590792,3007.1615608411
0.233110972982372,3007.1715608411
0.209928371259343,3007.1815608411
0.187629631107694,3007.1915608411
0.165654018070203,3007.2015608411
0.143522388016212,3007.2115608411
0.122137113316404,3007.2215608411
0.100527856289903,3007.2315608411
0.0795925230490259,3007.2415608411
0.0587591365110819,3007.2515608411
0.0384017596256737,3007.2615608411
0.0184984696873395,3007.2715608411
-0.00054994000660931,3007.2815608411
-0.0193325601260946,3007.2915608411
-0.0384593864975337,3007.3015608411
-0.0572763670539352,3007.3115608411
-0.0758428804852986,3007.3215608411
-0.0935787034312398,3007.3315608411
-0.110168327865099,3007.3415608411
-0.126153507504892,3007.3515608411
-0.141928971307304,3007.3615608411
-0.157284896827267,3007.3715608411
-0.172785561094699,3007.3815608411
-0.188436606533165,3007.3915608411
-0.204411968981761,3007.4015608411
-0.220404084921561,3007.4115608411
-0.235770522075379,3007.4215608411
-0.250863547364418,3007.4315608411
-0.265352507166454,3007.4415608411
-0.277319934069191,3007.4515608411
-0.284683634808702,3007.4615608411
-0.283415361753781,3007.4715608411
-0.269157249390284,3007.4815608411
-0.239280828957416,3007.4915608411
-0.192675550280788,3007.5015608411
-0.130099623942516,3007.5115608411
-0.0540834260195376,3007.5215608411
0.0316070691047591,3007.5315608411
0.121890268771547,3007.5415608411
0.213027777932653,3007.5515608411
0.30063275704182,3007.5615608411
0.380931045040317,3007.5715608411
0.45239411535714,3007.5815608411
0.513160182329896,3007.5915608411
0.562805528119552,3007.6015608411
0.601696158198961,3007.6115608411
0.631111182656213,3007.6215608411
0.652205007458845,3007.6315608411
0.66658126914584,3007.6415608411
0.675500264890028,3007.6515608411
0.679899376592284,3007.6615608411
0.681350675328532,3007.6715608411
0.681398747633397,3007.6815608411
0.679781180470629,3007.6915608411
0.676759025050052,3007.7015608411
0.671112116766214,3007.7115608411
0.661402013210269,3007.7215608411
0.647014381901415,3007.7315608411
0.627391103683601,3007.7415608411
0.603553707801301,3007.7515608411
0.577695341855778,3007.7615608411
0.551871102358177,3007.7715608411
0.527162280821224,3007.7815608411
0.50493619488008,3007.7915608411
0.485408564825918,3007.8015608411
0.469820566285024,3007.8115608411
0.458905760188244,3007.8215608411
0.452299751803013,3007.8315608411
0.449208048286798,3007.8415608411
0.449206097115462,3007.8515608411
0.450907232745747,3007.8615608411
0.452757445055453,3007.8715608411
0.454391925340085,3007.8815608411
0.45425949865231,3007.8915608411
0.451754253292061,3007.9015608411
0.447350826439334,3007.9115608411
0.440218659947306,3007.9215608411
0.430806306900162,3007.9315608411
0.419502852947143,3007.9415608411
0.40605632519976,3007.9515608411
0.391648102091838,3007.9615608411
0.374898035606384,3007.9715608411
0.357032447459912,3007.9815608411
0.337690129497334,3007.9915608411
0.317275818136451,3008.0015608411
0.296016480986374,3008.0115608411
0.274502793193727,3008.0215608411
0.253145584420236,3008.0315608411
0.231805485363591,3008.0415608411
0.210917978856637,3008.0515608411
0.189695393563578,3008.0615608411
0.168603686941916,3008.0715608411
0.147294902849775,3008.0815608411
0.126414838584196,3008.0915608411
0.105946220569343,3008.1015608411
0.0859720075175754,3008.1115608411
0.0671349085195327,3008.1215608411
0.0486925604167874,3008.1315608411
0.0311694845226032,3008.1415608411
0.0144795929689466,3008.1515608411
-0.000642397583962495,3008.1615608411
-0.0155315896828247,3008.1715608411
-0.0304403861882585,3008.1815608411
-0.0459725151541309,3008.1915608411
-0.0624065887231521,3008.2015608411
-0.0789809132665321,3008.2115608411
-0.0958901274960723,3008.2215608411
-0.112470816533711,3008.2315608411
-0.128988731357923,3008.2415608411
-0.145442444735578,3008.2515608411
-0.16158386566595,3008.2615608411
-0.177821350945764,3008.2715608411
-0.192921056680299,3008.2815608411
-0.205646538603889,3008.2915608411
-0.212564937150845,3008.3015608411
-0.21035494821827,3008.3115608411
-0.195274106311613,3008.3215608411
-0.163173426594017,3008.3315608411
-0.112198893292771,3008.3415608411
-0.0420411165734048,3008.3515608411
0.0437378532949532,3008.3615608411
0.141837866198589,3008.3715608411
0.24643996486426,3008.3815608411
0.352124454673044,3008.3915608411
0.453866985417362,3008.4015608411
0.547176943896504,3008.4115608411
0.629523179995654,3008.4215608411
0.699403605811072,3008.4315608411
0.757304464256094,3008.4415608411
0.80447130139842,3008.4515608411
0.841298610299744,3008.4615608411
0.869588089768642,3008.4715608411
0.890664170757531,3008.4815608411
0.906570270244372,3008.4915608411
0.918853678137714,3008.5015608411
0.928162442138062,3008.5115608411
0.936129436463588,3008.5215608411
0.942372536150054,3008.5315608411
0.947585709019128,3008.5415608411
0.951354506433239,3008.5515608411
0.953552326072682,3008.5615608411
0.952358899210925,3008.5715608411
0.946574265826857,3008.5815608411
0.935415209354212,3008.5915608411
0.91767496746775,3008.6015608411
0.894601392339464,3008.6115608411
0.868052988899267,3008.6215608411
0.840300454514671,3008.6315608411
0.814142147098474,3008.6415608411
0.790881023048055,3008.6515608411
0.771517042729596,3008.6615608411
0.756555028354287,3008.6715608411
0.746706363312876,3008.6815608411
0.741595282918895,3008.6915608411
0.73986090809158,3008.7015608411
0.741531223496997,3008.7115608411
0.744723049996197,3008.7215608411
0.748375325037795,3008.7315608411
0.750974450847247,3008.7415608411
0.751944064518712,3008.7515608411
0.749742368273187,3008.7615608411
0.744289545349424,3008.7715608411
0.735093544302291,3008.7815608411
0.722532276745243,3008.7915608411
0.707194697905215,3008.8015608411
0.687954412921426,3008.8115608411
0.666472542399792,3008.8215608411
0.642806732734144,3008.8315608411
0.617669303647196,3008.8415608411
0.591457361097855,3008.8515608411
0.564919157581069,3008.8615608411
0.537410322912329,3008.8715608411
0.510184103803107,3008.8815608411
0.482738442007888,3008.8915608411
0.455047533209261,3008.9015608411
0.427680235071696,3008.9115608411
0.401494578309026,3008.9215608411
0.375995163710875,3008.9315608411
0.352279100558551,3008.9415608411
0.330040190105718,3008.9515608411
0.308775844403191,3008.9615608411
0.288772924541983,3008.9715608411
0.269686565231422,3008.9815608411
0.251684605664527,3008.9915608411
0.23425477883719,3009.0015608411
0.217646094370354,3009.0115608411
0.20112644603929,3009.0215608411
0.185519638254037,3009.0315608411
0.170132846151358,3009.0415608411
0.154980153214057,3009.0515608411
0.139908410656773,3009.0615608411
0.125109540846741,3009.0715608411
0.110772536829455,3009.0815608411
0.0963946022132945,3009.0915608411
0.0820873853017489,3009.1015608411
0.0674220799480962,3009.1115608411
0.0534762163668286,3009.1215608411
0.0402111175976222,3009.1315608411
0.0271439529424425,3009.1415608411
0.0136089005437483,3009.1515608411
-0.000443644367606619,3009.1615608411
-0.0151911379518208,3009.1715608411
-0.030128565384093,3009.1815608411
-0.0453316599008327,3009.1915608411
-0.0604794459082444,3009.2015608411
-0.0756547533084235,3009.2115608411
-0.0899505111890903,3009.2215608411
-0.101511272637147,3009.2315608411
-0.107363165397339,3009.2415608411
-0.102533870670975,3009.2515608411
-0.0819060666398426,3009.2615608411
-0.0413797061755623,3009.2715608411
0.0212142388895046,3009.2815608411
0.103827532427204,3009.2915608411
0.203504356109907,3009.3015608411
0.314155639887909,3009.3115608411
0.428755371610844,3009.3215608411
0.54136149055855,3009.3315608411
0.646417802335485,3009.3415608411
0.739095526823838,3009.3515608411
0.817894406132608,3009.3615608411
0.881917972735086,3009.3715608411
0.931088751094269,3009.3815608411
0.967150624572724,3009.3915608411
0.991989622093993,3009.4015608411
1.00881968122372,3009.4115608411
1.0199180101294,3009.4215608411
1.02794287085075,3009.4315608411
1.03380033674859,3009.4415608411
1.03823428920297,3009.4515608411
1.04211728298938,3009.4615608411
1.04583807217326,3009.4715608411
1.04847409287988,3009.4815608411
1.05010999704581,3009.4915608411
1.04972609243682,3009.5015608411
1.04526772686247,3009.5115608411
1.03577538940974,3009.5215608411
1.02023984381635,3009.5315608411
0.998273228086497,3009.5415608411
0.971176229996361,3009.5515608411
0.940149058014656,3009.5615608411
0.908080295226934,3009.5715608411
0.877114825883956,3009.5815608411
0.849233735549942,3009.5915608411
0.82556281616802,3009.6015608411
0.806262283026754,3009.6115608411
0.791080099756719,3009.6215608411
0.780330791837874,3009.6315608411
0.773105559097022,3009.6415608411
0.768677410349427,3009.6515608411
0.765410541848897,3009.6615608411
0.762315237377044,3009.6715608411
0.758383407791255,3009.6815608411
0.753911160723317,3009.6915608411
0.747190132627232,3009.7015608411
0.738357968707593,3009.7115608411
0.727520024741899,3009.7215608411
0.714001616800871,3009.7315608411
0.698783982467961,3009.7415608411
0.681078424393719,3009.7515608411
0.661694841200196,3009.7615608411
0.64041676919601,3009.7715608411
0.617884797651645,3009.7815608411
0.594683140420799,3009.7915608411
0.57055063172815,3009.8015608411
0.546873581387109,3009.8115608411
0.522732460416844,3009.8215608411
0.49858173205232,3009.8315608411
0.473753744458649,3009.8415608411
0.448614473575984,3009.8515608411
0.423505380665571,3009.8615608411
0.399419410081278,3009.8715608411
0.375024356214765,3009.8815608411
0.351575893458503,3009.8915608411
0.32873363437229,3009.9015608411
0.306662071977603,3009.9115608411
0.285484977868934,3009.9215608411
0.265164293083396,3009.9315608411
0.244926572938865,3009.9415608411
0.225773237264726,3009.9515608411
0.207320522085717,3009.9615608411
0.189590446960595,3009.9715608411
0.172018782835168,3009.9815608411
0.154763038725282,3009.9915608411
0.13787777695012,3010.0015608411
0.121019603314069,3010.0115608411
0.104814575864908,3010.0215608411
0.0883731018120361,3010.0315608411
0.0719966180868304,3010.0415608411
0.0556143926618944,3010.0515608411
0.0393823378664067,3010.0615608411
0.0231780602408137,3010.0715608411
0.00761120820851189,3010.0815608411
-0.00775830644774883,3010.0915608411
-0.0228421500141607,3010.1015608411
-0.0380297871145257,3010.1115608411
-0.0526460593149707,3010.1215608411
-0.0673369631029941,3010.1315608411
-0.0819367372248473,3010.1415608411
-0.0960280254515203,3010.1515608411
-0.110264603727894,3010.1615608411
-0.124723972099035,3010.1715608411
-0.139447068238375,3010.1815608411
-0.153865250538441,3010.1915608411
-0.168208478880504,3010.2015608411
-0.182569113159955,3010.2115608411
-0.196967160967273,3010.2215608411
-0.211057211320644,3010.2315608411
-0.22511395390912,3010.2415608411
-0.238686775483819,3010.2515608411
-0.248156712035052,3010.2615608411
-0.250617657456011,3010.2715608411
-0.239658373944865,3010.2815608411
-0.210708189933518,3010.2915608411
-0.160159231452484,3010.3015608411
-0.0868429366893715,3010.3115608411
0.00649382593664335,3010.3215608411
0.115745317016926,3010.3315608411
0.234978258905126,3010.3415608411
0.356810673894893,3010.3515608411
0.474254401818251,3010.3615608411
0.581256043610553,3010.3715608411
0.674361538433128,3010.3815608411
0.751811533280312,3010.3915608411
0.813092656685696,3010.4015608411
0.858203424673079,3010.4115608411
0.889833114713712,3010.4215608411
0.909289530619311,3010.4315608411
0.920342887573714,3010.4415608411
0.926281106531582,3010.4515608411
0.928185588024823,3010.4615608411
0.927695993351954,3010.4715608411
0.925791725919362,3010.4815608411
0.923155679766789,3010.4915608411
0.919266741732761,3010.5015608411
0.914978435945334,3010.5115608411
0.909849470027017,3010.5215608411
0.902879884379046,3010.5315608411
0.892561509935284,3010.5415608411
0.877401616576765,3010.5515608411
0.857318437429997,3010.5615608411
0.831659469302554,3010.5715608411
0.80221567778724,3010.5815608411
0.770045303690976,3010.5915608411
0.738349967876617,3010.6015608411
0.7083781932369,3010.6115608411
0.682138436704955,3010.6215608411
0.660954641271551,3010.6315608411
0.644291260520827,3010.6415608411
0.6322114874058,3010.6515608411
0.623442838864164,3010.6615608411
0.618312445153914,3010.6715608411
0.615836149121214,3010.6815608411
0.614143070007499,3010.6915608411
0.613150204654302,3010.7015608411
0.610853646601414,3010.7115608411
0.606195962009458,3010.7215608411
0.598652661774651,3010.7315608411
0.588181527048701,3010.7415608411
0.57489518061074,3010.7515608411
0.559480467841466,3010.7615608411
0.542076156380336,3010.7715608411
0.522865829388435,3010.7815608411
0.50110453060167,3010.7915608411
0.478216690612009,3010.8015608411
0.454414187098101,3010.8115608411
0.429409995894607,3010.8215608411
0.404535875117422,3010.8315608411
0.379754200638665,3010.8415608411
0.355152302672034,3010.8515608411
0.330715941458406,3010.8615608411
0.305842797134697,3010.8715608411
0.280694218480122,3010.8815608411
0.255159805759567,3010.8915608411
0.229820854273959,3010.9015608411
0.204760545579282,3010.9115608411
0.180562898881483,3010.9215608411
0.157118646951544,3010.9315608411
0.134496846303717,3010.9415608411
0.111802581965775,3010.9515608411
0.0896157149600038,3010.9615608411
0.0679650602894144,3010.9715608411
0.0470256594734301,3010.9815608411
0.0277932726086494,3010.9915608411
0.00894218075069689,3011.0015608411
-0.00941940809740425,3011.0115608411
-0.027611507082603,3011.0215608411
-0.0450843639921272,3011.0315608411
-0.0623464284804461,3011.0415608411
-0.0796556777215259,3011.0515608411
-0.0971170807216875,3011.0615608411
-0.114312053990091,3011.0715608411
-0.1315386120962,3011.0815608411
-0.148194674950725,3011.0915608411
-0.164256638010265,3011.1015608411
-0.179406348130173,3011.1115608411
-0.193572426734943,3011.1215608411
-0.207593502595132,3011.1315608411
-0.221792992933168,3011.1415608411
-0.236421726262135,3011.1515608411
-0.250995093442004,3011.1615608411
-0.265521335605924,3011.1715608411
-0.279362083146814,3011.1815608411
-0.292656595933751,3011.1915608411
-0.305796749753401,3011.2015608411
-0.31839661959254,3011.2115608411
-0.331116660116096,3011.2215608411
-0.344503608221441,3011.2315608411
-0.358242226669865,3011.2415608411
-0.372284349326418,3011.2515608411
-0.385898241401759,3011.2615608411
-0.396921970569089,3011.2715608411
-0.401944537238807,3011.2815608411
-0.395974503284722,3011.2915608411
-0.373606527128808,3011.3015608411
-0.330538066775151,3011.3115608411
-0.26477786358481,3011.3215608411
-0.176995992303957,3011.3315608411
-0.0714940831031136,3011.3415608411
0.0457063378307214,3011.3515608411
0.167456112066771,3011.3615608411
0.288663392879636,3011.3715608411
0.40263400762069,3011.3815608411
0.504773665101126,3011.3915608411
0.59231783310687,3011.4015608411
0.664040428219458,3011.4115608411
0.720184528803625,3011.4215608411
0.76236482723008,3011.4315608411
0.792351099795735,3011.4415608411
0.812132822223097,3011.4515608411
0.824087065500129,3011.4615608411
0.830507489539464,3011.4715608411
0.832033111788132,3011.4815608411
0.829952855626202,3011.4915608411
0.824425194138082,3011.5015608411
0.816566510171392,3011.5115608411
0.806827226943391,3011.5215608411
0.794590014906985,3011.5315608411
0.779300385757722,3011.5415608411
0.759663288600828,3011.5515608411
0.735211452397225,3011.5615608411
0.706434283224736,3011.5715608411
0.674635303218735,3011.5815608411
0.641661139012208,3011.5915608411
0.60929307322372,3011.6015608411
0.579352895425324,3011.6115608411
0.553459630351428,3011.6215608411
0.53283244425788,3011.6315608411
0.518106095393542,3011.6415608411
0.508523678055236,3011.6515608411
0.503843547435957,3011.6615608411
0.503512999446756,3011.6715608411
0.506386445515162,3011.6815608411
0.511577703634106,3011.6915608411
0.517031596243144,3011.7015608411
0.522169396978689,3011.7115608411
0.525105402839238,3011.7215608411
0.525579565994351,3011.7315608411
0.523196530921628,3011.7415608411
0.516703869831352,3011.7515608411
0.506265139096686,3011.7615608411
0.492515518874135,3011.7715608411
0.475979519964044,3011.7815608411
0.456745575829942,3011.7915608411
0.435844294552902,3011.8015608411
0.413849246148514,3011.8115608411
0.391015800665327,3011.8215608411
0.367955073792992,3011.8315608411
0.34506477590774,3011.8415608411
0.322527586742195,3011.8515608411
0.300283724701495,3011.8615608411
0.278946028537236,3011.8715608411
0.257937280600519,3011.8815608411
0.23673862226324,3011.8915608411
0.216030009534752,3011.9015608411
0.195725480998851,3011.9115608411
0.176279577930579,3011.9215608411
0.156962600808308,3011.9315608411
0.137770378262073,3011.9415608411
0.118534507701837,3011.9515608411
0.099814849380403,3011.9615608411
0.0813794985223843,3011.9715608411
0.0636534508215059,3011.9815608411
0.0454376007309171,3011.9915608411
0.0278426386301609,3012.0015608411
0.0100544288058543,3012.0115608411
-0.00723522871714778,3012.0215608411
-0.0241111611746223,3012.0315608411
-0.0410208857162215,3012.0415608411
-0.057177036276001,3012.0515608411
-0.07305037407907,3012.0615608411
-0.0885844739463127,3012.0715608411
-0.103938765171063,3012.0815608411
-0.119054367982085,3012.0915608411
-0.134283014072569,3012.1015608411
-0.148882712987474,3012.1115608411
-0.162635158867224,3012.1215608411
-0.176070803143104,3012.1315608411
-0.188936018617951,3012.1415608411
-0.202103206756606,3012.1515608411
-0.214965551112021,3012.1615608411
-0.228019642188531,3012.1715608411
-0.241086699600857,3012.1815608411
-0.254015529629526,3012.1915608411
-0.266213262985432,3012.2015608411
-0.278582408185321,3012.2115608411
-0.290498953396917,3012.2215608411
-0.302359910638617,3012.2315608411
-0.313677285237909,3012.2415608411
-0.321649214343628,3012.2515608411
-0.322181362075313,3012.2615608411
-0.309593669995842,3012.2715608411
-0.277730834884575,3012.2815608411
-0.22226282053904,3012.2915608411
-0.142344483837522,3012.3015608411
-0.0394937621394769,3012.3115608411
0.0798118859215037,3012.3215608411
0.208844038042818,3012.3315608411
0.340397834207126,3012.3415608411
0.466405537727054,3012.3515608411
0.581612858528655,3012.3615608411
0.681395091398388,3012.3715608411
0.764086230389532,3012.3815608411
0.829525548378625,3012.3915608411
0.879159388978695,3012.4015608411
0.914517711531702,3012.4115608411
0.938222197471104,3012.4215608411
0.952593056875458,3012.4315608411
0.959808347726814,3012.4415608411
0.962478697854904,3012.4515608411
0.962837555889692,3012.4615608411
0.962167256436441,3012.4715608411
0.960803751164181,3012.4815608411
0.958754814645386,3012.4915608411
0.956643188097202,3012.5015608411
0.95308802790528,3012.5115608411
0.947714293367805,3012.5215608411
0.939166287344266,3012.5315608411
0.925867275314282,3012.5415608411
0.908008488984128,3012.5515608411
0.884451082448832,3012.5615608411
0.856585298113705,3012.5715608411
0.826101946105429,3012.5815608411
0.795119170432374,3012.5915608411
0.765857379685805,3012.6015608411
0.740037409952085,3012.6115608411
0.718049162328139,3012.6215608411
0.69974133774486,3012.6315608411
0.68522878514952,3012.6415608411
0.673925231780718,3012.6515608411
0.665906427744401,3012.6615608411
0.660038791556709,3012.6715608411
0.656389844989356,3012.6815608411
0.654309885823074,3012.6915608411
0.652212079734925,3012.7015608411
0.649708395727892,3012.7115608411
0.645298155874217,3012.7215608411
0.638799669208235,3012.7315608411
0.630495422391452,3012.7415608411
0.619205820246621,3012.7515608411
0.605308579344557,3012.7615608411
0.588814838947368,3012.7715608411
0.569703810176499,3012.7815608411
0.548766734317074,3012.7915608411
0.526325533257801,3012.8015608411
0.503156693107043,3012.8115608411
0.479583378205185,3012.8215608411
0.455642876053878,3012.8315608411
0.431888586999041,3012.8415608411
0.407445591148826,3012.8515608411
0.382459863947642,3012.8615608411
0.357386902314672,3012.8715608411
0.332027624334225,3012.8815608411
0.307261038534013,3012.8915608411
0.283656956670171,3012.9015608411
0.261175188450513,3012.9115608411
0.239162200406496,3012.9215608411
0.217566875505468,3012.9315608411
0.196264314963219,3012.9415608411
0.175650333272027,3012.9515608411
0.155592184390412,3012.9615608411
0.136456061718,3012.9715608411
0.118162185024168,3012.9815608411
0.100011671053845,3012.9915608411
0.0826269903623132,3013.0015608411
0.0650174260224532,3013.0115608411
0.0476846978221013,3013.0215608411
0.0309439783085789,3013.0315608411
0.0138269852853619,3013.0415608411
-0.00314131887030502,3013.0515608411
-0.0203654410014218,3013.0615608411
-0.0372834262467286,3013.0715608411
-0.0543256123182865,3013.0815608411
-0.0709548521382222,3013.0915608411
-0.0871560803786439,3013.1015608411
-0.102972209850126,3013.1115608411
-0.118263670538593,3013.1215608411
-0.1336729644204,3013.1315608411
-0.148994125071038,3013.1415608411
-0.163738668536428,3013.1515608411
-0.177819248702043,3013.1615608411
-0.192025304218603,3013.1715608411
-0.205753084943137,3013.1815608411
-0.219062655053433,3013.1915608411
-0.231781034579818,3013.2015608411
-0.244112782175786,3013.2115608411
-0.256365326934726,3013.2215608411
-0.268351695907243,3013.2315608411
-0.280534915888462,3013.2415608411
-0.293745993392517,3013.2515608411
-0.307675612868945,3013.2615608411
-0.321975984972286,3013.2715608411
-0.336291850240515,3013.2815608411
-0.349731819983646,3013.2915608411
-0.360060363048474,3013.3015608411
-0.362589958699902,3013.3115608411
-0.352316871270726,3013.3215608411
-0.323240533519034,3013.3315608411
-0.270227685469468,3013.3415608411
-0.191688721859788,3013.3515608411
-0.0898043809315848,3013.3615608411
0.0312628693239146,3013.3715608411
0.163236990172932,3013.3815608411
0.299258532331166,3013.3915608411
0.431015708888111,3013.4015608411
0.551146884948188,3013.4115608411
0.655134380057314,3013.4215608411
0.741245112875487,3013.4315608411
0.80892600697334,3013.4415608411
0.859142413986013,3013.4515608411
0.893717539939883,3013.4615608411
0.915701851260946,3013.4715608411
0.92759131512537,3013.4815608411
0.93259561360051,3013.4915608411
0.932823373841505,3013.5015608411
0.929515694739238,3013.5115608411
0.92472360549919,3013.5215608411
0.919476910144279,3013.5315608411
0.914076220208894,3013.5415608411
0.908258965820581,3013.5515608411
0.901714576778168,3013.5615608411
0.894108194506741,3013.5715608411
0.883639289802648,3013.5815608411
0.869917093997293,3013.5915608411
0.851231980693088,3013.6015608411
0.82830596990224,3013.6115608411
0.80072917883491,3013.6215608411
0.770833862589159,3013.6315608411
0.740750637601956,3013.6415608411
0.711055648585858,3013.6515608411
0.683771780093192,3013.6615608411
0.660249194722815,3013.6715608411
0.641104989044666,3013.6815608411
0.625381279742286,3013.6915608411
0.614092019613045,3013.7015608411
0.606604819880537,3013.7115608411
0.602095749678114,3013.7215608411
0.600087685712783,3013.7315608411
0.598364447111718,3013.7415608411
0.596930786295691,3013.7515608411
0.594049653469283,3013.7615608411
0.589597411319743,3013.7715608411
0.582527816386127,3013.7815608411
0.573475732054889,3013.7915608411
0.562127104780025,3013.8015608411
0.548030294684561,3013.8115608411
0.531740910232223,3013.8215608411
0.51340237223313,3013.8315608411
0.49314185054314,3013.8415608411
0.470949415890322,3013.8515608411
0.447167168172069,3013.8615608411
0.422289357012039,3013.8715608411
0.396536157816752,3013.8815608411
0.369849169107527,3013.8915608411
0.342953437087334,3013.9015608411
0.315596816483054,3013.9115608411
0.287942807488465,3013.9215608411
0.261042156873051,3013.9315608411
0.234425397207291,3013.9415608411
0.208520957522231,3013.9515608411
0.184045405853681,3013.9615608411
0.160407073102763,3013.9715608411
0.137523683740177,3013.9815608411
0.115294840313724,3013.9915608411
0.093715818949984,3014.0015608411
0.0718958713702162,3014.0115608411
0.0503773543381949,3014.0215608411
0.0295626688638771,3014.0315608411
0.00886304526369186,3014.0415608411
-0.0113413193197413,3014.0515608411
-0.0313271544265812,3014.0615608411
-0.0509038449304642,3014.0715608411
-0.0707794227750742,3014.0815608411
-0.0901997591825829,3014.0915608411
-0.109297351490871,3014.1015608411
-0.127518769378522,3014.1115608411
-0.144898512111027,3014.1215608411
-0.161334650090951,3014.1315608411
-0.178196155358752,3014.1415608411
-0.195233495825194,3014.1515608411
-0.213384089405739,3014.1615608411
-0.231920152929268,3014.1715608411
-0.249911636718079,3014.1815608411
-0.267410418391847,3014.1915608411
-0.284048229147212,3014.2015608411
-0.300195987156118,3014.2115608411
-0.31529732134278,3014.2215608411
-0.330074600769629,3014.2315608411
-0.344180467847091,3014.2415608411
-0.357795314076136,3014.2515608411
-0.37135033300706,3014.2615608411
-0.38505391749796,3014.2715608411
-0.399743380101894,3014.2815608411
-0.414967747183133,3014.2915608411
-0.431218546425992,3014.3015608411
-0.447828307501554,3014.3115608411
-0.463331761050846,3014.3215608411
-0.476150272036353,3014.3315608411
-0.483742069204038,3014.3415608411
-0.481884320641436,3014.3515608411
-0.464976780115587,3014.3615608411
-0.426999535133912,3014.3715608411
-0.36461804917781,3014.3815608411
-0.277020594492677,3014.3915608411
-0.167452290191433,3014.4015608411
-0.0426613544920339,3014.4115608411
0.0893061598188217,3014.4215608411
0.220758188153954,3014.4315608411
0.344413151626212,3014.4415608411
0.455583861734427,3014.4515608411
0.549912488216031,3014.4615608411
0.625754189417278,3014.4715608411
0.683564080106395,3014.4815608411
