PPG,time
0.208891828652949,1748.15326727323
0.403557001417133,1748.16326727323
0.347065928563473,1748.17326727323
0.372754509801831,1748.18326727323
0.358337921797797,1748.19326727323
0.373420514098401,1748.20326727323
0.371549205731256,1748.21326727323
0.381183436585283,1748.22326727323
0.382951878094637,1748.23326727323
0.386970509634226,1748.24326727323
0.386900261835225,1748.25326727323
0.384811508693196,1748.26326727323
0.379114960087203,1748.27326727323
0.370306242248681,1748.28326727323
0.359058294260312,1748.29326727323
0.345559499592088,1748.30326727323
0.33020171455899,1748.31326727323
0.313382770341686,1748.32326727323
0.295535483594858,1748.33326727323
0.27661081400999,1748.34326727323
0.257231851865675,1748.35326727323
0.237351238773704,1748.36326727323
0.21683128827591,1748.37326727323
0.195682487845939,1748.38326727323
0.175187000694536,1748.39326727323
0.155073639837273,1748.40326727323
0.135426170113425,1748.41326727323
0.116761485378935,1748.42326727323
0.0981065580165087,1748.43326727323
0.0797801167901535,1748.44326727323
0.0614101907338054,1748.45326727323
0.043860795070978,1748.46326727323
0.0268275255481063,1748.47326727323
0.0107833615051402,1748.48326727323
-0.00494060963990546,1748.49326727323
-0.0199768636897943,1748.50326727323
-0.0339523859523626,1748.51326727323
-0.0477135920846109,1748.52326727323
-0.0610208271347074,1748.53326727323
-0.0745385973226974,1748.54326727323
-0.0879062021004006,1748.55326727323
-0.100275236337887,1748.56326727323
-0.112408300326854,1748.57326727323
-0.123819013644492,1748.58326727323
-0.134850098801654,1748.59326727323
-0.146079522798684,1748.60326727323
-0.157596253662249,1748.61326727323
-0.16873898715135,1748.62326727323
-0.179735152513314,1748.63326727323
-0.190683409730663,1748.64326727323
-0.202410907507533,1748.65326727323
-0.214273050678367,1748.66326727323
-0.226745361659616,1748.67326727323
-0.239365627146945,1748.68326727323
-0.251397289088602,1748.69326727323
-0.263366691751458,1748.70326727323
-0.275448621499676,1748.71326727323
-0.287321844425924,1748.72326727323
-0.299019186618165,1748.73326727323
-0.310575759229883,1748.74326727323
-0.321477349298211,1748.75326727323
-0.332416872960676,1748.76326727323
-0.343872347845585,1748.77326727323
-0.35534368086594,1748.78326727323
-0.367063602225959,1748.79326727323
-0.378907974563742,1748.80326727323
-0.390324329730943,1748.81326727323
-0.401913234377812,1748.82326727323
-0.412811687738834,1748.83326727323
-0.422142059303931,1748.84326727323
-0.425295266010462,1748.85326727323
-0.415938901564834,1748.86326727323
-0.384574204749859,1748.87326727323
-0.324626626730246,1748.88326727323
-0.236221200137305,1748.89326727323
-0.125329090090425,1748.90326727323
-0.00226083378089389,1748.91326727323
0.122524428319235,1748.92326727323
0.240712405538269,1748.93326727323
0.346541075161808,1748.94326727323
0.436179619438509,1748.95326727323
0.507501741960133,1748.96326727323
0.560026108150198,1748.97326727323
0.595383549252169,1748.98326727323
0.615198891728574,1748.99326727323
0.623097308363559,1749.00326727323
0.621970951063285,1749.01326727323
0.615047252165071,1749.02326727323
0.605190431492136,1749.03326727323
0.593953717591377,1749.04326727323
0.582512558594331,1749.05326727323
0.571442891334548,1749.06326727323
0.560721642180728,1749.07326727323
0.551004440474833,1749.08326727323
0.542492685464584,1749.09326727323
0.534936144686854,1749.10326727323
0.527471755957894,1749.11326727323
0.520031869992304,1749.12326727323
0.510259019346459,1749.13326727323
0.496670798695582,1749.14326727323
0.478286250409889,1749.15326727323
0.454351970006294,1749.16326727323
0.426667754919286,1749.17326727323
0.397406692659901,1749.18326727323
0.369406647211721,1749.19326727323
0.34552106255785,1749.20326727323
0.328044009076132,1749.21326727323
0.317916670001088,1749.22326727323
0.314792175794656,1749.23326727323
0.317196841311433,1749.24326727323
0.323954321740235,1749.25326727323
0.333516111314162,1749.26326727323
0.344306384459256,1749.27326727323
0.354666522193993,1749.28326727323
0.363215162554387,1749.29326727323
0.368592592099951,1749.30326727323
0.37027669468505,1749.31326727323
0.367509157973889,1749.32326727323
0.360026738100849,1749.33326727323
0.349411469562042,1749.34326727323
0.335813228350019,1749.35326727323
0.319962933665344,1749.36326727323
0.302739907660882,1749.37326727323
0.284575331250284,1749.38326727323
0.265836633916716,1749.39326727323
0.246947659967258,1749.40326727323
0.227888922511578,1749.41326727323
0.208570467045548,1749.42326727323
0.188872313724263,1749.43326727323
0.169234918172583,1749.44326727323
0.149401573045059,1749.45326727323
0.129760253709755,1749.46326727323
0.110356768295999,1749.47326727323
0.091265675909888,1749.48326727323
0.0724295453778024,1749.49326727323
0.0536861427573995,1749.50326727323
0.0349779509651219,1749.51326727323
0.0160886841246485,1749.52326727323
-0.00241678038387995,1749.53326727323
-0.0199097626076257,1749.54326727323
-0.0365834895181656,1749.55326727323
-0.0525488772717588,1749.56326727323
-0.0677524591464068,1749.57326727323
-0.083001717594299,1749.58326727323
-0.0973993618837244,1749.59326727323
-0.111084907772535,1749.60326727323
-0.123883754987518,1749.61326727323
-0.136848262868452,1749.62326727323
-0.149312231630799,1749.63326727323
-0.161447342827238,1749.64326727323
-0.173713635636563,1749.65326727323
-0.186043595028054,1749.66326727323
-0.197502047984037,1749.67326727323
-0.209300737045497,1749.68326727323
-0.221016744151695,1749.69326727323
-0.233149981518168,1749.70326727323
-0.245394131700131,1749.71326727323
-0.25732800723572,1749.72326727323
-0.268965064437345,1749.73326727323
-0.280203763941562,1749.74326727323
-0.291365526859772,1749.75326727323
-0.3019335363277,1749.76326727323
-0.312040472103238,1749.77326727323
-0.322222284817146,1749.78326727323
-0.332043080202914,1749.79326727323
-0.341904060428966,1749.80326727323
-0.351838950515316,1749.81326727323
-0.362500862311158,1749.82326727323
-0.374179010178055,1749.83326727323
-0.386560524316884,1749.84326727323
-0.400020692405445,1749.85326727323
-0.412412236857759,1749.86326727323
-0.42263319830875,1749.87326727323
-0.42614670482171,1749.88326727323
-0.41594579112185,1749.89326727323
-0.382618607730628,1749.90326727323
-0.320124764224832,1749.91326727323
-0.228736641405366,1749.92326727323
-0.115543316969238,1749.93326727323
0.00956490597872279,1749.94326727323
0.135673432090907,1749.95326727323
0.25529210724899,1749.96326727323
0.36247689642317,1749.97326727323
0.452911351383367,1749.98326727323
0.52548262095058,1749.99326727323
0.579645157265848,1750.00326727323
0.616598251700663,1750.01326727323
0.638934076210204,1750.02326727323
0.649158048278861,1750.03326727323
0.650787363500122,1750.04326727323
0.646934649413726,1750.05326727323
0.64066686930232,1750.06326727323
0.633399686432056,1750.07326727323
0.626181736105297,1750.08326727323
0.619522907368709,1750.09326727323
0.613657168922932,1750.10326727323
0.609038122534744,1750.11326727323
0.605326280706411,1750.12326727323
0.602367252127287,1750.13326727323
0.599757865711137,1750.14326727323
0.597100258860515,1750.15326727323
0.592292778321212,1750.16326727323
0.583425982814801,1750.17326727323
0.569917376565752,1750.18326727323
0.550508258336543,1750.19326727323
0.525370352924156,1750.20326727323
0.496027580923723,1750.21326727323
0.464863395786099,1750.22326727323
0.435002162561855,1750.23326727323
0.408938020727608,1750.24326727323
0.389148275851343,1750.25326727323
0.375751774173644,1750.26326727323
0.368253376741263,1750.27326727323
0.36594314348768,1750.28326727323
0.36676857512823,1750.29326727323
0.370189882124547,1750.30326727323
0.374620174537267,1750.31326727323
0.378619329157774,1750.32326727323
0.381902645326718,1750.33326727323
0.38324204891147,1750.34326727323
0.381778137656928,1750.35326727323
0.377349049580914,1750.36326727323
0.370274182844828,1750.37326727323
0.360050055961082,1750.38326727323
0.347232379590033,1750.39326727323
0.332372234012004,1750.40326727323
0.31528062095705,1750.41326727323
0.297165146393781,1750.42326727323
0.2776084381037,1750.43326727323
0.257750051037899,1750.44326727323
0.238159494509463,1750.45326727323
0.218188613530536,1750.46326727323
0.197917436033434,1750.47326727323
0.177732096783085,1750.48326727323
0.157105628448642,1750.49326727323
0.136194106512484,1750.50326727323
0.115373660507113,1750.51326727323
0.0942177369570966,1750.52326727323
0.0737655424905078,1750.53326727323
0.0542501291754781,1750.54326727323
0.036003079217576,1750.55326727323
0.0186820190138214,1750.56326727323
0.00173244415916893,1750.57326727323
-0.0145647122301823,1750.58326727323
-0.0307421992713065,1750.59326727323
-0.0468818416677568,1750.60326727323
-0.0627376938534112,1750.61326727323
-0.0778242666822768,1750.62326727323
-0.0921895071779375,1750.63326727323
-0.105615104949793,1750.64326727323
-0.11872111379398,1750.65326727323
-0.131666853342396,1750.66326727323
-0.144833147298615,1750.67326727323
-0.15763391783342,1750.68326727323
-0.170182809693475,1750.69326727323
-0.183231041786603,1750.70326727323
-0.196205243189833,1750.71326727323
-0.209016714731784,1750.72326727323
-0.22262173575763,1750.73326727323
-0.23593725054501,1750.74326727323
-0.2493850252386,1750.75326727323
-0.262712303166219,1750.76326727323
-0.275755581456995,1750.77326727323
-0.287972136368237,1750.78326727323
-0.300036542271668,1750.79326727323
-0.311419256671726,1750.80326727323
-0.32290054271342,1750.81326727323
-0.334610703622544,1750.82326727323
-0.346267797338297,1750.83326727323
-0.358287681860878,1750.84326727323
-0.370700022818231,1750.85326727323
-0.383418646430654,1750.86326727323
-0.396274817108845,1750.87326727323
-0.40887059707727,1750.88326727323
-0.420895818686666,1750.89326727323
-0.43229244605607,1750.90326727323
-0.443282142873551,1750.91326727323
-0.454571963455603,1750.92326727323
-0.46570991739905,1750.93326727323
-0.476929937421118,1750.94326727323
-0.48844703519609,1750.95326727323
-0.499163987065481,1750.96326727323
-0.509630833472382,1750.97326727323
-0.520070749482247,1750.98326727323
-0.530909277755463,1750.99326727323
-0.542278290816818,1751.00326727323
-0.553563242004219,1751.01326727323
-0.561117876630414,1751.02326727323
-0.558775588050783,1751.03326727323
-0.536975590607327,1751.04326727323
-0.486449052608864,1751.05326727323
-0.403046658943817,1751.06326727323
-0.291894589180952,1751.07326727323
-0.162543936009686,1751.08326727323
-0.0268685121812875,1751.09326727323
0.104931299448404,1751.10326727323
0.225814509220807,1751.11326727323
0.33102030220509,1751.12326727323
0.417993565099094,1751.13326727323
0.486387187113217,1751.14326727323
0.536601108904555,1751.15326727323
0.570283440255507,1751.16326727323
0.590157068183794,1751.17326727323
0.598794768666899,1751.18326727323
0.600064698833786,1751.19326727323
0.596571440016307,1751.20326727323
0.591037701976853,1751.21326727323
0.584971839199516,1751.22326727323
0.579802844403506,1751.23326727323
0.575376536154324,1751.24326727323
0.57195130905103,1751.25326727323
0.569237775648734,1751.26326727323
0.567305987032535,1751.27326727323
0.566269573225217,1751.28326727323
0.56522199865346,1751.29326727323
0.563573344618088,1751.30326727323
0.559544032753326,1751.31326727323
0.552038877875076,1751.32326727323
0.538716610381335,1751.33326727323
0.518746138388914,1751.34326727323
0.492481802766026,1751.35326727323
0.461727252391907,1751.36326727323
0.429681235359542,1751.37326727323
0.400296184976969,1751.38326727323
0.374935647387891,1751.39326727323
0.356713323460005,1751.40326727323
0.3445981982939,1751.41326727323
0.338898030939666,1751.42326727323
0.337801481287466,1751.43326727323
0.339746443591055,1751.44326727323
0.344137284236086,1751.45326727323
0.349165507674025,1751.46326727323
0.354288477870144,1751.47326727323
0.358539215323819,1751.48326727323
0.360749630595924,1751.49326727323
0.360325815047078,1751.50326727323
0.356849815664285,1751.51326727323
0.34991233065444,1751.52326727323
0.340236753108395,1751.53326727323
0.328043268797344,1751.54326727323
0.313456194376772,1751.55326727323
0.296792084450942,1751.56326727323
0.278576120918635,1751.57326727323
0.25940586279468,1751.58326727323
0.238706711926768,1751.59326727323
0.2173387700947,1751.60326727323
0.196290270863555,1751.61326727323
0.175320182740061,1751.62326727323
0.154757804157794,1751.63326727323
0.134363613467563,1751.64326727323
0.114275236164231,1751.65326727323
0.0942718095563393,1751.66326727323
0.0745587877840699,1751.67326727323
0.0551187718173378,1751.68326727323
0.0360740872684686,1751.69326727323
0.0175630190552376,1751.70326727323
-0.000491857061555157,1751.71326727323
-0.0182835920280737,1751.72326727323
-0.0360261102642443,1751.73326727323
-0.0534512957249483,1751.74326727323
-0.070733063778701,1751.75326727323
-0.0871552060358353,1751.76326727323
-0.10336142569049,1751.77326727323
-0.11946729118021,1751.78326727323
-0.13571921622594,1751.79326727323
-0.151691662874058,1751.80326727323
-0.167132439457025,1751.81326727323
-0.182297985906849,1751.82326727323
-0.196729971682986,1751.83326727323
-0.210633091224922,1751.84326727323
-0.22389862624666,1751.85326727323
-0.236209525298948,1751.86326727323
-0.24825325056137,1751.87326727323
-0.259629680682207,1751.88326727323
-0.270916113821496,1751.89326727323
-0.282145412421054,1751.90326727323
-0.293607347622169,1751.91326727323
-0.304777056836462,1751.92326727323
-0.315652075661664,1751.93326727323
-0.326783448367422,1751.94326727323
-0.337803157321358,1751.95326727323
-0.349437796641273,1751.96326727323
-0.361281555683355,1751.97326727323
-0.37283545266864,1751.98326727323
-0.384361382551198,1751.99326727323
-0.395575280601301,1752.00326727323
-0.406539652039854,1752.01326727323
-0.417371828715182,1752.02326727323
-0.428245050145482,1752.03326727323
-0.438514655277667,1752.04326727323
-0.448443066477649,1752.05326727323
-0.458634149424899,1752.06326727323
-0.469325027376786,1752.07326727323
-0.480048274455093,1752.08326727323
-0.490733085757931,1752.09326727323
-0.501533914764276,1752.10326727323
-0.512999773851134,1752.11326727323
-0.524457236569827,1752.12326727323
-0.535049542271507,1752.13326727323
-0.541948773472817,1752.14326727323
-0.53957677892986,1752.15326727323
-0.518631437331897,1752.16326727323
-0.470174050594849,1752.17326727323
-0.390800337909285,1752.18326727323
-0.283512079438878,1752.19326727323
-0.158342579147505,1752.20326727323
-0.0264547262919486,1752.21326727323
0.102244142050985,1752.22326727323
0.22078826379407,1752.23326727323
0.324613726003915,1752.24326727323
0.410891246303521,1752.25326727323
0.478624933034611,1752.26326727323
0.528259102959707,1752.27326727323
0.561701376582772,1752.28326727323
0.581204970101283,1752.29326727323
0.589869047114416,1752.30326727323
0.591258380044292,1752.31326727323
0.587990760348094,1752.32326727323
0.582378446737952,1752.33326727323
0.576178961462225,1752.34326727323
0.570055115397331,1752.35326727323
0.564271995743492,1752.36326727323
0.559376142126498,1752.37326727323
0.555174544090162,1752.38326727323
0.551917007322145,1752.39326727323
0.549806237095993,1752.40326727323
0.547434932310296,1752.41326727323
0.544775354752676,1752.42326727323
0.540429192997595,1752.43326727323
0.532474991221349,1752.44326727323
0.518739010664568,1752.45326727323
0.498457481269692,1752.46326727323
0.472119692816135,1752.47326727323
0.442175732668713,1752.48326727323
0.412065069610318,1752.49326727323
0.384802911647335,1752.50326727323
0.362253181924324,1752.51326727323
0.346219688225322,1752.52326727323
0.336613830204067,1752.53326727323
0.333043392213754,1752.54326727323
0.334125264921372,1752.55326727323
0.338664798461924,1752.56326727323
0.345376409841626,1752.57326727323
0.352178551618091,1752.58326727323
0.358465370531563,1752.59326727323
0.362843515040939,1752.60326727323
0.365039951640415,1752.61326727323
0.3642512566545,1752.62326727323
0.359894989557716,1752.63326727323
0.352002862764621,1752.64326727323
0.341135352557323,1752.65326727323
0.328264997619717,1752.66326727323
0.313280254816548,1752.67326727323
0.2968204246191,1752.68326727323
0.279156207995563,1752.69326727323
0.261110464174551,1752.70326727323
0.242320754405839,1752.71326727323
0.22279385281604,1752.72326727323
0.202872367946298,1752.73326727323
0.182615860548518,1752.74326727323
0.162027904736026,1752.75326727323
0.141647551339256,1752.76326727323
0.121531887867974,1752.77326727323
0.101923664101172,1752.78326727323
0.0819959213032749,1752.79326727323
0.0629419075040983,1752.80326727323
0.0438970794765984,1752.81326727323
0.0254300241649971,1752.82326727323
0.00795876366449301,1752.83326727323
-0.00895498865301293,1752.84326727323
-0.0249263191145069,1752.85326727323
-0.0398264789089378,1752.86326727323
-0.053613607454225,1752.87326727323
-0.0668522176452163,1752.88326727323
-0.079521775424446,1752.89326727323
-0.0924669437978446,1752.90326727323
-0.105317006093343,1752.91326727323
-0.11773623538765,1752.92326727323
-0.129933350917232,1752.93326727323
-0.142089200532658,1752.94326727323
-0.154163418525789,1752.95326727323
-0.166592525117928,1752.96326727323
-0.179055517209888,1752.97326727323
-0.191505429248894,1752.98326727323
-0.203571094209536,1752.99326727323
-0.215589705550073,1753.00326727323
-0.22727528963143,1753.01326727323
-0.239147416206396,1753.02326727323
-0.250016514657296,1753.03326727323
-0.260234673256493,1753.04326727323
-0.270244182781468,1753.05326727323
-0.279600444886184,1753.06326727323
-0.289295131656961,1753.07326727323
-0.299318411915986,1753.08326727323
-0.309712610006765,1753.09326727323
-0.321446033051634,1753.10326727323
-0.333860696657302,1753.11326727323
-0.346934772293961,1753.12326727323
-0.360268954784639,1753.13326727323
-0.372892600822924,1753.14326727323
-0.384032835072097,1753.15326727323
-0.389641484473769,1753.16326727323
-0.38458117702226,1753.17326727323
-0.359414444017647,1753.18326727323
-0.307895757821747,1753.19326727323
-0.228265864117001,1753.20326727323
-0.125832647722839,1753.21326727323
-0.00980001258629733,1753.22326727323
0.109985930959447,1753.23326727323
0.225669321392177,1753.24326727323
0.331547820493389,1753.25326727323
0.42180246429843,1753.26326727323
0.49484630210436,1753.27326727323
0.549880191623438,1753.28326727323
0.587595555575136,1753.29326727323
0.610590784632741,1753.30326727323
0.620961149896978,1753.31326727323
0.622403130424694,1753.32326727323
0.617471713816176,1753.33326727323
0.609315205778942,1753.34326727323
0.599976015267752,1753.35326727323
0.590633212774065,1753.36326727323
0.582289476390824,1753.37326727323
0.574610656711859,1753.38326727323
0.568222283576606,1753.39326727323
0.562783316489841,1753.40326727323
0.557400496104048,1753.41326727323
0.55259419140249,1753.42326727323
0.546270184155772,1753.43326727323
0.537582668407876,1753.44326727323
0.524611864215192,1753.45326727323
0.505439797525669,1753.46326727323
0.480124259712637,1753.47326727323
0.449676114910851,1753.48326727323
0.417178464178916,1753.49326727323
0.385962202710892,1753.50326727323
0.359063229222482,1753.51326727323
0.339484576436654,1753.52326727323
0.327205249490506,1753.53326727323
0.321946918750628,1753.54326727323
0.322482143635846,1753.55326727323
0.327533188771505,1753.56326727323
0.335191131985174,1753.57326727323
0.344042018833927,1753.58326727323
0.353182303003326,1753.59326727323
0.360195918567767,1753.60326727323
0.364606529354383,1753.61326727323
0.365220920453065,1753.62326727323
0.361560047359598,1753.63326727323
0.353513472497805,1753.64326727323
0.342285764139768,1753.65326727323
0.328914939366144,1753.66326727323
0.313838896472077,1753.67326727323
0.296987837038333,1753.68326727323
0.279135319867949,1753.69326727323
0.260251424254302,1753.70326727323
0.240378176297931,1753.71326727323
0.220066216344164,1753.72326727323
0.199854646062796,1753.73326727323
0.179730434342351,1753.74326727323
0.160087932156549,1753.75326727323
0.141028715399458,1753.76326727323
0.122352700099704,1753.77326727323
0.103717840887209,1753.78326727323
0.0853734949535629,1753.79326727323
0.0665149502550163,1753.80326727323
0.0471900549491164,1753.81326727323
0.0277249001090557,1753.82326727323
0.00806620056525405,1753.83326727323
-0.0107737608162873,1753.84326727323
-0.0284996210301382,1753.85326727323
-0.0449737720830564,1753.86326727323
-0.0599889908005268,1753.87326727323
-0.0742162446289162,1753.88326727323
-0.0879258925805799,1753.89326727323
-0.101011488832258,1753.90326727323
-0.114365452878042,1753.91326727323
-0.127941216903406,1753.92326727323
-0.141684386587859,1753.93326727323
-0.154811163991734,1753.94326727323
-0.167692779431226,1753.95326727323
-0.17982496106113,1753.96326727323
-0.191563005801315,1753.97326727323
-0.202930097004805,1753.98326727323
-0.214359670571444,1753.99326727323
-0.22595853337331,1754.00326727323
-0.237597137336953,1754.01326727323
-0.249515151402597,1754.02326727323
-0.261381092670436,1754.03326727323
-0.272879479541827,1754.04326727323
-0.284089703304574,1754.05326727323
-0.295440590009554,1754.06326727323
-0.307290485504502,1754.07326727323
-0.319190400943874,1754.08326727323
-0.331337064682549,1754.09326727323
-0.343110782615369,1754.10326727323
-0.354177677972282,1754.11326727323
-0.364989608960355,1754.12326727323
-0.375733511966184,1754.13326727323
-0.385793855922793,1754.14326727323
-0.396301277839221,1754.15326727323
-0.406466219023396,1754.16326727323
-0.416745862372372,1754.17326727323
-0.426949421649649,1754.18326727323
-0.437250071469786,1754.19326727323
-0.447804768512949,1754.20326727323
-0.458815308531855,1754.21326727323
-0.471146152845654,1754.22326727323
-0.482777285258633,1754.23326727323
-0.494132301233449,1754.24326727323
-0.502279519288579,1754.25326727323
-0.502507094035553,1754.26326727323
-0.48653845491501,1754.27326727323
-0.44587362345875,1754.28326727323
-0.374608626261019,1754.29326727323
-0.274834640029832,1754.30326727323
-0.154833998139234,1754.31326727323
-0.0247541113752167,1754.32326727323
0.104359733203227,1754.33326727323
0.225461143975515,1754.34326727323
0.33277139191144,1754.35326727323
0.42253680310368,1754.36326727323
0.493769812630352,1754.37326727323
0.546366510494208,1754.38326727323
0.582472783245664,1754.39326727323
0.604993656480544,1754.40326727323
0.616378330778025,1754.41326727323
0.620253918474032,1754.42326727323
0.618618270496975,1754.43326727323
0.61427004967686,1754.44326727323
0.609381131773713,1754.45326727323
0.604476250429151,1754.46326727323
0.600343294913665,1754.47326727323
0.597033493454257,1754.48326727323
0.594537034670891,1754.49326727323
0.592182442394358,1754.50326727323
0.590240341610802,1754.51326727323
0.588726881974006,1754.52326727323
0.58621448971346,1754.53326727323
0.581647865525763,1754.54326727323
0.573392820584338,1754.55326727323
0.559920829992531,1754.56326727323
0.540261347027217,1754.57326727323
0.513600942244421,1754.58326727323
0.482318839454943,1754.59326727323
0.449846307414849,1754.60326727323
0.418838139425213,1754.61326727323
0.392288267683894,1754.62326727323
0.37175892591774,1754.63326727323
0.358454383114552,1754.64326727323
0.351725373622005,1754.65326727323
0.350056272828997,1754.66326727323
0.353047714309078,1754.67326727323
0.357582166298107,1754.68326727323
0.362967159269772,1754.69326727323
0.367655152654233,1754.70326727323
0.371466330355806,1754.71326727323
0.37297178255897,1754.72326727323
0.370852264949578,1754.73326727323
0.365801276769587,1754.74326727323
0.357749600943138,1754.75326727323
0.346827424897357,1754.76326727323
0.333801132146753,1754.77326727323
0.318311044328847,1754.78326727323
0.301394874625388,1754.79326727323
0.28318321889704,1754.80326727323
0.263758953092852,1754.81326727323
0.243821467329624,1754.82326727323
0.223150679779203,1754.83326727323
0.202209285908648,1754.84326727323
0.181700662084956,1754.85326727323
0.161832650054386,1754.86326727323
0.141800589004906,1754.87326727323
0.121920210308697,1754.88326727323
0.101809198427785,1754.89326727323
0.0822495468683878,1754.90326727323
0.0625532782736865,1754.91326727323
0.0429534125570916,1754.92326727323
0.0245725873911615,1754.93326727323
0.00664843211307873,1754.94326727323
-0.00984034129860723,1754.95326727323
-0.0257953681023064,1754.96326727323
-0.0409304686358617,1754.97326727323
-0.0561114647976375,1754.98326727323
-0.0707337619784994,1754.99326727323
-0.0853057114937715,1755.00326727323
-0.100326103053733,1755.01326727323
-0.114581467540501,1755.02326727323
-0.128823565959905,1755.03326727323
-0.142668556760432,1755.04326727323
-0.155509942742309,1755.05326727323
-0.168828163561953,1755.06326727323
-0.181966948832517,1755.07326727323
-0.195332647682802,1755.08326727323
-0.208483829450969,1755.09326727323
-0.221429009513289,1755.10326727323
-0.233835678810394,1755.11326727323
-0.246416733101171,1755.12326727323
-0.258950411770594,1755.13326727323
-0.271134281457173,1755.14326727323
-0.283471861119092,1755.15326727323
-0.295493921004329,1755.16326727323
-0.306670682847594,1755.17326727323
-0.317590107520064,1755.18326727323
-0.328220270100466,1755.19326727323
-0.339076996691525,1755.20326727323
-0.350366839972074,1755.21326727323
-0.362267731386015,1755.22326727323
-0.374360528371037,1755.23326727323
-0.386857855455642,1755.24326727323
-0.399116558339554,1755.25326727323
-0.411677703118287,1755.26326727323
-0.423976835718973,1755.27326727323
-0.436092236243638,1755.28326727323
-0.447500073535197,1755.29326727323
-0.457776982915024,1755.30326727323
-0.467593425561289,1755.31326727323
-0.47755243571765,1755.32326727323
-0.487930131729663,1755.33326727323
-0.498440374254259,1755.34326727323
-0.509487473294878,1755.35326727323
-0.52067172018378,1755.36326727323
-0.531944653066565,1755.37326727323
-0.543624139937492,1755.38326727323
-0.55584853953417,1755.39326727323
-0.56802812238861,1755.40326727323
-0.579375781535902,1755.41326727323
-0.587597371458263,1755.42326727323
-0.58768314834061,1755.43326727323
-0.570889739886549,1755.44326727323
-0.527584312270943,1755.45326727323
-0.452379531693703,1755.46326727323
-0.346804247862493,1755.47326727323
-0.220110058548578,1755.48326727323
-0.0832811837722524,1755.49326727323
0.0517076492733802,1755.50326727323
0.17718582082607,1755.51326727323
0.287998683004867,1755.52326727323
0.380608546801283,1755.53326727323
0.454115615382216,1755.54326727323
0.509354157010283,1755.55326727323
0.54879245353693,1755.56326727323
0.57398093381929,1755.57326727323
0.588658360289974,1755.58326727323
0.595241500749744,1755.59326727323
0.596600743700324,1755.60326727323
0.594142425452472,1755.61326727323
0.590396500621883,1755.62326727323
0.586259650372599,1755.63326727323
0.582543553109738,1755.64326727323
0.579939203990634,1755.65326727323
0.578016255968986,1755.66326727323
0.57649100315206,1755.67326727323
0.575735223973185,1755.68326727323
0.575066268644882,1755.69326727323
0.573705582716637,1755.70326727323
0.570937881443975,1755.71326727323
0.565169484677031,1755.72326727323
0.554217855634379,1755.73326727323
0.537298190305802,1755.74326727323
0.513905696532109,1755.75326727323
0.485477846582957,1755.76326727323
0.455008646797514,1755.77326727323
0.42512808575255,1755.78326727323
0.398986669186943,1755.79326727323
0.37859393738648,1755.80326727323
0.364900992276416,1755.81326727323
0.357194340447157,1755.82326727323
0.355018027836253,1755.83326727323
0.356440903084653,1755.84326727323
0.360245259821639,1755.85326727323
0.36513943855593,1755.86326727323
0.370651382497623,1755.87326727323
0.375035549077997,1755.88326727323
0.377681155351565,1755.89326727323
0.377424652667282,1755.90326727323
0.373000427221946,1755.91326727323
0.365792664830597,1755.92326727323
0.354843420893767,1755.93326727323
0.341272715561663,1755.94326727323
0.32524282665242,1755.95326727323
0.307411381809645,1755.96326727323
0.289069010347583,1755.97326727323
0.27031387330415,1755.98326727323
0.251163315908925,1755.99326727323
0.23215229368816,1756.00326727323
0.213258732771733,1756.01326727323
0.193933597475128,1756.02326727323
0.17411063468095,1756.03326727323
0.154297707448437,1756.04326727323
0.134318078630312,1756.05326727323
0.114599283492156,1756.06326727323
0.095307694754764,1756.07326727323
0.0760668661987238,1756.08326727323
0.0570488180118284,1756.09326727323
0.0374975667422542,1756.10326727323
0.0186642540860109,1756.11326727323
0.000407472838840512,1756.12326727323
-0.0166038286023601,1756.13326727323
-0.0323085485448618,1756.14326727323
-0.0472808563739452,1756.15326727323
-0.0613864022298423,1756.16326727323
-0.0755430262740456,1756.17326727323
-0.0899092135968199,1756.18326727323
-0.103625381165242,1756.19326727323
-0.117435847762361,1756.20326727323
-0.130559958517965,1756.21326727323
-0.14402759103863,1756.22326727323
-0.157103462163488,1756.23326727323
-0.169932255804988,1756.24326727323
-0.182712796087606,1756.25326727323
-0.194898188203493,1756.26326727323
-0.207107423414686,1756.27326727323
-0.218944636416092,1756.28326727323
-0.230446646585832,1756.29326727323
-0.242133186693641,1756.30326727323
-0.253606318315696,1756.31326727323
-0.265183860456843,1756.32326727323
-0.277202508724713,1756.33326727323
-0.289148114077956,1756.34326727323
-0.301020537780159,1756.35326727323
-0.312650630982683,1756.36326727323
-0.323847929986795,1756.37326727323
-0.33507542113072,1756.38326727323
-0.346567176737807,1756.39326727323
-0.358516083075605,1756.40326727323
-0.370217395116935,1756.41326727323
-0.382370051178776,1756.42326727323
-0.394678054095246,1756.43326727323
-0.406595914089964,1756.44326727323
-0.418640447046583,1756.45326727323
-0.430019532668703,1756.46326727323
-0.441143472096579,1756.47326727323
-0.45255716566742,1756.48326727323
-0.463784267015234,1756.49326727323
-0.475350817206125,1756.50326727323
-0.487052289027944,1756.51326727323
-0.498556886966681,1756.52326727323
-0.510254388739036,1756.53326727323
-0.521433810602115,1756.54326727323
-0.532295210818436,1756.55326727323
-0.543275495201163,1756.56326727323
-0.554096540873574,1756.57326727323
-0.564352216784033,1756.58326727323
-0.571049813604479,1756.59326727323
-0.56981537022001,1756.60326727323
-0.551303366446734,1756.61326727323
-0.506002108613616,1756.62326727323
-0.428305179406321,1756.63326727323
-0.320417899462158,1756.64326727323
-0.19211709480612,1756.65326727323
-0.0550743418055673,1756.66326727323
0.0787565355902647,1756.67326727323
0.201261447617394,1756.68326727323
0.30771095476028,1756.69326727323
0.395598697292502,1756.70326727323
0.464944262889432,1756.71326727323
0.516493589083739,1756.72326727323
0.551937791168375,1756.73326727323
0.574304528497024,1756.74326727323
0.585847618786447,1756.75326727323
0.589840150113479,1756.76326727323
0.58882187516328,1756.77326727323
0.584898641432687,1756.78326727323
0.579669766814386,1756.79326727323
0.574432350076729,1756.80326727323
0.5695494172232,1756.81326727323
0.565038279007506,1756.82326727323
0.561566527064314,1756.83326727323
0.559316247472041,1756.84326727323
0.557409488472154,1756.85326727323
0.555597831750088,1756.86326727323
0.553571009105495,1756.87326727323
0.548903232192545,1756.88326727323
0.540447377875145,1756.89326727323
0.526410869822391,1756.90326727323
0.505499381661244,1756.91326727323
0.478891310160072,1756.92326727323
0.448826727919134,1756.93326727323
0.418744144070471,1756.94326727323
0.39153892689823,1756.95326727323
0.369608751036499,1756.96326727323
0.354739665295232,1756.97326727323
0.346775972377443,1756.98326727323
0.344865929740262,1756.99326727323
0.348167408077987,1757.00326727323
0.354496077656982,1757.01326727323
0.363414400559098,1757.02326727323
0.372480124460784,1757.03326727323
0.380862530380915,1757.04326727323
0.386991571677061,1757.05326727323
0.390210402621714,1757.06326727323
0.389615071326243,1757.07326727323
0.384807229559261,1757.08326727323
0.376327300682881,1757.09326727323
0.364513013070888,1757.10326727323
0.350721154770552,1757.11326727323
0.334299601452192,1757.12326727323
0.316697054502738,1757.13326727323
0.297393840716733,1757.14326727323
0.27711999893778,1757.15326727323
0.256344124332924,1757.16326727323
0.234909511878033,1757.17326727323
0.213951582785701,1757.18326727323
0.193553572668945,1757.19326727323
0.173481569875828,1757.20326727323
0.153558455383088,1757.21326727323
0.134111833940955,1757.22326727323
0.114844610015603,1757.23326727323
0.0960954110508633,1757.24326727323
0.0783381217868866,1757.25326727323
0.0610414488342236,1757.26326727323
0.0441300570178739,1757.27326727323
0.0278591216926504,1757.28326727323
0.0112411862841884,1757.29326727323
-0.00516635366713256,1757.30326727323
-0.0217308614476483,1757.31326727323
-0.0369851832086968,1757.32326727323
-0.051400504766725,1757.33326727323
-0.0652594478661699,1757.34326727323
-0.0785399786035257,1757.35326727323
-0.0915683185410563,1757.36326727323
-0.104056115239289,1757.37326727323
-0.116301697340464,1757.38326727323
-0.128702484634152,1757.39326727323
-0.140975830185738,1757.40326727323
-0.152836807766377,1757.41326727323
-0.164995527440567,1757.42326727323
-0.176754649762808,1757.43326727323
-0.188215917823119,1757.44326727323
-0.19932458857478,1757.45326727323
-0.211159141825526,1757.46326727323
-0.223110300184154,1757.47326727323
-0.235284465904089,1757.48326727323
-0.247654556263709,1757.49326727323
-0.260070166318098,1757.50326727323
-0.272850744919501,1757.51326727323
-0.284701685086183,1757.52326727323
-0.296007190984923,1757.53326727323
-0.306561672129135,1757.54326727323
-0.316310321237492,1757.55326727323
-0.326008391606976,1757.56326727323
-0.336027210808545,1757.57326727323
-0.346307644334804,1757.58326727323
-0.357221622666105,1757.59326727323
-0.368639114299168,1757.60326727323
-0.380380041663361,1757.61326727323
-0.392337876322153,1757.62326727323
-0.404543301599149,1757.63326727323
-0.416012916686348,1757.64326727323
-0.424492580620773,1757.65326727323
-0.423784233455262,1757.66326727323
-0.40495639019046,1757.67326727323
-0.35904249831461,1757.68326727323
-0.28268806335177,1757.69326727323
-0.179688698692955,1757.70326727323
-0.0585572628806632,1757.71326727323
0.0688736199707641,1757.72326727323
0.193094529262186,1757.73326727323
0.306731517267052,1757.74326727323
0.405885035103845,1757.75326727323
0.487454843264361,1757.76326727323
0.550930973077226,1757.77326727323
0.597430371802462,1757.78326727323
0.627959635222656,1757.79326727323
0.645690116359202,1757.80326727323
0.65288659073558,1757.81326727323
0.653703195460019,1757.82326727323
0.649923115900742,1757.83326727323
0.644443439832077,1757.84326727323
0.638695582665896,1757.85326727323
0.633223573187371,1757.86326727323
0.62863081827593,1757.87326727323
0.624486599550866,1757.88326727323
0.621171262408974,1757.89326727323
0.618351393554473,1757.90326727323
0.615447797544757,1757.91326727323
0.611683499157587,1757.92326727323
0.606242521298747,1757.93326727323
0.597882756185132,1757.94326727323
0.583896090698481,1757.95326727323
0.563882471576846,1757.96326727323
0.537439503597875,1757.97326727323
0.505951605721002,1757.98326727323
0.472864120381246,1757.99326727323
0.441143146823305,1758.00326727323
0.413856761018785,1758.01326727323
0.393669649058134,1758.02326727323
0.381000464004649,1758.03326727323
0.375529582370287,1758.04326727323
0.375927119008102,1758.05326727323
0.380723432224341,1758.06326727323
0.387191982545706,1758.07326727323
0.394915471303026,1758.08326727323
0.401499966160464,1758.09326727323
0.406185325971103,1758.10326727323
0.407637935713174,1758.11326727323
0.405955191659425,1758.12326727323
0.400595616883119,1758.13326727323
0.391734539536101,1758.14326727323
0.379843997220955,1758.15326727323
0.365438093978008,1758.16326727323
0.348678465627083,1758.17326727323
0.330453692155403,1758.18326727323
0.310790010883182,1758.19326727323
0.290708101825286,1758.20326727323
0.26975037202587,1758.21326727323
0.248666970072167,1758.22326727323
0.227095138231075,1758.23326727323
0.205385868638083,1758.24326727323
0.184303332895406,1758.25326727323
0.163333115577088,1758.26326727323
0.143064313824075,1758.27326727323
0.122993605356145,1758.28326727323
0.103312644809599,1758.29326727323
0.0834233741425402,1758.30326727323
0.064063790446749,1758.31326727323
0.0453469237740631,1758.32326727323
0.026977755725192,1758.33326727323
0.00947070602761932,1758.34326727323
-0.00752059290286863,1758.35326727323
-0.0239771284562433,1758.36326727323
-0.0405689387934612,1758.37326727323
-0.0559561059698992,1758.38326727323
-0.0711981882612661,1758.39326727323
-0.0856262279588667,1758.40326727323
-0.0996956019459545,1758.41326727323
-0.113094375429824,1758.42326727323
-0.12571390213867,1758.43326727323
-0.138575745170168,1758.44326727323
-0.151093690973265,1758.45326727323
-0.164203311692047,1758.46326727323
-0.177615559366932,1758.47326727323
-0.19134754347051,1758.48326727323
-0.205874899002971,1758.49326727323
-0.219352409074798,1758.50326727323
-0.232696874714862,1758.51326727323
-0.245799650958466,1758.52326727323
-0.258241290222861,1758.53326727323
-0.270577487814862,1758.54326727323
-0.283096871621031,1758.55326727323
-0.295101920282974,1758.56326727323
-0.307206702490581,1758.57326727323
-0.319102067039948,1758.58326727323
-0.331060610520499,1758.59326727323
-0.343117432609549,1758.60326727323
-0.355434725839379,1758.61326727323
-0.367741038813177,1758.62326727323
-0.380518562464183,1758.63326727323
-0.393784809037601,1758.64326727323
-0.40694932729179,1758.65326727323
-0.42013168487821,1758.66326727323
-0.433163944291325,1758.67326727323
-0.445686123710815,1758.68326727323
-0.457516220570293,1758.69326727323
-0.469207687151333,1758.70326727323
-0.480169250710367,1758.71326727323
-0.490824213949582,1758.72326727323
-0.500729376782762,1758.73326727323
-0.511030702795989,1758.74326727323
-0.521782066080454,1758.75326727323
-0.532839940785335,1758.76326727323
-0.544789848280406,1758.77326727323
-0.556903795976233,1758.78326727323
-0.568518192332975,1758.79326727323
-0.577879347911478,1758.80326727323
-0.581308143047858,1758.81326727323
-0.57101678654208,1758.82326727323
-0.536525547556768,1758.83326727323
-0.469629135881314,1758.84326727323
-0.368714137136027,1758.85326727323
-0.242451422841813,1758.86326727323
-0.103028533746984,1758.87326727323
0.0363693801223936,1758.88326727323
0.16637287987366,1758.89326727323
0.281184664122112,1758.90326727323
0.377707415167039,1758.91326727323
0.45455590547495,1758.92326727323
0.512248170528103,1758.93326727323
0.553890407670839,1758.94326727323
0.581138894282857,1758.95326727323
0.597033812760299,1758.96326727323
0.605189492940009,1758.97326727323
0.607476978850099,1758.98326727323
0.606279640167072,1758.99326727323
0.603457215313731,1759.00326727323
0.599789040736486,1759.01326727323
0.595947783602562,1759.02326727323
0.59275870493501,1759.03326727323
0.590023544891953,1759.04326727323
0.588677971898618,1759.05326727323
0.588750116948946,1759.06326727323
0.588962284898163,1759.07326727323
0.589034023407324,1759.08326727323
0.587565085306353,1759.09326727323
0.58258823663502,1759.10326727323
0.572271181711589,1759.11326727323
0.555209168357527,1759.12326727323
0.530894965885507,1759.13326727323
0.50104734353344,1759.14326727323
0.468666907192821,1759.15326727323
0.436692930232512,1759.16326727323
0.408264851234918,1759.17326727323
0.385871739279634,1759.18326727323
0.370146472391024,1759.19326727323
0.360526623647459,1759.20326727323
0.357459854768744,1759.21326727323
0.358481577006559,1759.22326727323
0.362798957094731,1759.23326727323
0.368189082304914,1759.24326727323
0.373862698399819,1759.25326727323
0.378217122634545,1759.26326727323
0.38069929108144,1759.27326727323
0.381103230013203,1759.28326727323
0.378156753212171,1759.29326727323
0.371450220209438,1759.30326727323
0.361132978165499,1759.31326727323
0.347975726345934,1759.32326727323
0.332445891267044,1759.33326727323
0.315145331090565,1759.34326727323
0.296517556263749,1759.35326727323
0.277383563805838,1759.36326727323
0.257980515643072,1759.37326727323
0.237867711060012,1759.38326727323
0.217234164561967,1759.39326727323
0.195540450901141,1759.40326727323
0.173810241114809,1759.41326727323
0.151766011792597,1759.42326727323
0.130067782798543,1759.43326727323
0.108683707708717,1759.44326727323
0.0879068358700493,1759.45326727323
0.0678802370560491,1759.46326727323
0.0481042428065232,1759.47326727323
0.028308362797136,1759.48326727323
0.00900111978139619,1759.49326727323
-0.00991821865585508,1759.50326727323
-0.0289955270973671,1759.51326727323
-0.0467178426545906,1759.52326727323
-0.0632598889802069,1759.53326727323
-0.0793918146263183,1759.54326727323
-0.0944017578735506,1759.55326727323
-0.108559717662135,1759.56326727323
-0.122796775896162,1759.57326727323
-0.137121048472481,1759.58326727323
-0.151394337092578,1759.59326727323
-0.165728121051721,1759.60326727323
-0.179623725285657,1759.61326727323
-0.193440863945711,1759.62326727323
-0.207568500787773,1759.63326727323
-0.221024634099586,1759.64326727323
-0.233843370226077,1759.65326727323
-0.246889351758656,1759.66326727323
-0.259563537079799,1759.67326727323
-0.272179432191309,1759.68326727323
-0.284356292366209,1759.69326727323
-0.296282754289302,1759.70326727323
-0.307587374543287,1759.71326727323
-0.318308040126753,1759.72326727323
-0.329601412266687,1759.73326727323
-0.341032688816895,1759.74326727323
-0.353207789604122,1759.75326727323
-0.365244788064175,1759.76326727323
-0.377798655566705,1759.77326727323
-0.390225905365458,1759.78326727323
-0.40298586934664,1759.79326727323
-0.415778554741151,1759.80326727323
-0.428371911940445,1759.81326727323
-0.441007083239738,1759.82326727323
-0.453052170130267,1759.83326727323
-0.465698566907697,1759.84326727323
-0.478343363846741,1759.85326727323
-0.490882378009859,1759.86326727323
-0.503591653671589,1759.87326727323
-0.516523026850555,1759.88326727323
-0.529130317967698,1759.89326727323
-0.541173176350018,1759.90326727323
-0.551969496751236,1759.91326727323
-0.561411954666858,1759.92326727323
-0.570495738504494,1759.93326727323
-0.579005553846847,1759.94326727323
-0.588559837227794,1759.95326727323
-0.597984383235956,1759.96326727323
-0.608393487197334,1759.97326727323
-0.619645411189533,1759.98326727323
-0.631809273771592,1759.99326727323
-0.64401634279896,1760.00326727323
-0.654305800566421,1760.01326727323
-0.658925502497154,1760.02326727323
-0.649642452795039,1760.03326727323
-0.616072046082493,1760.04326727323
-0.548715059774838,1760.05326727323
-0.446510686461034,1760.06326727323
-0.316882234240239,1760.07326727323
-0.173428174916777,1760.08326727323
-0.0290702608218498,1760.09326727323
0.104746844194873,1760.10326727323
0.2225344552867,1760.11326727323
0.321126162962508,1760.12326727323
0.400138732588156,1760.13326727323
0.461107500464942,1760.14326727323
0.505531049761139,1760.15326727323
0.535420562646311,1760.16326727323
0.553468703705557,1760.17326727323
0.562208338751806,1760.18326727323
0.564361513188143,1760.19326727323
0.563245049758575,1760.20326727323
0.560186346309171,1760.21326727323
0.556720109449178,1760.22326727323
0.554000230610111,1760.23326727323
0.551450804484159,1760.24326727323
0.549570037170024,1760.25326727323
0.548050408021954,1760.26326727323
0.547596556995015,1760.27326727323
0.547188213363436,1760.28326727323
0.546327935993679,1760.29326727323
0.544580857710965,1760.30326727323
0.540402927913189,1760.31326727323
0.531497361451806,1760.32326727323
0.51672672975453,1760.33326727323
0.495351270285962,1760.34326727323
0.46845099197155,1760.35326727323
0.437958999174196,1760.36326727323
0.407084689154124,1760.37326727323
0.378653215474759,1760.38326727323
0.355487336908201,1760.39326727323
0.338774016713447,1760.40326727323
0.329135990624613,1760.41326727323
0.325262509873886,1760.42326727323
0.325791287853721,1760.43326727323
0.329469681210574,1760.44326727323
0.335644754326636,1760.45326727323
0.342141123712076,1760.46326727323
0.347966051858785,1760.47326727323
0.351423752962448,1760.48326727323
0.352147353959711,1760.49326727323
0.34942511038622,1760.50326727323
0.344227643560688,1760.51326727323
0.335110362469253,1760.52326727323
0.3231241663527,1760.53326727323
0.308633510490622,1760.54326727323
0.292101998771899,1760.55326727323
0.274318034329499,1760.56326727323
0.255547555839215,1760.57326727323
0.235402946735359,1760.58326727323
0.214306179769325,1760.59326727323
0.193138216824538,1760.60326727323
0.171649925847707,1760.61326727323
0.150542770170718,1760.62326727323
0.129480715595981,1760.63326727323
0.109422369146105,1760.64326727323
0.0888998286763533,1760.65326727323
0.068817112108913,1760.66326727323
0.0485996312803847,1760.67326727323
0.0287017289596677,1760.68326727323
0.00930871569353211,1760.69326727323
-0.00896255040425933,1760.70326727323
-0.0260353963669034,1760.71326727323
-0.0429157300871029,1760.72326727323
-0.0592228185821024,1760.73326727323
-0.0756932721826365,1760.74326727323
-0.0918812582942173,1760.75326727323
-0.107976446947556,1760.76326727323
-0.123534912937094,1760.77326727323
-0.139051372591148,1760.78326727323
-0.154115747075501,1760.79326727323
-0.168846234912453,1760.80326727323
-0.183324948068328,1760.81326727323
-0.196826267122451,1760.82326727323
-0.210297428021994,1760.83326727323
-0.223532341220098,1760.84326727323
-0.236465054432913,1760.85326727323
-0.248720542769332,1760.86326727323
-0.260866451010364,1760.87326727323
-0.27297070958883,1760.88326727323
-0.284680239076402,1760.89326727323
-0.296368803741015,1760.90326727323
-0.307865946249816,1760.91326727323
-0.319426745624049,1760.92326727323
-0.330586734564219,1760.93326727323
-0.342272623856156,1760.94326727323
-0.353763789324341,1760.95326727323
-0.36507748921245,1760.96326727323
-0.376481368534111,1760.97326727323
-0.387664961643314,1760.98326727323
-0.398956804819282,1760.99326727323
-0.41001829249524,1761.00326727323
-0.421232230824814,1761.01326727323
-0.432587022792398,1761.02326727323
-0.443973307319405,1761.03326727323
-0.455378948287105,1761.04326727323
-0.466300499801599,1761.05326727323
-0.477748492313965,1761.06326727323
-0.48866267045193,1761.07326727323
-0.500233369415344,1761.08326727323
-0.511992890322888,1761.09326727323
-0.524243271060639,1761.10326727323
-0.536725733966296,1761.11326727323
-0.548876637982982,1761.12326727323
-0.560558815626898,1761.13326727323
-0.57163484822581,1761.14326727323
-0.581888074318076,1761.15326727323
-0.592722786113458,1761.16326727323
-0.602873520521909,1761.17326727323
-0.612757107139819,1761.18326727323
-0.62274819337531,1761.19326727323
-0.631795904368018,1761.20326727323
-0.641675304676372,1761.21326727323
-0.652002892093971,1761.22326727323
-0.662426855829178,1761.23326727323
-0.67254254675029,1761.24326727323
-0.679239406158326,1761.25326727323
-0.676429584546422,1761.26326727323
-0.654339788224349,1761.27326727323
-0.602441305072837,1761.28326727323
-0.514561030270294,1761.29326727323
-0.393664351431364,1761.30326727323
-0.252070594569057,1761.31326727323
-0.104102246289743,1761.32326727323
0.0367422117218642,1761.33326727323
0.162360588598573,1761.34326727323
0.268492603651405,1761.35326727323
0.354102850569172,1761.36326727323
0.420372458030123,1761.37326727323
0.470063790577799,1761.38326727323
0.504863631909681,1761.39326727323
0.527228693932072,1761.40326727323
0.539713649390616,1761.41326727323
0.54463318390108,1761.42326727323
0.544402334966524,1761.43326727323
0.541202325344148,1761.44326727323
0.53647956104687,1761.45326727323
0.530806794166481,1761.46326727323
0.525788537262164,1761.47326727323
0.521382421338578,1761.48326727323
0.517749951050962,1761.49326727323
0.514872557625082,1761.50326727323
0.512269114273276,1761.51326727323
0.510324522066727,1761.52326727323
0.507817640965177,1761.53326727323
0.504004711670615,1761.54326727323
0.497493974701474,1761.55326727323
0.485846039309351,1761.56326727323
0.467961212644022,1761.57326727323
0.444349051029426,1761.58326727323
0.416151131086326,1761.59326727323
0.38656385441595,1761.60326727323
0.358037635938694,1761.61326727323
0.333205708371173,1761.62326727323
0.315239084899247,1761.63326727323
0.304448180814983,1761.64326727323
0.30043617368319,1761.65326727323
0.302002062199627,1761.66326727323
0.307628475173706,1761.67326727323
0.315845454747461,1761.68326727323
0.325546486565043,1761.69326727323
0.334984190616327,1761.70326727323
0.343098415743924,1761.71326727323
0.348228135195131,1761.72326727323
0.349435687711906,1761.73326727323
0.347120302714332,1761.74326727323
0.341258853658578,1761.75326727323
0.331990391537539,1761.76326727323
0.319519045110245,1761.77326727323
0.305015109229312,1761.78326727323
0.288775961997642,1761.79326727323
0.270956813689049,1761.80326727323
0.252508621386691,1761.81326727323
0.233281345430809,1761.82326727323
0.213558119553642,1761.83326727323
0.193610621362285,1761.84326727323
0.173982699245682,1761.85326727323
0.154235905454594,1761.86326727323
0.135032570040546,1761.87326727323
0.11597415557007,1761.88326727323
0.0968861211123713,1761.89326727323
0.0779210369381632,1761.90326727323
0.058739479232693,1761.91326727323
0.0394649302292681,1761.92326727323
0.0203271059423202,1761.93326727323
0.00140644926542602,1761.94326727323
-0.0169352182964598,1761.95326727323
-0.0349010705442608,1761.96326727323
-0.0520050399325125,1761.97326727323
-0.0678835402575185,1761.98326727323
-0.0835040829524104,1761.99326727323
-0.0981808948397243,1762.00326727323
-0.112097543013904,1762.01326727323
-0.125204180975371,1762.02326727323
-0.137789830941863,1762.03326727323
-0.149851767048175,1762.04326727323
-0.161503401564855,1762.05326727323
-0.173350501560374,1762.06326727323
-0.185052026991173,1762.07326727323
-0.19662064858878,1762.08326727323
-0.207892105832548,1762.09326727323
-0.218797960202508,1762.10326727323
-0.229951906937875,1762.11326727323
-0.240460723756066,1762.12326727323
-0.251379981576964,1762.13326727323
-0.262183965454747,1762.14326727323
-0.272826543233307,1762.15326727323
-0.283721533148855,1762.16326727323
-0.294237748904307,1762.17326727323
-0.304727952422523,1762.18326727323
-0.315201405540966,1762.19326727323
-0.325962486613799,1762.20326727323
-0.337358918750459,1762.21326727323
-0.349729844542704,1762.22326727323
-0.362323982411592,1762.23326727323
-0.374851403799545,1762.24326727323
-0.387335052236379,1762.25326727323
-0.399313701637007,1762.26326727323
-0.410926210942734,1762.27326727323
-0.422181705082049,1762.28326727323
-0.433434938005559,1762.29326727323
-0.444734498709944,1762.30326727323
-0.456116620224318,1762.31326727323
-0.467603112063295,1762.32326727323
-0.479045248651185,1762.33326727323
-0.490493427905818,1762.34326727323
-0.501618551972506,1762.35326727323
-0.513125327233865,1762.36326727323
-0.523983185474476,1762.37326727323
-0.534924130409603,1762.38326727323
-0.543552850898663,1762.39326727323
-0.546693729603816,1762.40326727323
-0.53662399601859,1762.41326727323
-0.503426075423338,1762.42326727323
-0.438050279585119,1762.43326727323
-0.339561813807947,1762.44326727323
-0.215415110863944,1762.45326727323
-0.0781466531857482,1762.46326727323
0.0583344969010443,1762.47326727323
0.184497780277614,1762.48326727323
0.294476875204532,1762.49326727323
0.385310386354769,1762.50326727323
0.457018829723782,1762.51326727323
0.511289202566432,1762.52326727323
0.550434826732283,1762.53326727323
0.576057177170959,1762.54326727323
0.590388601362422,1762.55326727323
0.595844071290057,1762.56326727323
0.594707122634479,1762.57326727323
0.589334904542345,1762.58326727323
0.581757566031139,1762.59326727323
0.573335942820431,1762.60326727323
0.565208238486619,1762.61326727323
0.55738027951612,1762.62326727323
0.550547778928372,1762.63326727323
0.54404430675875,1762.64326727323
0.538809874504421,1762.65326727323
0.534069220299228,1762.66326727323
0.529530410051149,1762.67326727323
0.523032720686995,1762.68326727323
0.513191570262712,1762.69326727323
0.498388070977966,1762.70326727323
0.477383182634533,1762.71326727323
0.450770414820409,1762.72326727323
0.420156356659585,1762.73326727323
0.388748968840018,1762.74326727323
0.359330982913659,1762.75326727323
0.335868311323154,1762.76326727323
0.319760879001439,1762.77326727323
0.311542520721619,1762.78326727323
0.310125945354847,1762.79326727323
0.313974983995032,1762.80326727323
0.321456812707428,1762.81326727323
0.330837815139019,1762.82326727323
0.340519111385114,1762.83326727323
0.34918506238746,1762.84326727323
0.35602853773926,1762.85326727323
0.360220126602618,1762.86326727323
0.360822097006255,1762.87326727323
0.356969445232871,1762.88326727323
0.349837786269074,1762.89326727323
0.338295220282282,1762.90326727323
0.324125007984833,1762.91326727323
0.307695359557408,1762.92326727323
0.289879252996493,1762.93326727323
0.271136991384114,1762.94326727323
0.251966313305032,1762.95326727323
0.232289001498063,1762.96326727323
0.21250458348019,1762.97326727323
0.193733336486171,1762.98326727323
0.174928096638186,1762.99326727323
0.156337878608598,1763.00326727323
0.137440569970791,1763.01326727323
0.119256257893008,1763.02326727323
0.100671858247023,1763.03326727323
0.0815979722915383,1763.04326727323
0.0625923490028923,1763.05326727323
0.0436033480393295,1763.06326727323
0.0254350268024829,1763.07326727323
0.00765046553348037,1763.08326727323
-0.00952862369592971,1763.09326727323
-0.0263898907350237,1763.10326727323
-0.0432437480638585,1763.11326727323
-0.0597159518028544,1763.12326727323
-0.0754160424031624,1763.13326727323
-0.0903712456272889,1763.14326727323
-0.103987291500842,1763.15326727323
-0.116989433203411,1763.16326727323
-0.129941312187756,1763.17326727323
-0.142843632864627,1763.18326727323
-0.15547325809998,1763.19326727323
-0.167769628120782,1763.20326727323
-0.180083878457364,1763.21326727323
-0.192801131138031,1763.22326727323
-0.205321842583915,1763.23326727323
-0.217244002715138,1763.24326727323
-0.229037437317232,1763.25326727323
-0.240719545161038,1763.26326727323
-0.251861109660281,1763.27326727323
-0.262588428667259,1763.28326727323
-0.272705240902894,1763.29326727323
-0.283061836968678,1763.30326727323
-0.293307756224012,1763.31326727323
-0.303892400333839,1763.32326727323
-0.314193602575522,1763.33326727323
-0.324296165982209,1763.34326727323
-0.334326253237461,1763.35326727323
-0.344150674957269,1763.36326727323
-0.354886852334952,1763.37326727323
-0.366140528812492,1763.38326727323
-0.377444151096943,1763.39326727323
-0.389438084091591,1763.40326727323
-0.401178347471389,1763.41326727323
-0.412782159546146,1763.42326727323
-0.42433571606223,1763.43326727323
-0.436045153281609,1763.44326727323
-0.447618903774416,1763.45326727323
-0.458793433144888,1763.46326727323
-0.470350484707088,1763.47326727323
-0.481191184602037,1763.48326727323
-0.491666893747716,1763.49326727323
-0.501785680852203,1763.50326727323
-0.511475269460367,1763.51326727323
-0.521408074823563,1763.52326727323
-0.530908145012902,1763.53326727323
-0.540950539446727,1763.54326727323
-0.551411737773695,1763.55326727323
-0.562013074103172,1763.56326727323
-0.572511486635312,1763.57326727323
-0.580214302838878,1763.58326727323
-0.581023310281953,1763.59326727323
-0.566093489012637,1763.60326727323
-0.523952030057899,1763.61326727323
-0.447875401280729,1763.62326727323
-0.337151855747115,1763.63326727323
-0.202261190204695,1763.64326727323
-0.0564163762663864,1763.65326727323
0.0861700391300093,1763.66326727323
0.21593209748627,1763.67326727323
0.327977490716188,1763.68326727323
0.41914290015665,1763.69326727323
0.491174426786637,1763.70326727323
0.544999279598859,1763.71326727323
0.583010447371641,1763.72326727323
0.608309199505189,1763.73326727323
0.623461085047305,1763.74326727323
0.630955466770606,1763.75326727323
0.632717600929679,1763.76326727323
0.631243897430534,1763.77326727323
0.627655441649474,1763.78326727323
0.62361071243549,1763.79326727323
0.619942020313946,1763.80326727323
0.616928468643861,1763.81326727323
0.614893107660616,1763.82326727323
0.613368414509504,1763.83326727323
0.613366231575144,1763.84326727323
0.614230883344338,1763.85326727323
0.614657801857578,1763.86326727323
0.613846181190943,1763.87326727323
0.609829376158779,1763.88326727323
0.600790850994977,1763.89326727323
0.586081704180209,1763.90326727323
0.564467908563843,1763.91326727323
0.536825419494218,1763.92326727323
0.506349246526317,1763.93326727323
0.475983398019146,1763.94326727323
0.448873694520279,1763.95326727323
0.427458981190957,1763.96326727323
0.413008385089493,1763.97326727323
0.405918977576218,1763.98326727323
0.404323675034447,1763.99326727323
0.407059124931716,1764.00326727323
0.41254438550957,1764.01326727323
0.418767831099868,1764.02326727323
0.424952171805953,1764.03326727323
0.430363875582227,1764.04326727323
0.434004849055851,1764.05326727323
0.435190918380119,1764.06326727323
0.433492273155521,1764.07326727323
0.428190568914581,1764.08326727323
0.420138271865826,1764.09326727323
0.408527056566125,1764.10326727323
0.394527591117756,1764.11326727323
0.377865621075172,1764.12326727323
0.359018603782412,1764.13326727323
0.339240848396517,1764.14326727323
0.319201595408938,1764.15326727323
0.298740136605582,1764.16326727323
0.278493390766239,1764.17326727323
0.259018304041236,1764.18326727323
0.239053524510488,1764.19326727323
0.218989419534497,1764.20326727323
0.199385916600632,1764.21326727323
0.179680858216566,1764.22326727323
0.160680650065324,1764.23326727323
0.142696318833517,1764.24326727323
0.125040168127946,1764.25326727323
0.108384274834392,1764.26326727323
0.091612282345727,1764.27326727323
0.07560824528878,1764.28326727323
0.0597267281763795,1764.29326727323
0.0444837302270247,1764.30326727323
0.0288756171404726,1764.31326727323
0.0132528310624466,1764.32326727323
-0.00176026357138772,1764.33326727323
-0.016589480558319,1764.34326727323
-0.0306543246956528,1764.35326727323
-0.0438588066966227,1764.36326727323
-0.0564604510535654,1764.37326727323
-0.068623397883635,1764.38326727323
-0.0806173294859782,1764.39326727323
-0.0933614576075023,1764.40326727323
-0.106079738518216,1764.41326727323
-0.118409266694841,1764.42326727323
-0.130513705752861,1764.43326727323
-0.141976380670469,1764.44326727323
-0.15317829438065,1764.45326727323
-0.163975723167816,1764.46326727323
-0.175240109374341,1764.47326727323
-0.186073152652091,1764.48326727323
-0.197085545241556,1764.49326727323
-0.20788522336102,1764.50326727323
-0.219216483550318,1764.51326727323
-0.230668396388599,1764.52326727323
-0.242530678732491,1764.53326727323
-0.254302600383077,1764.54326727323
-0.265894634766588,1764.55326727323
-0.27739470392589,1764.56326727323
-0.288653624460283,1764.57326727323
-0.299887915088679,1764.58326727323
-0.311206830206731,1764.59326727323
-0.322439067617321,1764.60326727323
-0.333596555266367,1764.61326727323
-0.344436376817687,1764.62326727323
-0.355259879856156,1764.63326727323
-0.366253418233479,1764.64326727323
-0.377251555894627,1764.65326727323
-0.388553850738282,1764.66326727323
-0.400401391513136,1764.67326727323
-0.412359416401717,1764.68326727323
-0.424811444005879,1764.69326727323
-0.43686816095027,1764.70326727323
-0.449575357150557,1764.71326727323
-0.461920632759965,1764.72326727323
-0.472133343912461,1764.73326727323
-0.476556045897348,1764.74326727323
-0.469142594652239,1764.75326727323
-0.439732887401567,1764.76326727323
-0.380035344230774,1764.77326727323
-0.286532359839377,1764.78326727323
-0.165724840751426,1764.79326727323
-0.0297125999750727,1764.80326727323
0.107997030363985,1764.81326727323
0.236645072663508,1764.82326727323
0.350189556318375,1764.83326727323
0.444685880621308,1764.84326727323
0.520631602450477,1764.85326727323
0.578616862215817,1764.86326727323
0.620426228700147,1764.87326727323
0.648812576636064,1764.88326727323
0.665884412022606,1764.89326727323
0.674515549781281,1764.90326727323
0.677153845708127,1764.91326727323
0.676006832267154,1764.92326727323
0.673610097056611,1764.93326727323
0.670428401405178,1764.94326727323
0.667252444757393,1764.95326727323
0.664664919923998,1764.96326727323
0.662325864648941,1764.97326727323
0.66112482815319,1764.98326727323
0.660830288409508,1764.99326727323
0.660760978542627,1765.00326727323
0.660697600385274,1765.01326727323
0.659537293004328,1765.02326727323
0.656062524640849,1765.03326727323
0.647838996289004,1765.04326727323
0.633678196521874,1765.05326727323
0.612836494281434,1765.06326727323
0.585272868086879,1765.07326727323
0.554190060162425,1765.08326727323
0.522944730485982,1765.09326727323
0.49540841379985,1765.10326727323
0.473722579854633,1765.11326727323
0.458897635107527,1765.12326727323
0.45107297616887,1765.13326727323
0.449175333940401,1765.14326727323
0.451713046028242,1765.15326727323
0.457156502912369,1765.16326727323
0.464168307087232,1765.17326727323
0.471787481052614,1765.18326727323
0.478903596153177,1765.19326727323
0.48386319785171,1765.20326727323
0.485617366472244,1765.21326727323
0.48345746606569,1765.22326727323
0.477116124830321,1765.23326727323
0.467329032141166,1765.24326727323
0.454099352926076,1765.25326727323
0.438407301001223,1765.26326727323
0.42161455970432,1765.27326727323
0.403831592681143,1765.28326727323
0.384809138734387,1765.29326727323
0.365389255092766,1765.30326727323
0.345050717130804,1765.31326727323
0.324196966292156,1765.32326727323
0.303053086776186,1765.33326727323
0.282154913707833,1765.34326727323
0.261339825736275,1765.35326727323
0.240256658267685,1765.36326727323
0.219531501252742,1765.37326727323
0.1991369090039,1765.38326727323
0.178822727748564,1765.39326727323
0.158731992771698,1765.40326727323
0.139165809172554,1765.41326727323
0.120652958137612,1765.42326727323
0.103552189917114,1765.43326727323
0.0874805656546025,1765.44326727323
0.0722650407380501,1765.45326727323
0.0578425622382765,1765.46326727323
0.0432304159397061,1765.47326727323
0.02934630573519,1765.48326727323
0.0157379398533609,1765.49326727323
0.00230730395930923,1765.50326727323
-0.0110948839701417,1765.51326727323
-0.0239905343048429,1765.52326727323
-0.0357879180344236,1765.53326727323
-0.0478658172948986,1765.54326727323
-0.0590904354250063,1765.55326727323
-0.0705158228929656,1765.56326727323
-0.0823217867630889,1765.57326727323
-0.0943005162480514,1765.58326727323
-0.10682100558668,1765.59326727323
-0.119071133457319,1765.60326727323
-0.131314992670715,1765.61326727323
-0.143679825524602,1765.62326727323
-0.155180915104061,1765.63326727323
-0.166484699603889,1765.64326727323
-0.177910138071435,1765.65326727323
-0.188941844299294,1765.66326727323
-0.199624333341291,1765.67326727323
-0.210253994562847,1765.68326727323
-0.220771101963046,1765.69326727323
-0.231795281389053,1765.70326727323
-0.243067955608155,1765.71326727323
-0.25398302428077,1765.72326727323
-0.265696072641764,1765.73326727323
-0.2772249806311,1765.74326727323
-0.289245829113739,1765.75326727323
-0.301301039808477,1765.76326727323
-0.313892685236569,1765.77326727323
-0.325679057885228,1765.78326727323
-0.33497288876853,1765.79326727323
-0.338145456213965,1765.80326727323
-0.328336241373346,1765.81326727323
-0.2967484178888,1765.82326727323
-0.236785237032472,1765.83326727323
-0.148302301307306,1765.84326727323
-0.0373143537875351,1765.85326727323
0.0845437191061758,1765.86326727323
0.206725341110803,1765.87326727323
0.320702547331176,1765.88326727323
0.420804671767418,1765.89326727323
0.504896382851592,1765.90326727323
0.572063953585873,1765.91326727323
0.623038988315342,1765.92326727323
0.659846646095022,1765.93326727323
0.684372044697103,1765.94326727323
0.699460573391528,1765.95326727323
0.707099481567531,1765.96326727323
0.710025296856077,1765.97326727323
0.709772435558098,1765.98326727323
0.707570812735125,1765.99326727323
0.704264631308133,1766.00326727323
0.700218008201471,1766.01326727323
0.696609057834333,1766.02326727323
0.692281020411596,1766.03326727323
0.688590468096625,1766.04326727323
0.685029721825862,1766.05326727323
0.680813433111669,1766.06326727323
0.674753899235708,1766.07326727323
0.664784372339051,1766.08326727323
0.649343479449419,1766.09326727323
0.626659716258613,1766.10326727323
0.597186512013302,1766.11326727323
0.562840476570052,1766.12326727323
0.52634325675162,1766.13326727323
0.492437355001801,1766.14326727323
0.463852382587465,1766.15326727323
0.442921565195722,1766.16326727323
0.430536763049504,1766.17326727323
0.425809069348361,1766.18326727323
0.426990915084643,1766.19326727323
0.433018939640127,1766.20326727323
0.44167316935035,1766.21326727323
0.45169231254834,1766.22326727323
0.461290397701892,1766.23326727323
0.468714670742314,1766.24326727323
0.472876879575148,1766.25326727323
0.473223573870294,1766.26326727323
0.469270290318762,1766.27326727323
0.461670067124255,1766.28326727323
0.451268022764022,1766.29326727323
0.438220533246864,1766.30326727323
0.42268332465955,1766.31326727323
0.405359778579218,1766.32326727323
0.386457731342238,1766.33326727323
0.366040826019425,1766.34326727323
0.344354911365111,1766.35326727323
0.322471325046001,1766.36326727323
0.30071629206872,1766.37326727323
0.280096666639655,1766.38326727323
0.260613519462413,1766.39326727323
0.241598268132517,1766.40326727323
0.222964243483829,1766.41326727323
0.204221816345191,1766.42326727323
0.18491185218626,1766.43326727323
0.165215460968355,1766.44326727323
0.144945278461672,1766.45326727323
0.124754362304037,1766.46326727323
0.105709808351377,1766.47326727323
0.0879056562390487,1766.48326727323
0.0712121587383244,1766.49326727323
0.0553499967125073,1766.50326727323
0.0408673389643822,1766.51326727323
0.0268128800167988,1766.52326727323
0.0130711782316363,1766.53326727323
0.000426198233157913,1766.54326727323
-0.0117782434146134,1766.55326727323
-0.0237341115960625,1766.56326727323
-0.0356015306943384,1766.57326727323
-0.047355109221796,1766.58326727323
-0.0595972094666081,1766.59326727323
-0.0722602532650322,1766.60326727323
-0.0846707841872941,1766.61326727323
-0.0970099923041118,1766.62326727323
-0.109512243856834,1766.63326727323
-0.121845983351882,1766.64326727323
-0.133726318266172,1766.65326727323
-0.145830960274126,1766.66326727323
-0.158153159659324,1766.67326727323
-0.16991418752094,1766.68326727323
-0.181520822270136,1766.69326727323
-0.192989784736984,1766.70326727323
-0.203740121767786,1766.71326727323
-0.214904805071316,1766.72326727323
-0.226316169459898,1766.73326727323
-0.238112370452179,1766.74326727323
-0.249868360796439,1766.75326727323
-0.261448897187154,1766.76326727323
-0.273109075576018,1766.77326727323
-0.284511868759272,1766.78326727323
-0.295870921040316,1766.79326727323
-0.306723663399105,1766.80326727323
-0.317659517128058,1766.81326727323
-0.328320875788246,1766.82326727323
-0.338692375726961,1766.83326727323
-0.349227927133936,1766.84326727323
-0.360290319520323,1766.85326727323
-0.372074714028777,1766.86326727323
-0.384538071180628,1766.87326727323
-0.397301791506874,1766.88326727323
-0.409014354756647,1766.89326727323
-0.41618221914482,1766.90326727323
-0.412491902954594,1766.91326727323
-0.388869529974271,1766.92326727323
-0.336171365641192,1766.93326727323
-0.251907243822259,1766.94326727323
-0.140857593776113,1766.95326727323
-0.0135479767458318,1766.96326727323
0.118656059659459,1766.97326727323
0.245908681458903,1766.98326727323
0.360924546882956,1766.99326727323
0.459117101544298,1767.00326727323
0.538591100713981,1767.01326727323
0.599313409090659,1767.02326727323
0.643186140846366,1767.03326727323
0.672557359349314,1767.04326727323
0.689958897598159,1767.05326727323
0.69908301067576,1767.06326727323
0.703229832910839,1767.07326727323
0.704380721713665,1767.08326727323
0.704019888584896,1767.09326727323
0.703533032819154,1767.10326727323
0.703616764741886,1767.11326727323
0.704806314682797,1767.12326727323
0.706713914331636,1767.13326727323
0.709281147923031,1767.14326727323
0.712439333255222,1767.15326727323
0.715549638678074,1767.16326727323
0.718110672539794,1767.17326727323
0.718906464356387,1767.18326727323
0.716426984868804,1767.19326727323
0.708365133827171,1767.20326727323
0.693533435901768,1767.21326727323
0.671614326972728,1767.22326727323
0.642985309197982,1767.23326727323
0.610726202859036,1767.24326727323
0.578635443247277,1767.25326727323
0.549878826495304,1767.26326727323
0.527088507016634,1767.27326727323
0.511388344427945,1767.28326727323
0.502192229159642,1767.29326727323
0.499007412173656,1767.30326727323
0.499781274967108,1767.31326727323
0.503408068792585,1767.32326727323
0.508303893997048,1767.33326727323
0.512814573209133,1767.34326727323
0.515478017099573,1767.35326727323
0.516222965603028,1767.36326727323
0.514359581537394,1767.37326727323
0.5089322055265,1767.38326727323
0.500660720935778,1767.39326727323
0.488869901820302,1767.40326727323
0.474155446033173,1767.41326727323
0.45739597120845,1767.42326727323
0.439312758510714,1767.43326727323
0.420312091050484,1767.44326727323
0.400155247330669,1767.45326727323
0.379396458867679,1767.46326727323
0.35804777755681,1767.47326727323
0.336451073938178,1767.48326727323
0.315034637514191,1767.49326727323
0.293294709400227,1767.50326727323
0.272204730853327,1767.51326727323
0.252050869789269,1767.52326727323
0.232124214740057,1767.53326727323
0.212764997236202,1767.54326727323
0.194111545520919,1767.55326727323
0.175967962262256,1767.56326727323
0.15819233277171,1767.57326727323
0.140976918279349,1767.58326727323
0.123948153266599,1767.59326727323
0.108028079527347,1767.60326727323
0.0926248365712155,1767.61326727323
0.0776188339262315,1767.62326727323
0.0633113227819873,1767.63326727323
0.0490624681032241,1767.64326727323
0.0351047166233743,1767.65326727323
0.0214393580024134,1767.66326727323
0.00808731586569849,1767.67326727323
-0.0051400423014061,1767.68326727323
-0.018746838642357,1767.69326727323
-0.0324523013500387,1767.70326727323
-0.0461439900551478,1767.71326727323
-0.0600965289439718,1767.72326727323
-0.0743433849588059,1767.73326727323
-0.0883591215470076,1767.74326727323
-0.101941993373142,1767.75326727323
-0.114130187674484,1767.76326727323
-0.126762063313267,1767.77326727323
-0.138809872516395,1767.78326727323
-0.151026875302303,1767.79326727323
-0.16367183127074,1767.80326727323
-0.17661364352012,1767.81326727323
-0.189522324554112,1767.82326727323
-0.202130793917363,1767.83326727323
-0.215046528169117,1767.84326727323
-0.227648130370013,1767.85326727323
-0.239634124772033,1767.86326727323
-0.250893126941366,1767.87326727323
-0.262306808192792,1767.88326727323
-0.273422328020035,1767.89326727323
-0.28425054991847,1767.90326727323
-0.294885766616575,1767.91326727323
-0.306374147344059,1767.92326727323
-0.318393173310852,1767.93326727323
-0.330639358033874,1767.94326727323
-0.343289721202219,1767.95326727323
-0.355829684973811,1767.96326727323
-0.368159033608631,1767.97326727323
-0.380494969646235,1767.98326727323
-0.393055039392611,1767.99326727323
-0.405533503585661,1768.00326727323
-0.417334391918616,1768.01326727323
-0.428502322215424,1768.02326727323
-0.438968691018597,1768.03326727323
-0.449117216988836,1768.04326727323
-0.459730136368951,1768.05326727323
-0.470943718827929,1768.06326727323
-0.483129956386223,1768.07326727323
-0.495003491108034,1768.08326727323
-0.507435317175626,1768.09326727323
-0.519781684311046,1768.10326727323
-0.5316959620731,1768.11326727323
-0.543813800844295,1768.12326727323
-0.555359481300612,1768.13326727323
-0.562665420878214,1768.14326727323
-0.561165099265952,1768.15326727323
-0.542121660717762,1768.16326727323
-0.498034854135688,1768.17326727323
-0.427153661880152,1768.18326727323
-0.332549484459362,1768.19326727323
-0.222726290685268,1768.20326727323
-0.108382896358741,1768.21326727323
0.00280127864045574,1768.22326727323
0.103674400697189,1768.23326727323
0.191857101844506,1768.24326727323
0.265138290941753,1768.25326727323
0.323333430615348,1768.26326727323
0.367723906122004,1768.27326727323
0.39929908075472,1768.28326727323
0.419595065087619,1768.29326727323
0.431258245842243,1768.30326727323
0.436496155193349,1768.31326727323
0.437004427968235,1768.32326727323
0.434770482493155,1768.33326727323
0.43148303175036,1768.34326727323
0.428570254501494,1768.35326727323
0.426808164567204,1768.36326727323
0.426201372795402,1768.37326727323
0.427221693801361,1768.38326727323
0.429586619871628,1768.39326727323
0.432870996595204,1768.40326727323
0.436413554378831,1768.41326727323
0.439816537878377,1768.42326727323
0.441301153005219,1768.43326727323
0.439734220438628,1768.44326727323
0.433690165731103,1768.45326727323
0.421557214006347,1768.46326727323
0.404039187086441,1768.47326727323
0.382718570160196,1768.48326727323
0.359475947527489,1768.49326727323
0.337484080309286,1768.50326727323
0.318539477047444,1768.51326727323
0.303377946222143,1768.52326727323
0.292692259811171,1768.53326727323
0.285095347482024,1768.54326727323
0.280446022614455,1768.55326727323
0.278179858730345,1768.56326727323
0.278862436158865,1768.57326727323
0.280506429431324,1768.58326727323
0.283225724203962,1768.59326727323
0.285103510061119,1768.60326727323
0.285195154732639,1768.61326727323
0.282816489516116,1768.62326727323
0.277430035569436,1768.63326727323
0.269622686116542,1768.64326727323
0.259313139359156,1768.65326727323
0.247408131085538,1768.66326727323
0.233501361666698,1768.67326727323
0.218423132584396,1768.68326727323
0.201950582311483,1768.69326727323
0.184324585006982,1768.70326727323
0.166262295807819,1768.71326727323
0.147923130196891,1768.72326727323
0.129189362687466,1768.73326727323
0.110888807436361,1768.74326727323
0.0926507582801991,1768.75326727323
0.0748960561346138,1768.76326727323
0.0570517244288502,1768.77326727323
0.0387571939316005,1768.78326727323
0.0202960124741323,1768.79326727323
0.00203804720214489,1768.80326727323
-0.015956152064549,1768.81326727323
-0.0338051965517725,1768.82326727323
-0.0507002146972756,1768.83326727323
-0.065946614688495,1768.84326727323
-0.0804534204811154,1768.85326727323
-0.0942989129394804,1768.86326727323
-0.107794040998219,1768.87326727323
-0.121069631932542,1768.88326727323
-0.134204216816335,1768.89326727323
-0.147153689424579,1768.90326727323
-0.160079768224179,1768.91326727323
-0.172680093559754,1768.92326727323
-0.184584074540052,1768.93326727323
-0.196036367336219,1768.94326727323
-0.207189913364041,1768.95326727323
-0.218425317612664,1768.96326727323
-0.229839993939661,1768.97326727323
-0.241767872018127,1768.98326727323
-0.25391123489857,1768.99326727323
-0.266285693717185,1769.00326727323
-0.278590527192962,1769.01326727323
-0.290472013206162,1769.02326727323
-0.302563701838673,1769.03326727323
-0.314381980368104,1769.04326727323
-0.326423188181291,1769.05326727323
-0.338883376270472,1769.06326727323
-0.351490453395646,1769.07326727323
-0.364270441869191,1769.08326727323
-0.376719622606422,1769.09326727323
-0.388808977717386,1769.10326727323
-0.400654408798522,1769.11326727323
-0.411941359827034,1769.12326727323
-0.423092797898613,1769.13326727323
-0.433552674473697,1769.14326727323
-0.443672896809506,1769.15326727323
-0.454485416776241,1769.16326727323
-0.466182447446523,1769.17326727323
-0.478854710595865,1769.18326727323
-0.491788400726558,1769.19326727323
-0.504082280886672,1769.20326727323
-0.514798770839879,1769.21326727323
-0.520200961434396,1769.22326727323
-0.515322400808047,1769.23326727323
-0.495351300249446,1769.24326727323
-0.457844231909701,1769.25326727323
-0.402816046228264,1769.26326727323
-0.334908807487924,1769.27326727323
-0.260189201677606,1769.28326727323
-0.18441512666375,1769.29326727323
-0.112641674626584,1769.30326727323
-0.047771473206043,1769.31326727323
0.00718931881904044,1769.32326727323
0.051208720929945,1769.33326727323
0.0845019461743828,1769.34326727323
0.108209891425315,1769.35326727323
0.123939350079601,1769.36326727323
0.133182437139494,1769.37326727323
0.137924073570909,1769.38326727323
0.139214898141972,1769.39326727323
0.13884032125577,1769.40326727323
0.137434137947753,1769.41326727323
0.135280403332939,1769.42326727323
0.133741735846713,1769.43326727323
0.132547724621432,1769.44326727323
0.131983287703696,1769.45326727323
0.132195837296955,1769.46326727323
0.132653739196632,1769.47326727323
0.132873072427228,1769.48326727323
0.132113052939843,1769.49326727323
0.129269522790527,1769.50326727323
0.122261987667138,1769.51326727323
0.111725598308671,1769.52326727323
0.0969883579745328,1769.53326727323
0.0791344199309078,1769.54326727323
0.0603470232976401,1769.55326727323
0.0423042646082858,1769.56326727323
0.0265618073932617,1769.57326727323
0.0149281802025642,1769.58326727323
0.00733554920067853,1769.59326727323
0.00327594094039123,1769.60326727323
0.00279747120993988,1769.61326727323
0.00405761440786124,1769.62326727323
0.0068904566866491,1769.63326727323
0.00924784328746771,1769.64326727323
0.0110988822684152,1769.65326727323
0.0118639909676732,1769.66326727323
0.010900267121546,1769.67326727323
0.00858618524821508,1769.68326727323
0.00453487893736302,1769.69326727323
-0.00187344700515313,1769.70326727323
-0.00988545327501423,1769.71326727323
-0.0198424223073491,1769.72326727323
-0.0311046567156511,1769.73326727323
-0.0424055641139236,1769.74326727323
-0.0545253847908753,1769.75326727323
-0.0668504275867518,1769.76326727323
-0.0800722469127191,1769.77326727323
-0.0937442883950183,1769.78326727323
-0.107884016800157,1769.79326727323
-0.122318671447242,1769.80326727323
-0.136925698461163,1769.81326727323
-0.151207993004656,1769.82326727323
-0.165552126024493,1769.83326727323
-0.179829331180868,1769.84326727323
-0.193915771899512,1769.85326727323
-0.207746782981536,1769.86326727323
-0.221063867784889,1769.87326727323
-0.233120492406021,1769.88326727323
-0.244877954312798,1769.89326727323
-0.256448374378775,1769.90326727323
-0.268480509109347,1769.91326727323
-0.280647143533972,1769.92326727323
-0.292642765473595,1769.93326727323
-0.304494162371796,1769.94326727323
-0.316805813342043,1769.95326727323
-0.329122852989672,1769.96326727323
-0.341510016049954,1769.97326727323
-0.353722800442402,1769.98326727323
-0.36608821365212,1769.99326727323
-0.377949516465193,1770.00326727323
-0.389914890017549,1770.01326727323
-0.401689319498494,1770.02326727323
-0.412282332049249,1770.03326727323
-0.422382957825099,1770.04326727323
-0.431152737202078,1770.05326727323
-0.439083265412637,1770.06326727323
-0.446098018772464,1770.07326727323
-0.452256372379012,1770.08326727323
-0.458605918139282,1770.09326727323
-0.464700727330172,1770.10326727323
-0.470929046153124,1770.11326727323
-0.477081049240804,1770.12326727323
-0.482932186310337,1770.13326727323
-0.489738459619248,1770.14326727323
-0.497136120993593,1770.15326727323
-0.506201798603683,1770.16326727323
-0.516389103467654,1770.17326727323
-0.527684186539322,1770.18326727323
-0.53932851700925,1770.19326727323
-0.550737165467458,1770.20326727323
-0.562075209894512,1770.21326727323
-0.57355195844684,1770.22326727323
-0.584814728322472,1770.23326727323
-0.595858395833151,1770.24326727323
-0.606359777018266,1770.25326727323
-0.616413582736242,1770.26326727323
-0.625633314194687,1770.27326727323
-0.634127154521022,1770.28326727323
-0.64299023895768,1770.29326727323
-0.652329931795623,1770.30326727323
-0.661596583435241,1770.31326727323
-0.671032548689519,1770.32326727323
-0.680493498246937,1770.33326727323
-0.689763826008387,1770.34326727323
-0.69874626885779,1770.35326727323
-0.70716205880222,1770.36326727323
-0.71485385743724,1770.37326727323
-0.719922914116375,1770.38326727323
-0.718625886752138,1770.39326727323
-0.705377745103164,1770.40326727323
-0.676069856762343,1770.41326727323
-0.630297735642242,1770.42326727323
-0.570153765064516,1770.43326727323
-0.50073916280924,1770.44326727323
-0.427838811610189,1770.45326727323
-0.355765597237425,1770.46326727323
-0.289210831573764,1770.47326727323
-0.229894775081453,1770.48326727323
-0.179509116551164,1770.49326727323
-0.138272241859255,1770.50326727323
-0.105557701525598,1770.51326727323
-0.0811614107024111,1770.52326727323
-0.0635217784264009,1770.53326727323
-0.0515336489298486,1770.54326727323
-0.0428258955003444,1770.55326727323
-0.0371263322058856,1770.56326727323
-0.032172631534277,1770.57326727323
-0.0273756222511958,1770.58326727323
-0.0223046541487438,1770.59326727323
-0.0165183584370206,1770.60326727323
-0.0102508427766526,1770.61326727323
-0.00424282624158723,1770.62326727323
0.00150436808334576,1770.63326727323
0.00744193265521983,1770.64326727323
0.0133355494153776,1770.65326727323
0.0191388028970939,1770.66326727323
0.0247484511031108,1770.67326727323
0.0284672189705064,1770.68326727323
0.0293612415784794,1770.69326727323
0.0256447532616901,1770.70326727323
0.0176724719866016,1770.71326727323
0.00616023213705975,1770.72326727323
-0.00696220683667937,1770.73326727323
-0.0197837714953024,1770.74326727323
-0.0315296672061996,1770.75326727323
-0.0405148028801854,1770.76326727323
-0.0462709604374701,1770.77326727323
-0.0489050391142768,1770.78326727323
-0.0489178262166391,1770.79326727323
-0.0466400147610963,1770.80326727323
-0.0441421896248658,1770.81326727323
-0.0409972863559858,1770.82326727323
-0.0386663515319156,1770.83326727323
-0.0371209569782755,1770.84326727323
-0.0368906717155884,1770.85326727323
-0.03785936947453,1770.86326727323
-0.0403920154111556,1770.87326727323
-0.0441778910166985,1770.88326727323
-0.0492129089621283,1770.89326727323
-0.0554210336468789,1770.90326727323
-0.063072216147082,1770.91326727323
-0.0719104199291308,1770.92326727323
-0.0814359389575928,1770.93326727323
-0.0918518656537352,1770.94326727323
-0.102472902455913,1770.95326727323
-0.113701160954926,1770.96326727323
-0.125482899527033,1770.97326727323
-0.137047836226133,1770.98326727323
-0.149307152927741,1770.99326727323
-0.161365469021079,1771.00326727323
-0.173283009942558,1771.01326727323
-0.184817001626925,1771.02326727323
-0.195640141183801,1771.03326727323
-0.206314943175248,1771.04326727323
-0.217025640881305,1771.05326727323
-0.227561305826082,1771.06326727323
-0.23865041121495,1771.07326727323
-0.249655183192831,1771.08326727323
-0.26040347244117,1771.09326727323
-0.271182378669355,1771.10326727323
-0.281744903262381,1771.11326727323
-0.291748621025713,1771.12326727323
-0.301043436797427,1771.13326727323
-0.310039861102484,1771.14326727323
-0.319373049879234,1771.15326727323
-0.328784739239841,1771.16326727323
-0.337604787145313,1771.17326727323
-0.346146904188298,1771.18326727323
-0.354337468255609,1771.19326727323
-0.362291525409463,1771.20326727323
-0.370375943973285,1771.21326727323
-0.378831309747842,1771.22326727323
-0.387095775245689,1771.23326727323
-0.395759792638079,1771.24326727323
-0.404225811260927,1771.25326727323
-0.412192730992045,1771.26326727323
-0.41976201519822,1771.27326727323
-0.427469614330218,1771.28326727323
-0.434631459709543,1771.29326727323
-0.441833245939232,1771.30326727323
-0.44877362960506,1771.31326727323
-0.45595608741796,1771.32326727323
-0.463489855498921,1771.33326727323
-0.47103673615283,1771.34326727323
-0.478827212587142,1771.35326727323
-0.486605994377937,1771.36326727323
-0.494661145743709,1771.37326727323
-0.502810712211293,1771.38326727323
-0.511020951173769,1771.39326727323
-0.519172704573975,1771.40326727323
-0.527535119962856,1771.41326727323
-0.535997881486823,1771.42326727323
-0.545039464449302,1771.43326727323
-0.553908796388828,1771.44326727323
-0.562651157658037,1771.45326727323
-0.57061838745278,1771.46326727323
-0.578965732023157,1771.47326727323
-0.587416394215976,1771.48326727323
-0.595644149854286,1771.49326727323
-0.60407993983729,1771.50326727323
-0.61228596935567,1771.51326727323
-0.619700940225189,1771.52326727323
-0.626805783364748,1771.53326727323
-0.634130397972444,1771.54326727323
-0.641180252147319,1771.55326727323
-0.647940571830026,1771.56326727323
-0.654678531992323,1771.57326727323
-0.661217958909954,1771.58326727323
-0.668023502482638,1771.59326727323
-0.675420544954081,1771.60326727323
-0.683213773935278,1771.61326727323
-0.690709731981678,1771.62326727323
-0.697120547468772,1771.63326727323
-0.700262731690815,1771.64326727323
-0.696177740275141,1771.65326727323
-0.680157710769071,1771.66326727323
-0.647583011636126,1771.67326727323
-0.598809754042083,1771.68326727323
-0.536141631710559,1771.69326727323
-0.465974118247681,1771.70326727323
-0.393142194116652,1771.71326727323
-0.322816236684613,1771.72326727323
-0.25796215101275,1771.73326727323
-0.201158099266612,1771.74326727323
-0.153073184103254,1771.75326727323
-0.113403273677375,1771.76326727323
-0.0814684687165731,1771.77326727323
-0.0563063020824879,1771.78326727323
-0.0372218337993496,1771.79326727323
-0.0233753697998588,1771.80326727323
-0.0132734537522745,1771.81326727323
-0.00564600815583386,1771.82326727323
0.000510446064408951,1771.83326727323
0.0064235864800853,1771.84326727323
0.0122940670368781,1771.85326727323
0.0178732629078754,1771.86326727323
0.0236424330410309,1771.87326727323
0.0298142299557226,1771.88326727323
0.0360142067988452,1771.89326727323
0.0428656732460843,1771.90326727323
0.049770929265333,1771.91326727323
0.0570542430270761,1771.92326727323
0.0627180221211309,1771.93326727323
0.0662944586778522,1771.94326727323
0.0668711528411957,1771.95326727323
0.0640594733631149,1771.96326727323
0.0581442537691225,1771.97326727323
0.0493729254781586,1771.98326727323
0.0406361067973298,1771.99326727323
0.0323257328516199,1772.00326727323
0.0258964612579392,1772.01326727323
0.0223348309290351,1772.02326727323
0.0212780990809008,1772.03326727323
0.0227854542629951,1772.04326727323
0.026730662268869,1772.05326727323
0.032829638639336,1772.06326727323
0.0394757922457734,1772.07326727323
0.0458915633242638,1772.08326727323
0.0519527435345611,1772.09326727323
0.0566344229272514,1772.10326727323
0.0598075896681793,1772.11326727323
0.0610936185265614,1772.12326727323
0.0607544473614351,1772.13326727323
0.0590007873831289,1772.14326727323
0.0558117106227983,1772.15326727323
0.050698845637372,1772.16326727323
0.0452409410921438,1772.17326727323
0.0386642128108302,1772.18326727323
0.0311351893625941,1772.19326727323
0.0226664345637829,1772.20326727323
0.0136514748150439,1772.21326727323
0.00391063853444277,1772.22326727323
-0.0059133603647457,1772.23326727323
-0.0162545539234621,1772.24326727323
-0.0268615912629032,1772.25326727323
-0.0377149383962933,1772.26326727323
-0.048590784812182,1772.27326727323
-0.05949642484739,1772.28326727323
-0.069908394279549,1772.29326727323
-0.0803245035671683,1772.30326727323
-0.090852670598543,1772.31326727323
-0.101788101767875,1772.32326727323
-0.113068977093391,1772.33326727323
-0.123844975173253,1772.34326727323
-0.134339925591634,1772.35326727323
-0.144229410371068,1772.36326727323
-0.153831293456318,1772.37326727323
-0.163458475810586,1772.38326727323
-0.173056430744229,1772.39326727323
-0.182921726229232,1772.40326727323
-0.192744486899575,1772.41326727323
-0.202581792014383,1772.42326727323
-0.21223193696926,1772.43326727323
-0.221391439658961,1772.44326727323
-0.229575599110349,1772.45326727323
-0.237132999145827,1772.46326727323
-0.244454209651949,1772.47326727323
-0.251841684681483,1772.48326727323
-0.260350590995954,1772.49326727323
-0.268410472727779,1772.50326727323
-0.276922475276502,1772.51326727323
-0.28518456736657,1772.52326727323
-0.293851701956625,1772.53326727323
-0.303122896355293,1772.54326727323
-0.312050303004753,1772.55326727323
-0.32135072834936,1772.56326727323
-0.329532965226829,1772.57326727323
-0.337368707548335,1772.58326727323
-0.344489767173218,1772.59326727323
-0.351613086987966,1772.60326727323
-0.359403704415,1772.61326727323
-0.366982666929615,1772.62326727323
-0.374888341875484,1772.63326727323
-0.382426847829993,1772.64326727323
-0.38998632004865,1772.65326727323
-0.397145459162535,1772.66326727323
-0.404384728403301,1772.67326727323
-0.412236652899119,1772.68326727323
-0.419506343543188,1772.69326727323
-0.424549575017688,1772.70326727323
-0.422696090971904,1772.71326727323
-0.409148478462645,1772.72326727323
-0.380861996230527,1772.73326727323
-0.337260896881566,1772.74326727323
-0.280059282322038,1772.75326727323
-0.213786849724942,1772.76326727323
-0.144324352153586,1772.77326727323
-0.0756253650345133,1772.78326727323
-0.0127747239407052,1772.79326727323
0.0428548024216815,1772.80326727323
0.0891982536748838,1772.81326727323
0.126813792217644,1772.82326727323
0.156410960371146,1772.83326727323
0.178978389349811,1772.84326727323
0.195469916340691,1772.85326727323
0.207494771450023,1772.86326727323
0.21649965290438,1772.87326727323
0.22373000040509,1772.88326727323
0.230381354901871,1772.89326727323
0.237738099796392,1772.90326727323
0.245273177863582,1772.91326727323
0.252474168992147,1772.92326727323
0.259785898712918,1772.93326727323
0.267082046174936,1772.94326727323
0.273752816549098,1772.95326727323
0.280375627988158,1772.96326727323
0.286542431179607,1772.97326727323
0.2917499031278,1772.98326727323
0.29462084976388,1772.99326727323
0.29399329721054,1773.00326727323
0.28891212729287,1773.01326727323
0.27933828621654,1773.02326727323
0.266580520788146,1773.03326727323
0.252993205692463,1773.04326727323
0.239830053874866,1773.05326727323
0.228680016564976,1773.06326727323
0.220432849969457,1773.07326727323
0.21573638250306,1773.08326727323
0.213427997602701,1773.09326727323
0.212932939829045,1773.10326727323
0.214157785403034,1773.11326727323
0.216715721760187,1773.12326727323
0.219986693843402,1773.13326727323
0.222931432739822,1773.14326727323
0.224737799920358,1773.15326727323
0.224505529663929,1773.16326727323
0.222716083708429,1773.17326727323
0.219070819318399,1773.18326727323
0.213134720621271,1773.19326727323
0.205810868363367,1773.20326727323
0.197884925647102,1773.21326727323
0.188640185658598,1773.22326727323
0.179568532047611,1773.23326727323
0.169362295596733,1773.24326727323
0.158223577582077,1773.25326727323
0.14645999526793,1773.26326727323
0.133327611317231,1773.27326727323
0.119849520950729,1773.28326727323
0.106049125010467,1773.29326727323
0.09219107547651,1773.30326727323
0.0783007736600894,1773.31326727323
0.0643323584201898,1773.32326727323
0.0509050200256901,1773.33326727323
0.0378590345760734,1773.34326727323
0.024911235751328,1773.35326727323
0.011734014074311,1773.36326727323
-0.00084593530603418,1773.37326727323
-0.0132322722273511,1773.38326727323
-0.0250803667041412,1773.39326727323
-0.0363126172599618,1773.40326727323
-0.0475721242268264,1773.41326727323
-0.0585556490011203,1773.42326727323
-0.0693841208404809,1773.43326727323
-0.0810507518441041,1773.44326727323
-0.0930197209323816,1773.45326727323
-0.104901844891668,1773.46326727323
-0.117290022747763,1773.47326727323
-0.129379782459214,1773.48326727323
-0.140755582286664,1773.49326727323
-0.151925676547446,1773.50326727323
-0.16313714531618,1773.51326727323
-0.174091846824275,1773.52326727323
-0.185170425419684,1773.53326727323
-0.196445133342595,1773.54326727323
-0.207178390822562,1773.55326727323
-0.217223214565385,1773.56326727323
-0.226808021715837,1773.57326727323
-0.237222908188058,1773.58326727323
-0.247961496538479,1773.59326727323
-0.258434572629315,1773.60326727323
-0.269420101841229,1773.61326727323
-0.279939506911598,1773.62326727323
-0.290458520354165,1773.63326727323
-0.300624933470854,1773.64326727323
-0.310180871300481,1773.65326727323
-0.320027701454325,1773.66326727323
-0.329474858608547,1773.67326727323
-0.33937766777925,1773.68326727323
-0.348847870128103,1773.69326727323
-0.358434316154215,1773.70326727323
-0.368165704413899,1773.71326727323
-0.377836611706813,1773.72326727323
-0.38795054523239,1773.73326727323
-0.397660965817493,1773.74326727323
-0.407515214828625,1773.75326727323
-0.417009794023653,1773.76326727323
-0.426431723571318,1773.77326727323
-0.435843361585975,1773.78326727323
-0.445300640526389,1773.79326727323
-0.454650315010488,1773.80326727323
-0.464318430601011,1773.81326727323
-0.474168803715508,1773.82326727323
-0.484986083131469,1773.83326727323
-0.495926077485806,1773.84326727323
-0.506535907706566,1773.85326727323
-0.517400434324906,1773.86326727323
-0.527738907403758,1773.87326727323
-0.536579842219936,1773.88326727323
-0.541360898895121,1773.89326727323
-0.537659417369385,1773.90326727323
-0.519212995106982,1773.91326727323
-0.482605764941029,1773.92326727323
-0.427298108340184,1773.93326727323
-0.35693747856342,1773.94326727323
-0.277242642927994,1773.95326727323
-0.193770107418287,1773.96326727323
-0.11223450925271,1773.97326727323
-0.0362964328602942,1773.98326727323
0.0311811470015958,1773.99326727323
0.0884832581914703,1774.00326727323
0.135158281838864,1774.01326727323
0.171860904735491,1774.02326727323
0.198938287481022,1774.03326727323
0.218257103140873,1774.04326727323
0.231497753764397,1774.05326727323
0.240634998917204,1774.06326727323
0.246590538819001,1774.07326727323
0.250515522442471,1774.08326727323
0.254043043361545,1774.09326727323
0.256716881235299,1774.10326727323
0.259462218630303,1774.11326727323
0.262157549698069,1774.12326727323
0.26532563463641,1774.13326727323
0.269623530010319,1774.14326727323
0.274281415231521,1774.15326727323
0.278947976392052,1774.16326727323
0.28305782932321,1774.17326727323
0.286245862960303,1774.18326727323
0.286523148304588,1774.19326727323
0.283631458235066,1774.20326727323
0.276493969355355,1774.21326727323
0.265601007576581,1774.22326727323
0.252205795121741,1774.23326727323
0.23699498347088,1774.24326727323
0.22233170476623,1774.25326727323
0.20928448482298,1774.26326727323
0.198668436136213,1774.27326727323
0.191296467797738,1774.28326727323
0.187135667722134,1774.29326727323
0.185830959115787,1774.30326727323
0.1862071821003,1774.31326727323
0.187326575590805,1774.32326727323
0.188961072055796,1774.33326727323
0.190082633632478,1774.34326727323
0.190575329729956,1774.35326727323
0.189948265656699,1774.36326727323
0.187611402755811,1774.37326727323
0.183201447070965,1774.38326727323
0.176448098543561,1774.39326727323
0.167498562098742,1774.40326727323
0.157520867767996,1774.41326727323
0.145967745304144,1774.42326727323
0.134266076725289,1774.43326727323
0.121800751507644,1774.44326727323
0.10929612594087,1774.45326727323
0.0962274898289719,1774.46326727323
0.082464767607656,1774.47326727323
0.0676408069271101,1774.48326727323
0.051602046443281,1774.49326727323
0.0357966915651027,1774.50326727323
0.0197650264952694,1774.51326727323
0.00439072745147602,1774.52326727323
-0.0102688669971294,1774.53326727323
-0.0248354448556418,1774.54326727323
-0.0391047819461326,1774.55326727323
-0.0533483241663358,1774.56326727323
-0.067667501930975,1774.57326727323
-0.081541081658094,1774.58326727323
-0.0947286416379041,1774.59326727323
-0.107254950615062,1774.60326727323
-0.119677848324035,1774.61326727323
-0.131560691476729,1774.62326727323
-0.143452889012698,1774.63326727323
-0.155174300493049,1774.64326727323
-0.166861034202055,1774.65326727323
-0.178346841017651,1774.66326727323
-0.189763614398248,1774.67326727323
-0.201148122168699,1774.68326727323
-0.212859073251671,1774.69326727323
-0.224235741639455,1774.70326727323
-0.235387730353171,1774.71326727323
-0.246202859234182,1774.72326727323
-0.256553143033987,1774.73326727323
-0.266095264079226,1774.74326727323
-0.274877903074077,1774.75326727323
-0.28425109136283,1774.76326727323
-0.294022090067326,1774.77326727323
-0.304098953291742,1774.78326727323
-0.314671426434337,1774.79326727323
-0.325568990676869,1774.80326727323
-0.336412454742572,1774.81326727323
-0.347651796349584,1774.82326727323
-0.358631152606558,1774.83326727323
-0.369088648394771,1774.84326727323
-0.379172596588861,1774.85326727323
-0.388685498694059,1774.86326727323
-0.397725446026744,1774.87326727323
-0.406390180437716,1774.88326727323
-0.415299458167829,1774.89326727323
-0.424786308597494,1774.90326727323
-0.435227324617771,1774.91326727323
-0.445595094741602,1774.92326727323
-0.45652601804987,1774.93326727323
-0.467925394003402,1774.94326727323
-0.478739378939023,1774.95326727323
-0.489662254346887,1774.96326727323
-0.499857527203799,1774.97326727323
-0.509862878938592,1774.98326727323
-0.519307076031323,1774.99326727323
-0.528771160384849,1775.00326727323
-0.537443671485316,1775.01326727323
-0.54584526221216,1775.02326727323
-0.554295372927912,1775.03326727323
-0.562010434097915,1775.04326727323
-0.569797421992637,1775.05326727323
-0.577609217317256,1775.06326727323
-0.585699535795386,1775.07326727323
-0.59398305012288,1775.08326727323
-0.602443556624782,1775.09326727323
-0.61094501104457,1775.10326727323
-0.618040164323551,1775.11326727323
-0.6204220370567,1775.12326727323
-0.613263944161993,1775.13326727323
-0.58883041359694,1775.14326727323
-0.543327961565567,1775.15326727323
-0.478452241789987,1775.16326727323
-0.399170480175197,1775.17326727323
-0.31211417284314,1775.18326727323
-0.223040566161313,1775.19326727323
-0.136962440516435,1775.20326727323
-0.0578069881845155,1775.21326727323
0.0125418367760585,1775.22326727323
0.0727686737195914,1775.23326727323
0.122273042139251,1775.24326727323
0.161614153256508,1775.25326727323
0.19085660605892,1775.26326727323
0.211536153179157,1775.27326727323
0.223981350891049,1775.28326727323
0.230237074330055,1775.29326727323
0.232310195390961,1775.30326727323
0.231793936120933,1775.31326727323
0.230741080132558,1775.32326727323
0.229636921392489,1775.33326727323
0.228576796560189,1775.34326727323
0.228317316137929,1775.35326727323
0.227946422556514,1775.36326727323
0.228336481378995,1775.37326727323
0.229603229647352,1775.38326727323
0.231200699584015,1775.39326727323
0.232410992522167,1775.40326727323
0.233166905086928,1775.41326727323
0.231706154847396,1775.42326727323
0.226879957954091,1775.43326727323
0.217240020187034,1775.44326727323
0.202817723333214,1775.45326727323
0.185216177748495,1775.46326727323
0.167376254101836,1775.47326727323
0.150892288076722,1775.48326727323
0.138495802969104,1775.49326727323
0.130344401590544,1775.50326727323
0.126231496126677,1775.51326727323
0.125541979734979,1775.52326727323
0.12751105042934,1775.53326727323
0.131156389650431,1775.54326727323
0.136157791165983,1775.55326727323
0.142027194140666,1775.56326727323
0.147146216435215,1775.57326727323
0.151108237885602,1775.58326727323
0.154023946482995,1775.59326727323
0.153947974480625,1775.60326727323
0.151254920034694,1775.61326727323
0.14588334428329,1775.62326727323
0.138066188055959,1775.63326727323
0.128321207320415,1775.64326727323
0.116884406763472,1775.65326727323
0.104639661404224,1775.66326727323
0.0914657680863529,1775.67326727323
0.0781504782039657,1775.68326727323
0.0640561195865605,1775.69326727323
0.0498815917426111,1775.70326727323
0.0355023295641039,1775.71326727323
0.0211299169260567,1775.72326727323
0.00632879814937584,1775.73326727323
-0.00791231853265776,1775.74326727323
-0.0224016849773512,1775.75326727323
-0.0363915797577634,1775.76326727323
-0.0504161987990221,1775.77326727323
-0.0644719529205046,1775.78326727323
-0.078562649856559,1775.79326727323
-0.0923215383128904,1775.80326727323
-0.105764442759818,1775.81326727323
-0.119324447655546,1775.82326727323
-0.131829780586197,1775.83326727323
-0.144382473882688,1775.84326727323
-0.156783284675999,1775.85326727323
-0.168449914088338,1775.86326727323
-0.179837965645491,1775.87326727323
-0.19032616406429,1775.88326727323
-0.200445656569809,1775.89326727323
-0.209675618179262,1775.90326727323
-0.218976591688973,1775.91326727323
-0.228210613641128,1775.92326727323
-0.237463080715498,1775.93326727323
-0.246996876149077,1775.94326727323
-0.25634775500616,1775.95326727323
-0.266032002042018,1775.96326727323
-0.275756678779485,1775.97326727323
-0.285692079796966,1775.98326727323
-0.295404877108063,1775.99326727323
-0.304973438673495,1776.00326727323
-0.314376177827402,1776.01326727323
-0.323869435907859,1776.02326727323
-0.333708603623441,1776.03326727323
-0.343395281693292,1776.04326727323
-0.353054414068811,1776.05326727323
-0.36229528534664,1776.06326727323
-0.371722021527676,1776.07326727323
-0.381082090171124,1776.08326727323
-0.390569599270797,1776.09326727323
-0.400086285597968,1776.10326727323
-0.409224682854068,1776.11326727323
-0.41819659937388,1776.12326727323
-0.426802403450929,1776.13326727323
-0.435389768819866,1776.14326727323
-0.443672350202948,1776.15326727323
-0.451171494799495,1776.16326727323
-0.458628006133392,1776.17326727323
-0.465600160274646,1776.18326727323
-0.473499280411921,1776.19326727323
-0.48185510239196,1776.20326727323
-0.491468319504063,1776.21326727323
-0.501856697509193,1776.22326727323
-0.512114541844746,1776.23326727323
-0.520650814843057,1776.24326727323
-0.523072182143824,1776.25326727323
-0.51322242088533,1776.26326727323
-0.484721230550292,1776.27326727323
-0.434871268722377,1776.28326727323
-0.363628799006252,1776.29326727323
-0.276714717729558,1776.30326727323
-0.180249567026185,1776.31326727323
-0.0807929610661956,1776.32326727323
0.016000284050823,1776.33326727323
0.104762390749998,1776.34326727323
0.183182067199068,1776.35326727323
0.248338718617587,1776.36326727323
0.299762845271804,1776.37326727323
0.337901078998998,1776.38326727323
0.364069159774282,1776.39326727323
0.380631756230435,1776.40326727323
0.38921483453638,1776.41326727323
0.392390181623052,1776.42326727323
0.39243636635373,1776.43326727323
0.39099206004938,1776.44326727323
0.389433834651381,1776.45326727323
0.387788367411191,1776.46326727323
0.386326004995173,1776.47326727323
0.384469623121666,1776.48326727323
0.383406865640136,1776.49326727323
0.383042790273755,1776.50326727323
0.383609196900508,1776.51326727323
0.384021413871592,1776.52326727323
0.383503873014698,1776.53326727323
0.381757931585172,1776.54326727323
0.376248697008622,1776.55326727323
0.366545821379183,1776.56326727323
0.352262981758013,1776.57326727323
0.333990466319234,1776.58326727323
0.313065375094644,1776.59326727323
0.292306002076722,1776.60326727323
0.274451996719269,1776.61326727323
0.260796086927149,1776.62326727323
0.252489200410738,1776.63326727323
0.249371623526774,1776.64326727323
0.250037539739027,1776.65326727323
0.253644585784274,1776.66326727323
0.258595838229029,1776.67326727323
0.264072191958654,1776.68326727323
0.26881947256617,1776.69326727323
0.273054736555653,1776.70326727323
0.275937322038006,1776.71326727323
0.27630638293717,1776.72326727323
0.273885278173381,1776.73326727323
0.268646366020055,1776.74326727323
0.261100186762242,1776.75326727323
0.25053213220634,1776.76326727323
0.238082228389327,1776.77326727323
0.224194100421953,1776.78326727323
0.209012018919151,1776.79326727323
0.193691476922688,1776.80326727323
0.177515292213195,1776.81326727323
0.161464052149566,1776.82326727323
0.144743653435795,1776.83326727323
0.127080253106861,1776.84326727323
0.109229623039816,1776.85326727323
0.0915090693862279,1776.86326727323
0.0741052576251951,1776.87326727323
0.0564463840501226,1776.88326727323
0.0392512062409993,1776.89326727323
0.022463181419364,1776.90326727323
0.00659977097430514,1776.91326727323
-0.00828997957078455,1776.92326727323
-0.0223573724868045,1776.93326727323
-0.0362857449365546,1776.94326727323
-0.0507394424376709,1776.95326727323
-0.0647887662344704,1776.96326727323
-0.0786853224736673,1776.97326727323
-0.0918016087219799,1776.98326727323
-0.104822456617021,1776.99326727323
-0.117196798641222,1777.00326727323
-0.128982747211512,1777.01326727323
-0.140803229534291,1777.02326727323
-0.152586529035316,1777.03326727323
-0.163862479922501,1777.04326727323
-0.17597882375688,1777.05326727323
-0.187675468946271,1777.06326727323
-0.199148416912921,1777.07326727323
-0.210101947786636,1777.08326727323
-0.220810740872253,1777.09326727323
-0.231548516115047,1777.10326727323
-0.242140777096903,1777.11326727323
-0.252262941257746,1777.12326727323
-0.262289692629762,1777.13326727323
-0.272161863611197,1777.14326727323
-0.281812878206688,1777.15326727323
-0.291666916210252,1777.16326727323
-0.302001345772304,1777.17326727323
-0.312935006840341,1777.18326727323
-0.323922263045322,1777.19326727323
-0.334715060627377,1777.20326727323
-0.344799355021163,1777.21326727323
-0.354616030127154,1777.22326727323
-0.364848846370441,1777.23326727323
-0.375141799044955,1777.24326727323
-0.385615204204692,1777.25326727323
-0.3957022695915,1777.26326727323
-0.405073147540323,1777.27326727323
-0.414637412207979,1777.28326727323
-0.423855544873219,1777.29326727323
-0.432604209683267,1777.30326727323
-0.441347392232475,1777.31326727323
-0.449450047024586,1777.32326727323
-0.45722294531098,1777.33326727323
-0.465132009130961,1777.34326727323
-0.472851309867128,1777.35326727323
-0.481370585565451,1777.36326727323
-0.490267654886383,1777.37326727323
-0.499863103585148,1777.38326727323
-0.510011679828096,1777.39326727323
-0.519990296204685,1777.40326727323
-0.527177888148551,1777.41326727323
-0.527604120960626,1777.42326727323
-0.513562017823055,1777.43326727323
-0.477907572345444,1777.44326727323
-0.415835943448275,1777.45326727323
-0.330003218134595,1777.46326727323
-0.226365125725369,1777.47326727323
-0.112960599140662,1777.48326727323
0.00208394740077702,1777.49326727323
0.112804490871973,1777.50326727323
0.214344862102144,1777.51326727323
0.303322662541788,1777.52326727323
0.377940384859464,1777.53326727323
0.43583981312576,1777.54326727323
0.477589861537448,1777.55326727323
0.504889674932109,1777.56326727323
0.519400451481858,1777.57326727323
0.524829778894519,1777.58326727323
0.524441623724659,1777.59326727323
0.520375232282007,1777.60326727323
0.515175873646843,1777.61326727323
0.509471707579091,1777.62326727323
0.503819814672452,1777.63326727323
0.498494898532801,1777.64326727323
0.493566842474954,1777.65326727323
0.489036284723625,1777.66326727323
0.486034421226783,1777.67326727323
0.484226595285885,1777.68326727323
0.48360837796775,1777.69326727323
0.483014704050116,1777.70326727323
0.481293760745013,1777.71326727323
0.475923782510809,1777.72326727323
0.465493077924716,1777.73326727323
0.44970889708069,1777.74326727323
0.429809821044052,1777.75326727323
0.407312220975672,1777.76326727323
0.385347076946586,1777.77326727323
0.365860983552357,1777.78326727323
0.350945125897581,1777.79326727323
0.340779124954222,1777.80326727323
0.335345850225055,1777.81326727323
0.334110952499911,1777.82326727323
0.335738322097913,1777.83326727323
0.340729662772352,1777.84326727323
0.347910396694399,1777.85326727323
0.35589613712485,1777.86326727323
0.363298781783103,1777.87326727323
0.368794983132074,1777.88326727323
0.371485190054846,1777.89326727323
0.371147617990193,1777.90326727323
0.367229401600658,1777.91326727323
0.359672286322126,1777.92326727323
0.349491769339186,1777.93326727323
0.337339412439191,1777.94326727323
0.32327214204409,1777.95326727323
0.307699561439803,1777.96326727323
0.291492271113912,1777.97326727323
0.274558068033,1777.98326727323
0.257163786245311,1777.99326727323
0.240130111451109,1778.00326727323
0.222892080745459,1778.01326727323
0.205758685653928,1778.02326727323
0.187580069064588,1778.03326727323
0.169382997329488,1778.04326727323
0.150781775593705,1778.05326727323
0.131519734744438,1778.06326727323
0.112373137617956,1778.07326727323
0.093724710026982,1778.08326727323
0.0761815579428039,1778.09326727323
0.0597503268806658,1778.10326727323
0.0446244985059765,1778.11326727323
0.0306812812916971,1778.12326727323
0.0170931064688852,1778.13326727323
0.00379793400451456,1778.14326727323
-0.0093977653481666,1778.15326727323
-0.022529488096435,1778.16326727323
-0.0350280695050374,1778.17326727323
-0.047376163492312,1778.18326727323
-0.0590965559445011,1778.19326727323
-0.0703243293919677,1778.20326727323
-0.0819325164935076,1778.21326727323
-0.0925270124599343,1778.22326727323
-0.102420875855297,1778.23326727323
-0.112817093732848,1778.24326727323
-0.123181555645173,1778.25326727323
-0.133725243224257,1778.26326727323
-0.144161880720684,1778.27326727323
-0.15467920726597,1778.28326727323
-0.165353344225698,1778.29326727323
-0.175855267090957,1778.30326727323
-0.186191665915889,1778.31326727323
-0.196970091106915,1778.32326727323
-0.207265397659371,1778.33326727323
-0.217194529236623,1778.34326727323
-0.227796264944892,1778.35326727323
-0.238315598404101,1778.36326727323
-0.248841633769724,1778.37326727323
-0.259050251368139,1778.38326727323
-0.269468930102126,1778.39326727323
-0.28032475116863,1778.40326727323
-0.291240755394953,1778.41326727323
-0.302651745722799,1778.42326727323
-0.314009219336444,1778.43326727323
-0.324649573427327,1778.44326727323
-0.331993947488582,1778.45326727323
-0.331642856581919,1778.46326727323
-0.316698453907106,1778.47326727323
-0.279667025455995,1778.48326727323
-0.217873599950997,1778.49326727323
-0.133994390019251,1778.50326727323
-0.0348904728796799,1778.51326727323
0.0716136677740556,1778.52326727323
0.178887926512055,1778.53326727323
0.280849763316492,1778.54326727323
0.371840533460037,1778.55326727323
0.448695063835226,1778.56326727323
0.509541051923081,1778.57326727323
0.553840353245476,1778.58326727323
0.582092023930115,1778.59326727323
0.597158934410146,1778.60326727323
0.6022477844928,1778.61326727323
0.600003651714833,1778.62326727323
0.593726303036518,1778.63326727323
0.584786243856139,1778.64326727323
0.574967947842818,1778.65326727323
0.565743906067384,1778.66326727323
0.55729808157939,1778.67326727323
0.54967584500806,1778.68326727323
0.542700345334457,1778.69326727323
0.536629882616167,1778.70326727323
0.530843065841815,1778.71326727323
0.525075645404431,1778.72326727323
0.519019573082389,1778.73326727323
0.51161348128023,1778.74326727323
0.501710028508846,1778.75326727323
0.48689875114489,1778.76326727323
0.46718907046257,1778.77326727323
0.443378782923927,1778.78326727323
0.417028200584204,1778.79326727323
0.39136110616145,1778.80326727323
0.369324150446219,1778.81326727323
0.352692048501736,1778.82326727323
0.342172294176202,1778.83326727323
0.337155359337694,1778.84326727323
0.336762731446446,1778.85326727323
0.340160333821408,1778.86326727323
0.346072577288369,1778.87326727323
0.352720999335848,1778.88326727323
0.358403668319199,1778.89326727323
0.362902204989245,1778.90326727323
0.365423774750653,1778.91326727323
0.366120530220215,1778.92326727323
0.363956674572122,1778.93326727323
0.358609725698372,1778.94326727323
0.350489882407366,1778.95326727323
0.339284166213457,1778.96326727323
0.326108510648896,1778.97326727323
0.310439243595197,1778.98326727323
0.294000915817553,1778.99326727323
0.276145612604235,1779.00326727323
0.257822120042831,1779.01326727323
0.239287677758734,1779.02326727323
0.219845195363487,1779.03326727323
0.201113816318826,1779.04326727323
0.181940544317832,1779.05326727323
0.163088841649535,1779.06326727323
0.144323007702888,1779.07326727323
0.125819631180753,1779.08326727323
0.107907365322514,1779.09326727323
0.0901767236374814,1779.10326727323
0.0737995537675446,1779.11326727323
0.0577418610826121,1779.12326727323
0.0428095373955867,1779.13326727323
0.0278815811150131,1779.14326727323
0.0128982809205109,1779.15326727323
-0.00209991820446714,1779.16326727323
-0.016581413424657,1779.17326727323
-0.0300285467903879,1779.18326727323
-0.0435661261255546,1779.19326727323
-0.0566144446911228,1779.20326727323
-0.0696974763855807,1779.21326727323
-0.0826607632960995,1779.22326727323
-0.0953500634581383,1779.23326727323
-0.107395966187869,1779.24326727323
-0.11883803105085,1779.25326727323
-0.129769326749726,1779.26326727323
-0.140564241550226,1779.27326727323
-0.151196802118252,1779.28326727323
-0.162082853962052,1779.29326727323
-0.173453184878972,1779.30326727323
-0.185105505492827,1779.31326727323
-0.197728147048226,1779.32326727323
-0.209840821136463,1779.33326727323
-0.221247463745533,1779.34326727323
-0.232501097139357,1779.35326727323
-0.243398719237235,1779.36326727323
-0.254498019138653,1779.37326727323
-0.265288690615228,1779.38326727323
-0.275773377235255,1779.39326727323
-0.286189947956359,1779.40326727323
-0.296541744477537,1779.41326727323
-0.306035302420961,1779.42326727323
-0.315869267143639,1779.43326727323
-0.324724333375337,1779.44326727323
-0.330216301390322,1779.45326727323
-0.336551755789239,1779.46326727323
-0.345930292879481,1779.47326727323
-0.358575884231068,1779.48326727323
-0.371856789413773,1779.49326727323
-0.383176129122239,1779.50326727323
-0.386787463953883,1779.51326727323
-0.374417113190397,1779.52326727323
-0.341804932512329,1779.53326727323
-0.286704423510694,1779.54326727323
-0.211107120281524,1779.55326727323
-0.117820493417679,1779.56326727323
-0.0130574770879444,1779.57326727323
0.0975078975391436,1779.58326727323
0.208958432543808,1779.59326727323
0.31303325646874,1779.60326727323
0.402071405979733,1779.61326727323
0.472005819954453,1779.62326727323
0.524036644106774,1779.63326727323
0.559719921932313,1779.64326727323
0.583206169539401,1779.65326727323
0.599825875795685,1779.66326727323
0.608693800811195,1779.67326727323
0.610316306215841,1779.68326727323
0.605361888002346,1779.69326727323
0.597925890482102,1779.70326727323
0.589932464965627,1779.71326727323
0.583421409043019,1779.72326727323
0.58189049456416,1779.73326727323
0.58217246912047,1779.74326727323
0.581846176729039,1779.75326727323
0.579784915537709,1779.76326727323
0.577640648233269,1779.77326727323
0.575445100964247,1779.78326727323
0.573153790087726,1779.79326727323
0.573234212736346,1779.80326727323
0.569837115579051,1779.81326727323
0.559056245800545,1779.82326727323
0.540056660256412,1779.83326727323
0.514431410758637,1779.84326727323
0.486662082920423,1779.85326727323
0.460566316196586,1779.86326727323
0.441124298234876,1779.87326727323
0.426865756634467,1779.88326727323
0.414958476712379,1779.89326727323
0.404943137664535,1779.90326727323
0.397795656813823,1779.91326727323
0.393479394307637,1779.92326727323
0.393230584831408,1779.93326727323
0.39789936447846,1779.94326727323
0.403702677516463,1779.95326727323
0.406926976042074,1779.96326727323
0.406604516712731,1779.97326727323
0.403360113169528,1779.98326727323
0.398714734470453,1779.99326727323
0.392327831753757,1780.00326727323
0.387636591831173,1780.01326727323
0.381155478406835,1780.02326727323
0.369707581285942,1780.03326727323
0.353762900516152,1780.04326727323
0.335073359087078,1780.05326727323
0.314983693003852,1780.06326727323
0.295661190847886,1780.07326727323
0.28034274571729,1780.08326727323
0.265349603951193,1780.09326727323
0.247776665792939,1780.10326727323
0.227105546700252,1780.11326727323
0.205422926878782,1780.12326727323
0.183978599758299,1780.13326727323
0.164187247374016,1780.14326727323
0.149161703620758,1780.15326727323
0.136150605412925,1780.16326727323
0.121979175935057,1780.17326727323
0.105726055479249,1780.18326727323
0.0883628006751519,1780.19326727323
0.0707114850583229,1780.20326727323
0.0538543348281545,1780.21326727323
0.0417733210349342,1780.22326727323
0.0311187118739943,1780.23326727323
0.0191765502849461,1780.24326727323
0.00554531878929172,1780.25326727323
-0.00917617516214825,1780.26326727323
-0.0237372421312394,1780.27326727323
-0.0373122484681731,1780.28326727323
-0.0468102678540454,1780.29326727323
-0.05519832564702,1780.30326727323
-0.0650386326318581,1780.31326727323
-0.077327815781986,1780.32326727323
-0.0909381689418673,1780.33326727323
-0.104429876526953,1780.34326727323
-0.116997500272056,1780.35326727323
-0.125493117272868,1780.36326727323
-0.133858606711328,1780.37326727323
-0.143760955188646,1780.38326727323
-0.155536266546758,1780.39326727323
-0.167504630818773,1780.40326727323
-0.179384183632281,1780.41326727323
-0.190016556235113,1780.42326727323
-0.196657329046069,1780.43326727323
-0.203669638960663,1780.44326727323
-0.212704386447033,1780.45326727323
-0.224604579753869,1780.46326727323
-0.238508438969381,1780.47326727323
-0.252902138599819,1780.48326727323
-0.266137601940223,1780.49326727323
-0.275670894301278,1780.50326727323
-0.284583612901639,1780.51326727323
-0.295315000699987,1780.52326727323
-0.308019530093521,1780.53326727323
-0.321254867173527,1780.54326727323
-0.334544350601762,1780.55326727323
-0.346216348067542,1780.56326727323
-0.353823148209832,1780.57326727323
-0.360274563088219,1780.58326727323
-0.368983507644004,1780.59326727323
-0.37936790407111,1780.60326727323
-0.391468069192224,1780.61326727323
-0.403661756860935,1780.62326727323
-0.414738837285994,1780.63326727323
-0.422028488577366,1780.64326727323
-0.428014804177755,1780.65326727323
-0.433587096947915,1780.66326727323
-0.43367853588894,1780.67326727323
-0.419444638125425,1780.68326727323
-0.382524821311743,1780.69326727323
-0.3195904948598,1780.70326727323
-0.230560373753814,1780.71326727323
-0.124746406820189,1780.72326727323
-0.0135951445829167,1780.73326727323
0.0950994211276092,1780.74326727323
0.196749591691174,1780.75326727323
0.28798666878754,1780.76326727323
0.366606850906665,1780.77326727323
0.433145086416823,1780.78326727323
0.484383482521936,1780.79326727323
0.519301391184462,1780.80326727323
0.539544304439238,1780.81326727323
0.549079259957455,1780.82326727323
0.551891586432001,1780.83326727323
0.55106554220399,1780.84326727323
0.551908308793805,1780.85326727323
0.550887443136269,1780.86326727323
0.54804510080064,1780.87326727323
0.542370476543527,1780.88326727323
0.536111732316881,1780.89326727323
0.531178727835739,1780.90326727323
0.528374810650855,1780.91326727323
0.53090775862041,1780.92326727323
0.534965664862481,1780.93326727323
0.537106808021564,1780.94326727323
0.535263373686883,1780.95326727323
0.529072524820247,1780.96326727323
0.518504026976652,1780.97326727323
0.5042670790009,1780.98326727323
0.488761622076871,1780.99326727323
0.470309175904096,1781.00326727323
0.448354844084203,1781.01326727323
0.425414039332363,1781.02326727323
0.40482746144658,1781.03326727323
0.388664485447643,1781.04326727323
0.378794239048059,1781.05326727323
0.37757044041743,1781.06326727323
0.381079797402666,1781.07326727323
0.384825633389571,1781.08326727323
0.387830763206882,1781.09326727323
0.390802833044895,1781.10326727323
0.393281158120744,1781.11326727323
0.395953903872544,1781.12326727323
0.401676120668408,1781.13326727323
0.405054241267238,1781.14326727323
0.404188940144842,1781.15326727323
0.397755279806124,1781.16326727323
0.386576696652473,1781.17326727323
0.372680793490631,1781.18326727323
0.357549272251987,1781.19326727323
0.344866396755222,1781.20326727323
0.330893576880928,1781.21326727323
0.314716169982252,1781.22326727323
0.295491513180616,1781.23326727323
0.274280954609205,1781.24326727323
0.253045329748094,1781.25326727323
0.232592424567831,1781.26326727323
0.216499117945015,1781.27326727323
0.201685325076038,1781.28326727323
0.185383753480831,1781.29326727323
0.166820502714086,1781.30326727323
0.147953518620178,1781.31326727323
0.129483956362514,1781.32326727323
0.112938748739896,1781.33326727323
0.100937171086661,1781.34326727323
0.0902567692617369,1781.35326727323
0.078023741232003,1781.36326727323
0.0642027903352034,1781.37326727323
0.0499569019386796,1781.38326727323
0.0361747257783384,1781.39326727323
0.0241207340238469,1781.40326727323
0.0153962335618807,1781.41326727323
0.00747022688890169,1781.42326727323
-0.00225282709916848,1781.43326727323
-0.0146223722214338,1781.44326727323
-0.0276236955498598,1781.45326727323
-0.0407213535489063,1781.46326727323
-0.052337856500009,1781.47326727323
-0.0600394514420955,1781.48326727323
-0.0670338931947785,1781.49326727323
-0.0756545661595627,1781.50326727323
-0.0864646919473763,1781.51326727323
-0.0979135021059595,1781.52326727323
-0.109322957631748,1781.53326727323
-0.119703532088079,1781.54326727323
-0.126258544206608,1781.55326727323
-0.132916157945859,1781.56326727323
-0.141570737633421,1781.57326727323
-0.153251266474833,1781.58326727323
-0.166393055534455,1781.59326727323
-0.179798883106202,1781.60326727323
-0.191523181043107,1781.61326727323
-0.199346464150408,1781.62326727323
-0.206651878983298,1781.63326727323
-0.21588736330572,1781.64326727323
-0.228108354431116,1781.65326727323
-0.241102082946017,1781.66326727323
-0.255196643639936,1781.67326727323
-0.267735922736043,1781.68326727323
-0.276200529980264,1781.69326727323
-0.281633023731565,1781.70326727323
-0.283348358320291,1781.71326727323
-0.275068585120774,1781.72326727323
-0.249688366919111,1781.73326727323
-0.202458696222414,1781.74326727323
-0.13345070335555,1781.75326727323
-0.0447509407568655,1781.76326727323
0.0541626942449893,1781.77326727323
0.154113100776694,1781.78326727323
0.248885108256595,1781.79326727323
0.333546652958145,1781.80326727323
0.405152274813141,1781.81326727323
0.462652343247756,1781.82326727323
0.508021677970577,1781.83326727323
0.539107083099673,1781.84326727323
0.556204507786441,1781.85326727323
0.56219530340317,1781.86326727323
0.561096816571799,1781.87326727323
0.55608821362491,1781.88326727323
0.551183893957181,1781.89326727323
0.549481137736601,1781.90326727323
