PPG,time
-0.13176035634018,1454.7795810337
-0.265429029902161,1454.7895810337
-0.241269579411431,1454.7995810337
-0.265144489742949,1454.8095810337
-0.262181350779466,1454.8195810337
-0.276172506528212,1454.8295810337
-0.279112688131536,1454.8395810337
-0.288328443829726,1454.8495810337
-0.293224286842867,1454.8595810337
-0.300784209437392,1454.8695810337
-0.306753753436731,1454.8795810337
-0.312344802411824,1454.8895810337
-0.317511017738646,1454.8995810337
-0.322192013431117,1454.9095810337
-0.324881688778833,1454.9195810337
-0.322877922442988,1454.9295810337
-0.312828615660175,1454.9395810337
-0.292625007860778,1454.9495810337
-0.261591119143587,1454.9595810337
-0.220877202566792,1454.9695810337
-0.173493642658067,1454.9795810337
-0.1224820012271,1454.9895810337
-0.0705123639671313,1454.9995810337
-0.021461817578023,1455.0095810337
0.0226672241349662,1455.0195810337
0.060601675139946,1455.0295810337
0.0912162777374253,1455.0395810337
0.114790858419862,1455.0495810337
0.131458305126716,1455.0595810337
0.141815381996133,1455.0695810337
0.147317117094041,1455.0795810337
0.148951480047335,1455.0895810337
0.147708793154571,1455.0995810337
0.144498366807929,1455.1095810337
0.140823572292879,1455.1195810337
0.136045856613994,1455.1295810337
0.132472839710269,1455.1395810337
0.129069251370161,1455.1495810337
0.125503192074895,1455.1595810337
0.122011720009506,1455.1695810337
0.118860238350463,1455.1795810337
0.115735604511571,1455.1895810337
0.112474921996384,1455.1995810337
0.108930354647632,1455.2095810337
0.104698481564385,1455.2195810337
0.0988521563978153,1455.2295810337
0.0926178055797425,1455.2395810337
0.0860197751515338,1455.2495810337
0.0806493890084253,1455.2595810337
0.0767228599938215,1455.2695810337
0.0746681478756036,1455.2795810337
0.0746594098469116,1455.2895810337
0.0763689820210039,1455.2995810337
0.0799682270803441,1455.3095810337
0.0844013813438018,1455.3195810337
0.0897448671611897,1455.3295810337
0.0951914367638036,1455.3395810337
0.10000653889857,1455.3495810337
0.103837327676754,1455.3595810337
0.105990543091725,1455.3695810337
0.106881349992248,1455.3795810337
0.106296878393586,1455.3895810337
0.104392223425036,1455.3995810337
0.101242332475604,1455.4095810337
0.0971085817767202,1455.4195810337
0.0924106946800941,1455.4295810337
0.0868901125936171,1455.4395810337
0.0818040326922988,1455.4495810337
0.0755694753527174,1455.4595810337
0.0685598127133815,1455.4695810337
0.0599708710969043,1455.4795810337
0.0512048232615523,1455.4895810337
0.0424771545957677,1455.4995810337
0.0337415826932492,1455.5095810337
0.025529600887,1455.5195810337
0.0176317149063974,1455.5295810337
0.0105105276241066,1455.5395810337
0.00314702088378398,1455.5495810337
-0.00393763042475249,1455.5595810337
-0.0107934391774355,1455.5695810337
-0.0182919823714863,1455.5795810337
-0.0258804050028711,1455.5895810337
-0.0334637611127644,1455.5995810337
-0.0411257011201327,1455.6095810337
-0.0483357838064082,1455.6195810337
-0.0557856643753869,1455.6295810337
-0.063212243827918,1455.6395810337
-0.0701126993536108,1455.6495810337
-0.0774356291858572,1455.6595810337
-0.0846201082090546,1455.6695810337
-0.0911138189023025,1455.6795810337
-0.0976526855859708,1455.6895810337
-0.103861788754647,1455.6995810337
-0.109863398240589,1455.7095810337
-0.115937913785517,1455.7195810337
-0.12239230123024,1455.7295810337
-0.129273740486525,1455.7395810337
-0.136397256477161,1455.7495810337
-0.143534495373141,1455.7595810337
-0.150648897668148,1455.7695810337
-0.157589403119457,1455.7795810337
-0.164238155979159,1455.7895810337
-0.170866191623658,1455.7995810337
-0.177779390919795,1455.8095810337
-0.185126063841574,1455.8195810337
-0.192476758053744,1455.8295810337
-0.199904346602279,1455.8395810337
-0.206730574734191,1455.8495810337
-0.213036800108439,1455.8595810337
-0.219453011174994,1455.8695810337
-0.225072526871519,1455.8795810337
-0.230485790957831,1455.8895810337
-0.235899355975299,1455.8995810337
-0.241254619528162,1455.9095810337
-0.247088011876824,1455.9195810337
-0.253664304863062,1455.9295810337
-0.260395684821065,1455.9395810337
-0.267870973180746,1455.9495810337
-0.2757010087056,1455.9595810337
-0.28303410173789,1455.9695810337
-0.289931058386036,1455.9795810337
-0.29625802122687,1455.9895810337
-0.302525048126791,1455.9995810337
-0.308507663386904,1456.0095810337
-0.313732883429005,1456.0195810337
-0.316824692451171,1456.0295810337
-0.314537202363798,1456.0395810337
-0.304470073680055,1456.0495810337
-0.284468366233698,1456.0595810337
-0.253555914826738,1456.0695810337
-0.212442963384582,1456.0795810337
-0.163418406339081,1456.0895810337
-0.109362079706545,1456.0995810337
-0.0542746034820068,1456.1095810337
-0.000469484802261445,1456.1195810337
0.048696965927289,1456.1295810337
0.0920098269539332,1456.1395810337
0.127844263663396,1456.1495810337
0.155769307627987,1456.1595810337
0.176222532475366,1456.1695810337
0.189345141214464,1456.1795810337
0.19673168703946,1456.1895810337
0.19938667688358,1456.1995810337
0.198209902028962,1456.2095810337
0.195704343516687,1456.2195810337
0.191684441211415,1456.2295810337
0.187245248753706,1456.2395810337
0.182936991678987,1456.2495810337
0.178591561599259,1456.2595810337
0.174858929726808,1456.2695810337
0.171757507323684,1456.2795810337
0.169742447402334,1456.2895810337
0.167866810237877,1456.2995810337
0.165779590803741,1456.3095810337
0.163135987766814,1456.3195810337
0.158606105391234,1456.3295810337
0.15235135549584,1456.3395810337
0.145402699096193,1456.3495810337
0.138055346126765,1456.3595810337
0.130926786472618,1456.3695810337
0.1252967624299,1456.3795810337
0.121542821314246,1456.3895810337
0.119570421735941,1456.3995810337
0.119303226487093,1456.4095810337
0.119868931242544,1456.4195810337
0.121644536397323,1456.4295810337
0.124653603910842,1456.4395810337
0.128214097690384,1456.4495810337
0.132397713740087,1456.4595810337
0.136911414341469,1456.4695810337
0.140466291302878,1456.4795810337
0.143469708734433,1456.4895810337
0.144910183926729,1456.4995810337
0.144910742164685,1456.5095810337
0.143432897302663,1456.5195810337
0.140293934227178,1456.5295810337
0.135428021549284,1456.5395810337
0.129335365337525,1456.5495810337
0.122681270287579,1456.5595810337
0.115392539066844,1456.5695810337
0.107955748112623,1456.5795810337
0.100338038842131,1456.5895810337
0.091997484602396,1456.5995810337
0.0832206780644392,1456.6095810337
0.0743730573254746,1456.6195810337
0.0651201406334855,1456.6295810337
0.055918606161652,1456.6395810337
0.0471005675123446,1456.6495810337
0.0386354978226627,1456.6595810337
0.029929237862435,1456.6695810337
0.0213467747658741,1456.6795810337
0.0127176796204989,1456.6895810337
0.00402472015817282,1456.6995810337
-0.00504453055011106,1456.7095810337
-0.0133003605167328,1456.7195810337
-0.0218762917129833,1456.7295810337
-0.030137512451182,1456.7395810337
-0.0382081736646546,1456.7495810337
-0.045576765312046,1456.7595810337
-0.0525815685307419,1456.7695810337
-0.059860075864415,1456.7795810337
-0.0669659657254687,1456.7895810337
-0.0738992631998082,1456.7995810337
-0.0806252911666193,1456.8095810337
-0.0871199285826504,1456.8195810337
-0.0932966202487777,1456.8295810337
-0.099659801851032,1456.8395810337
-0.106470009690662,1456.8495810337
-0.113457499555347,1456.8595810337
-0.121296380693642,1456.8695810337
-0.128764441204363,1456.8795810337
-0.135830743067712,1456.8895810337
-0.142727870766558,1456.8995810337
-0.148812124291793,1456.9095810337
-0.155531499327012,1456.9195810337
-0.16220972106799,1456.9295810337
-0.169684356961807,1456.9395810337
-0.176780031260114,1456.9495810337
-0.18378674022994,1456.9595810337
-0.19041275197442,1456.9695810337
-0.196976332597149,1456.9795810337
-0.203137312714811,1456.9895810337
-0.209372781297097,1456.9995810337
-0.216205819425038,1457.0095810337
-0.223153194903731,1457.0195810337
-0.230193650425291,1457.0295810337
-0.236872704850316,1457.0395810337
-0.243320997027323,1457.0495810337
-0.249033584749703,1457.0595810337
-0.254957048117237,1457.0695810337
-0.260941953493168,1457.0795810337
-0.26699831100263,1457.0895810337
-0.272941228196818,1457.0995810337
-0.274815589300115,1457.1095810337
-0.269622859143309,1457.1195810337
-0.254814042287191,1457.1295810337
-0.228527022607109,1457.1395810337
-0.191495244762268,1457.1495810337
-0.145985099581961,1457.1595810337
-0.0943820096085519,1457.1695810337
-0.0399972280038383,1457.1795810337
0.0130684850303885,1457.1895810337
0.0630521515149055,1457.1995810337
0.107059393295513,1457.2095810337
0.144650906540788,1457.2195810337
0.17450905005396,1457.2295810337
0.197021080359484,1457.2395810337
0.21258829318859,1457.2495810337
0.221622341193304,1457.2595810337
0.225507592874825,1457.2695810337
0.224808007135715,1457.2795810337
0.221324639941289,1457.2895810337
0.215882357303646,1457.2995810337
0.209178557874052,1457.3095810337
0.202197729001576,1457.3195810337
0.195718572300369,1457.3295810337
0.190045357902644,1457.3395810337
0.184861077336303,1457.3495810337
0.180174017795915,1457.3595810337
0.175399690633929,1457.3695810337
0.170528509200761,1457.3795810337
0.16368049795974,1457.3895810337
0.155399761764514,1457.3995810337
0.145791126224244,1457.4095810337
0.135446220152844,1457.4195810337
0.125678450507268,1457.4295810337
0.117347570387102,1457.4395810337
0.110826117702865,1457.4495810337
0.107486189507071,1457.4595810337
0.106359559689133,1457.4695810337
0.108278170200057,1457.4795810337
0.111511916795593,1457.4895810337
0.11681973583087,1457.4995810337
0.123667068607604,1457.5095810337
0.130785309530138,1457.5195810337
0.138169147253676,1457.5295810337
0.144337483991273,1457.5395810337
0.148485481039136,1457.5495810337
0.151105645064956,1457.5595810337
0.15218719119775,1457.5695810337
0.151275298283124,1457.5795810337
0.14884438767411,1457.5895810337
0.144735476526137,1457.5995810337
0.139441538505216,1457.6095810337
0.133115589163309,1457.6195810337
0.125524411869084,1457.6295810337
0.117526621387881,1457.6395810337
0.108928642755618,1457.6495810337
0.100115719454408,1457.6595810337
0.0909677460667652,1457.6695810337
0.0823601669708359,1457.6795810337
0.0738202798963222,1457.6895810337
0.0652885639421636,1457.6995810337
0.0564807844414454,1457.7095810337
0.047957687873766,1457.7195810337
0.0393709022193995,1457.7295810337
0.0303708124875254,1457.7395810337
0.0215491482483336,1457.7495810337
0.0126856311194244,1457.7595810337
0.00435613826663266,1457.7695810337
-0.00319351165593282,1457.7795810337
-0.010345185983045,1457.7895810337
-0.0168227473892903,1457.7995810337
-0.0241542074084684,1457.8095810337
-0.0311385819871684,1457.8195810337
-0.0381915767243469,1457.8295810337
-0.0452591932839913,1457.8395810337
-0.0522696568638016,1457.8495810337
-0.0593367427707996,1457.8595810337
-0.0663847418800528,1457.8695810337
-0.0731679636349852,1457.8795810337
-0.0798618160528821,1457.8895810337
-0.0872089107261717,1457.8995810337
-0.0945387173630593,1457.9095810337
-0.101832422941656,1457.9195810337
-0.109470071840039,1457.9295810337
-0.116686948260305,1457.9395810337
-0.123973860642267,1457.9495810337
-0.131063979476898,1457.9595810337
-0.138197526891228,1457.9695810337
-0.145563750705724,1457.9795810337
-0.152869659976651,1457.9895810337
-0.159491673982139,1457.9995810337
-0.166265466642161,1458.0095810337
-0.172964588215499,1458.0195810337
-0.179599989976941,1458.0295810337
-0.18599952401592,1458.0395810337
-0.192215804007963,1458.0495810337
-0.198874940394001,1458.0595810337
-0.205689182926584,1458.0695810337
-0.213105828570479,1458.0795810337
-0.220702531277913,1458.0895810337
-0.228651670756419,1458.0995810337
-0.23614075978804,1458.1095810337
-0.243532331505115,1458.1195810337
-0.249985915644869,1458.1295810337
-0.255767245852546,1458.1395810337
-0.259945757800952,1458.1495810337
-0.260737938585584,1458.1595810337
-0.254652509369806,1458.1695810337
-0.238469657941998,1458.1795810337
-0.210494505248341,1458.1895810337
-0.171265284443046,1458.1995810337
-0.122082407419564,1458.2095810337
-0.0656086719589602,1458.2195810337
-0.00586378854344962,1458.2295810337
0.0548209559092534,1458.2395810337
0.112606453734071,1458.2495810337
0.164887356557944,1458.2595810337
0.210744808933796,1458.2695810337
0.247528575900315,1458.2795810337
0.275092361362726,1458.2895810337
0.294444227172066,1458.2995810337
0.306578719372656,1458.3095810337
0.313037581761694,1458.3195810337
0.315002341642578,1458.3295810337
0.313279037995029,1458.3395810337
0.309810725977484,1458.3495810337
0.304846265469741,1458.3595810337
0.299933626934208,1458.3695810337
0.29491135352281,1458.3795810337
0.291064680315778,1458.3895810337
0.287936892592619,1458.3995810337
0.285776806585808,1458.4095810337
0.283758527174233,1458.4195810337
0.280915403608248,1458.4295810337
0.277424137199375,1458.4395810337
0.272258251751896,1458.4495810337
0.265423222603183,1458.4595810337
0.256913957284424,1458.4695810337
0.247989742029451,1458.4795810337
0.239508903870125,1458.4895810337
0.232214185631313,1458.4995810337
0.226697131850514,1458.5095810337
0.223848617652972,1458.5195810337
0.223065189645061,1458.5295810337
0.224050299363116,1458.5395810337
0.226876005443806,1458.5495810337
0.230607706368597,1458.5595810337
0.235238948642436,1458.5695810337
0.240395695405682,1458.5795810337
0.245293507369003,1458.5895810337
0.249557909204295,1458.5995810337
0.253333163176195,1458.6095810337
0.255340362621041,1458.6195810337
0.254779422091349,1458.6295810337
0.25294812962758,1458.6395810337
0.249580888336218,1458.6495810337
0.245022847676361,1458.6595810337
0.239286809657481,1458.6695810337
0.23201520488816,1458.6795810337
0.224504075156824,1458.6895810337
0.216600672957508,1458.6995810337
0.208128046331834,1458.7095810337
0.199792316127549,1458.7195810337
0.191070173551944,1458.7295810337
0.181899507958449,1458.7395810337
0.172300665457292,1458.7495810337
0.162415045571904,1458.7595810337
0.152234409182973,1458.7695810337
0.142869569914369,1458.7795810337
0.133477613691259,1458.7895810337
0.124517659706094,1458.7995810337
0.115436201477958,1458.8095810337
0.106683403182083,1458.8195810337
0.0980496306418157,1458.8295810337
0.0892280450166969,1458.8395810337
0.0807757349736106,1458.8495810337
0.0721629261922517,1458.8595810337
0.0635948238215067,1458.8695810337
0.0559927960509818,1458.8795810337
0.048682492185807,1458.8895810337
0.0415190124644264,1458.8995810337
0.0346176734595172,1458.9095810337
0.0280328025673257,1458.9195810337
0.0213946802895972,1458.9295810337
0.0146626901595634,1458.9395810337
0.00730562075872606,1458.9495810337
8.64268880086698e-06,1458.9595810337
-0.00777039609402363,1458.9695810337
-0.0151558267422073,1458.9795810337
-0.0229555712076906,1458.9895810337
-0.0305260779132597,1458.9995810337
-0.0383350917789332,1459.0095810337
-0.0464359445043761,1459.0195810337
-0.0544187843382723,1459.0295810337
-0.0618669358960083,1459.0395810337
-0.0689765893368651,1459.0495810337
-0.0761368479708168,1459.0595810337
-0.0834204011343549,1459.0695810337
-0.0901852864479263,1459.0795810337
-0.0968250952448641,1459.0895810337
-0.103103376051291,1459.0995810337
-0.109584746400891,1459.1095810337
-0.116492012796797,1459.1195810337
-0.123114911729759,1459.1295810337
-0.130610296000931,1459.1395810337
-0.138427817364665,1459.1495810337
-0.146842948588527,1459.1595810337
-0.155058003584072,1459.1695810337
-0.162695689874359,1459.1795810337
-0.170519167326086,1459.1895810337
-0.177750715735332,1459.1995810337
-0.184857018342096,1459.2095810337
-0.1915927803899,1459.2195810337
-0.197658612937493,1459.2295810337
-0.2023936784802,1459.2395810337
-0.203339129622118,1459.2495810337
-0.196984422578093,1459.2595810337
-0.181249520779422,1459.2695810337
-0.153183850492883,1459.2795810337
-0.113568936931587,1459.2895810337
-0.0641916474626415,1459.2995810337
-0.00812187049300093,1459.3095810337
0.0507180773721183,1459.3195810337
0.109022006155993,1459.3295810337
0.16399834479551,1459.3395810337
0.213276991466237,1459.3495810337
0.254915855784273,1459.3595810337
0.288020519049055,1459.3695810337
0.312590856240436,1459.3795810337
0.329137377506257,1459.3895810337
0.338799752867246,1459.3995810337
0.342794017152646,1459.4095810337
0.342704446013978,1459.4195810337
0.339668557685489,1459.4295810337
0.3362237280517,1459.4395810337
0.332516755350315,1459.4495810337
0.328461478269049,1459.4595810337
0.324772097618695,1459.4695810337
0.322085745121586,1459.4795810337
0.320502234938084,1459.4895810337
0.320219935520927,1459.4995810337
0.320658828469952,1459.5095810337
0.321147667805093,1459.5195810337
0.32079599365395,1459.5295810337
0.318505043334569,1459.5395810337
0.314192509694736,1459.5495810337
0.308086100037536,1459.5595810337
0.300793725054094,1459.5695810337
0.29419823904106,1459.5795810337
0.288336718123152,1459.5895810337
0.283700776989832,1459.5995810337
0.281175107641859,1459.6095810337
0.280660132773232,1459.6195810337
0.281637605211805,1459.6295810337
0.284264965254302,1459.6395810337
0.287212816738777,1459.6495810337
0.290509357944834,1459.6595810337
0.294028174999036,1459.6695810337
0.296919466134818,1459.6795810337
0.299812796667071,1459.6895810337
0.301610199457233,1459.6995810337
0.302340118314319,1459.7095810337
0.302006291147847,1459.7195810337
0.299792238534705,1459.7295810337
0.296744374683619,1459.7395810337
0.292906805749679,1459.7495810337
0.288221958929495,1459.7595810337
0.282788195836448,1459.7695810337
0.27663905330583,1459.7795810337
0.26935201171704,1459.7895810337
0.26071263011989,1459.7995810337
0.251851430048829,1459.8095810337
0.242223564814133,1459.8195810337
0.232346898062256,1459.8295810337
0.222913510893484,1459.8395810337
0.213673717807624,1459.8495810337
0.204714755505837,1459.8595810337
0.196366868874118,1459.8695810337
0.188366425299666,1459.8795810337
0.180809973613025,1459.8895810337
0.172847536046319,1459.8995810337
0.164311192039446,1459.9095810337
0.155447339056528,1459.9195810337
0.146890478025193,1459.9295810337
0.138228104468777,1459.9395810337
0.130446916182184,1459.9495810337
0.123097923304966,1459.9595810337
0.116058483087746,1459.9695810337
0.108915548800759,1459.9795810337
0.101710996973339,1459.9895810337
0.0940360865904239,1459.9995810337
0.0864717788027879,1460.0095810337
0.0790200798363472,1460.0195810337
0.0716116586214559,1460.0295810337
0.0642816241177197,1460.0395810337
0.0566671186297486,1460.0495810337
0.0486233517382985,1460.0595810337
0.040400585541628,1460.0695810337
0.0323259983830493,1460.0795810337
0.0237156259389576,1460.0895810337
0.0154128023839473,1460.0995810337
0.00685287734409279,1460.1095810337
-0.00147836103819587,1460.1195810337
-0.00993531461671357,1460.1295810337
-0.0178725679848919,1460.1395810337
-0.0258513566811309,1460.1495810337
-0.0338455948236289,1460.1595810337
-0.0417024582916737,1460.1695810337
-0.0491320713465936,1460.1795810337
-0.0564032472366963,1460.1895810337
-0.0630963593537749,1460.1995810337
-0.0688761877693947,1460.2095810337
-0.0749895936420543,1460.2195810337
-0.0810177735976249,1460.2295810337
-0.0878447469665119,1460.2395810337
-0.0952262462904837,1460.2495810337
-0.102886468318806,1460.2595810337
-0.110400832312455,1460.2695810337
-0.118234902494936,1460.2795810337
-0.125841634881978,1460.2895810337
-0.133501388069975,1460.2995810337
-0.141316989103171,1460.3095810337
-0.148509594085901,1460.3195810337
-0.155619322293352,1460.3295810337
-0.16218963940335,1460.3395810337
-0.168075319819647,1460.3495810337
-0.171981066616256,1460.3595810337
-0.171743084899077,1460.3695810337
-0.164568410611613,1460.3795810337
-0.147416686733965,1460.3895810337
-0.119127552337002,1460.3995810337
-0.0795314262197014,1460.4095810337
-0.0317999745787751,1460.4195810337
0.0218710656134405,1460.4295810337
0.0779934000913899,1460.4395810337
0.132410971024677,1460.4495810337
0.183329859826027,1460.4595810337
0.227768815455267,1460.4695810337
0.263520981237598,1460.4795810337
0.291103217169189,1460.4895810337
0.309786261956299,1460.4995810337
0.321422765335414,1460.5095810337
0.32740037863819,1460.5195810337
0.328895153906474,1460.5295810337
0.327759039651713,1460.5395810337
0.325203074349446,1460.5495810337
0.321970035999893,1460.5595810337
0.317887872003692,1460.5695810337
0.31442918319667,1460.5795810337
0.311577405303274,1460.5895810337
0.309600262336013,1460.5995810337
0.308591025434675,1460.6095810337
0.308338530056924,1460.6195810337
0.308044214930678,1460.6295810337
0.307150822712062,1460.6395810337
0.30504142409115,1460.6495810337
0.301696959005695,1460.6595810337
0.296198554196663,1460.6695810337
0.288996672235064,1460.6795810337
0.281002147700414,1460.6895810337
0.273670928038236,1460.6995810337
0.268244462323963,1460.7095810337
0.265398948156872,1460.7195810337
0.265477176684514,1460.7295810337
0.267694551887339,1460.7395810337
0.271423472781036,1460.7495810337
0.27579176984382,1460.7595810337
0.281473600026589,1460.7695810337
0.286999053753422,1460.7795810337
0.292597364461237,1460.7895810337
0.297479234839454,1460.7995810337
0.301507424054939,1460.8095810337
0.303825750855259,1460.8195810337
0.30450354068751,1460.8295810337
0.303709227564988,1460.8395810337
0.301130855149443,1460.8495810337
0.297130511673029,1460.8595810337
0.29232317217849,1460.8695810337
0.28659208505378,1460.8795810337
0.280409588159525,1460.8895810337
0.274036510750645,1460.8995810337
0.26755744720018,1460.9095810337
0.261178199204775,1460.9195810337
0.25406849296702,1460.9295810337
0.246285442677236,1460.9395810337
0.23766255644225,1460.9495810337
0.228245097059293,1460.9595810337
0.218805271695769,1460.9695810337
0.209720468246244,1460.9795810337
0.20054855824231,1460.9895810337
0.191822985472941,1460.9995810337
0.183601327401526,1461.0095810337
0.175316415701187,1461.0195810337
0.167043127415853,1461.0295810337
0.158452273654109,1461.0395810337
0.149825833144516,1461.0495810337
0.142006438247436,1461.0595810337
0.134163521315139,1461.0695810337
0.127316415974273,1461.0795810337
0.120970130612605,1461.0895810337
0.114980927870392,1461.0995810337
0.109173934167772,1461.1095810337
0.103014916035515,1461.1195810337
0.0967018078391187,1461.1295810337
0.0901162740345233,1461.1395810337
0.0836002031055002,1461.1495810337
0.0769172091169332,1461.1595810337
0.0700378938286177,1461.1695810337
0.0627135115584239,1461.1795810337
0.0553373179507654,1461.1895810337
0.048321325278345,1461.1995810337
0.0414972145326071,1461.2095810337
0.0347060097230399,1461.2195810337
0.0278034544367221,1461.2295810337
0.0208920827358992,1461.2395810337
0.0139836274929161,1461.2495810337
0.00737384239651857,1461.2595810337
0.000840582238545703,1461.2695810337
-0.00562744443139482,1461.2795810337
-0.0124762597065127,1461.2895810337
-0.0196690827266076,1461.2995810337
-0.0268384358634676,1461.3095810337
-0.0343819380499547,1461.3195810337
-0.0419559855617905,1461.3295810337
-0.0494527644802615,1461.3395810337
-0.0566666456547256,1461.3495810337
-0.0640345631809582,1461.3595810337
-0.0712641697446051,1461.3695810337
-0.0788200600973901,1461.3795810337
-0.0867408494573108,1461.3895810337
-0.0939644094036181,1461.3995810337
-0.10092004743186,1461.4095810337
-0.106868547906725,1461.4195810337
-0.110481115272696,1461.4295810337
-0.109865369395002,1461.4395810337
-0.101603241940402,1461.4495810337
-0.0835050537369019,1461.4595810337
-0.0538379296563833,1461.4695810337
-0.0145244740057426,1461.4795810337
0.0332113693536612,1461.4895810337
0.0854652810106081,1461.4995810337
0.137874255924682,1461.5095810337
0.18822674440377,1461.5195810337
0.233107813758091,1461.5295810337
0.269887698805063,1461.5395810337
0.299203704127507,1461.5495810337
0.32050948383005,1461.5595810337
0.333886635431238,1461.5695810337
0.340816611492277,1461.5795810337
0.342642812607441,1461.5895810337
0.340684886901151,1461.5995810337
0.336508349136002,1461.6095810337
0.331436812135736,1461.6195810337
0.326134117775873,1461.6295810337
0.32131501443868,1461.6395810337
0.316662655559524,1461.6495810337
0.312036718420337,1461.6595810337
0.308487908330279,1461.6695810337
0.304752237185728,1461.6795810337
0.301823054777738,1461.6895810337
0.298049899350589,1461.6995810337
0.292920753486901,1461.7095810337
0.286783907945001,1461.7195810337
0.279556589801739,1461.7295810337
0.272200309110018,1461.7395810337
0.265290092630442,1461.7495810337
0.259882706740245,1461.7595810337
0.256461192115793,1461.7695810337
0.255167949607197,1461.7795810337
0.256395482556727,1461.7895810337
0.259362362442668,1461.7995810337
0.263407739710012,1461.8095810337
0.268626646931209,1461.8195810337
0.273875578897708,1461.8295810337
0.278633642822277,1461.8395810337
0.282963325576497,1461.8495810337
0.286156404757818,1461.8595810337
0.288731943261082,1461.8695810337
0.289751825734607,1461.8795810337
0.289537263397761,1461.8895810337
0.287313276178819,1461.8995810337
0.284011499326906,1461.9095810337
0.279494625810024,1461.9195810337
0.274294128610494,1461.9295810337
0.267847937706179,1461.9395810337
0.260620530621227,1461.9495810337
0.252906476476914,1461.9595810337
0.244350923331318,1461.9695810337
0.235851961335504,1461.9795810337
0.227251275973682,1461.9895810337
0.21892508247189,1461.9995810337
0.211028752632909,1462.0095810337
0.202790882439506,1462.0195810337
0.194947063957697,1462.0295810337
0.187095451440237,1462.0395810337
0.179817979215513,1462.0495810337
0.172694937480097,1462.0595810337
0.165578453865303,1462.0695810337
0.157884257224742,1462.0795810337
0.150236068317161,1462.0895810337
0.142908933221012,1462.0995810337
0.136162501798129,1462.1095810337
0.129397830946332,1462.1195810337
0.12322656025916,1462.1295810337
0.116710210942296,1462.1395810337
0.10999118579953,1462.1495810337
0.10346930896706,1462.1595810337
0.0964985105333845,1462.1695810337
0.0897174368186582,1462.1795810337
0.0829110728277219,1462.1895810337
0.0760563123351859,1462.1995810337
0.0690065917835482,1462.2095810337
0.0614602098604091,1462.2195810337
0.0540205571958353,1462.2295810337
0.0464709320980491,1462.2395810337
0.0391813068387919,1462.2495810337
0.0315228597620958,1462.2595810337
0.0240932578783911,1462.2695810337
0.0164497534782997,1462.2795810337
0.00866257912675102,1462.2895810337
0.00049846271020543,1462.2995810337
-0.00766111699755487,1462.3095810337
-0.0161331015894982,1462.3195810337
-0.0238216857741781,1462.3295810337
-0.031660301875262,1462.3395810337
-0.0386914699705439,1462.3495810337
-0.0457814104296203,1462.3595810337
-0.0530821006585022,1462.3695810337
-0.0604422132288059,1462.3795810337
-0.0680137143453311,1462.3895810337
-0.0756767899370307,1462.3995810337
-0.0835374413067273,1462.4095810337
-0.0913270427058217,1462.4195810337
-0.0983605284791147,1462.4295810337
-0.105263681817037,1462.4395810337
-0.112124704492019,1462.4495810337
-0.11924113304435,1462.4595810337
-0.126772390708803,1462.4695810337
-0.133962759758067,1462.4795810337
-0.141291829658277,1462.4895810337
-0.148425427083033,1462.4995810337
-0.155296362292731,1462.5095810337
-0.160694134128577,1462.5195810337
-0.163294830948743,1462.5295810337
-0.159883505237408,1462.5395810337
-0.14788630935706,1462.5495810337
-0.125467942380477,1462.5595810337
-0.092595831474464,1462.5695810337
-0.0513800210442687,1462.5795810337
-0.00432752741446388,1462.5895810337
0.0457384845613359,1462.5995810337
0.0959404821276393,1462.6095810337
0.143063303041051,1462.6195810337
0.184933211934832,1462.6295810337
0.219656440116268,1462.6395810337
0.246151647263841,1462.6495810337
0.26397465863298,1462.6595810337
0.274774094380631,1462.6695810337
0.27971545750517,1462.6795810337
0.280449358165249,1462.6895810337
0.278718430411235,1462.6995810337
0.275430012764564,1462.7095810337
0.271558861874693,1462.7195810337
0.267690240842944,1462.7295810337
0.264707954589435,1462.7395810337
0.262918020012009,1462.7495810337
0.262348489575156,1462.7595810337
0.262968859836962,1462.7695810337
0.264227608447144,1462.7795810337
0.265450280754247,1462.7895810337
0.266144277604009,1462.7995810337
0.265831465692582,1462.8095810337
0.263776226760353,1462.8195810337
0.259796201448846,1462.8295810337
0.254222323359733,1462.8395810337
0.248058754475532,1462.8495810337
0.241921664512335,1462.8595810337
0.237509073901644,1462.8695810337
0.233865994285453,1462.8795810337
0.231441608917116,1462.8895810337
0.230967829788774,1462.8995810337
0.230888583945224,1462.9095810337
0.231998966181136,1462.9195810337
0.23384496084756,1462.9295810337
0.235868855822405,1462.9395810337
0.238251791470159,1462.9495810337
0.240113457330294,1462.9595810337
0.241499698839377,1462.9695810337
0.242642043438305,1462.9795810337
0.242639052788836,1462.9895810337
0.241497629255228,1462.9995810337
0.238653285783597,1463.0095810337
0.235056164408172,1463.0195810337
0.230029223919654,1463.0295810337
0.224243250862028,1463.0395810337
0.21807399668552,1463.0495810337
0.211093781382544,1463.0595810337
0.204305747732841,1463.0695810337
0.19737674138274,1463.0795810337
0.190667537350008,1463.0895810337
0.183630792273689,1463.0995810337
0.176319308925559,1463.1095810337
0.168550270540031,1463.1195810337
0.160525911058157,1463.1295810337
0.15222949238248,1463.1395810337
0.144263753594221,1463.1495810337
0.136002139096678,1463.1595810337
0.127588164735032,1463.1695810337
0.119360909782657,1463.1795810337
0.110814563667343,1463.1895810337
0.102663582752256,1463.1995810337
0.0944718967571584,1463.2095810337
0.0865628547290666,1463.2195810337
0.0787699499648586,1463.2295810337
0.0716318900356866,1463.2395810337
0.0640416457192754,1463.2495810337
0.0566984025837578,1463.2595810337
0.0496250529468379,1463.2695810337
0.0422769704760703,1463.2795810337
0.0350879304611469,1463.2895810337
0.0270041405760323,1463.2995810337
0.0193556201430488,1463.3095810337
0.0114568449491904,1463.3195810337
0.00349111348149319,1463.3295810337
-0.00401138696780207,1463.3395810337
-0.0113768060538151,1463.3495810337
-0.018811048667848,1463.3595810337
-0.0264475583303513,1463.3695810337
-0.0340189682422145,1463.3795810337
-0.0417190760620496,1463.3895810337
-0.0495460421928016,1463.3995810337
-0.057624911695451,1463.4095810337
-0.0656340079338356,1463.4195810337
-0.0739806273744558,1463.4295810337
-0.0827942019682147,1463.4395810337
-0.0913242391019048,1463.4495810337
-0.099534140875899,1463.4595810337
-0.107503911484759,1463.4695810337
-0.114790877956919,1463.4795810337
-0.121701462451385,1463.4895810337
-0.128794599725859,1463.4995810337
-0.136109761181748,1463.5095810337
-0.143573454036217,1463.5195810337
-0.151044931867888,1463.5295810337
-0.158612943430407,1463.5395810337
-0.166314779660385,1463.5495810337
-0.17440316469419,1463.5595810337
-0.182827376389948,1463.5695810337
-0.191024406213696,1463.5795810337
-0.198964266485831,1463.5895810337
-0.206380663754578,1463.5995810337
-0.213834890344274,1463.6095810337
-0.221309836980499,1463.6195810337
-0.22894860518351,1463.6295810337
-0.23659128872186,1463.6395810337
-0.24423434356891,1463.6495810337
-0.25063194760488,1463.6595810337
-0.255561644163,1463.6695810337
-0.256136937850249,1463.6795810337
-0.250227720233889,1463.6895810337
-0.236048482940213,1463.6995810337
-0.212897579066903,1463.7095810337
-0.181818732215803,1463.7195810337
-0.144580503413433,1463.7295810337
-0.103243163884357,1463.7395810337
-0.060351123483425,1463.7495810337
-0.0199241570723298,1463.7595810337
0.0170580483429255,1463.7695810337
0.0488989530044977,1463.7795810337
0.0735777234344002,1463.7895810337
0.091159774016846,1463.7995810337
0.102374056123353,1463.8095810337
0.108280333365148,1463.8195810337
0.110072664635813,1463.8295810337
0.109222263417359,1463.8395810337
0.10611609215788,1463.8495810337
0.102369607145134,1463.8595810337
0.0986386858607472,1463.8695810337
0.0947282696402282,1463.8795810337
0.0916198447667611,1463.8895810337
0.0892124129956564,1463.8995810337
0.0873446105513934,1463.9095810337
0.0865016198246408,1463.9195810337
0.0864694012202753,1463.9295810337
0.0861353099104605,1463.9395810337
0.0853477799470862,1463.9495810337
0.0832280722196838,1463.9595810337
0.0800315484701905,1463.9695810337
0.0755116044126509,1463.9795810337
0.069247650481543,1463.9895810337
0.0628316121910784,1463.9995810337
0.0567906992436295,1464.0095810337
0.0518118342365361,1464.0195810337
0.0481783086999861,1464.0295810337
0.0468907711277361,1464.0395810337
0.0466525885015104,1464.0495810337
0.0477778288848673,1464.0595810337
0.0504812722466222,1464.0695810337
0.053786559291291,1464.0795810337
0.05793233179,1464.0895810337
0.0612634789770098,1464.0995810337
0.0634769136975656,1464.1095810337
0.0650353739677015,1464.1195810337
0.0655021443541612,1464.1295810337
0.0645326139294676,1464.1395810337
0.062713986112545,1464.1495810337
0.0601154964334192,1464.1595810337
0.056361449686255,1464.1695810337
0.0526061455766717,1464.1795810337
0.0483138475559479,1464.1895810337
0.0435386051330692,1464.1995810337
0.0379526160328976,1464.2095810337
0.031450600039437,1464.2195810337
0.0244925615884194,1464.2295810337
0.0175858979327346,1464.2395810337
0.0106156287459669,1464.2495810337
0.00440731624052568,1464.2595810337
-0.00167660432022199,1464.2695810337
-0.00792163191997788,1464.2795810337
-0.0149177089554249,1464.2895810337
-0.0216228390458218,1464.2995810337
-0.0280516585170437,1464.3095810337
-0.0343610902972023,1464.3195810337
-0.0406085815333778,1464.3295810337
-0.0470717144443376,1464.3395810337
-0.0536377936426592,1464.3495810337
-0.0605579953096143,1464.3595810337
-0.0678769659899707,1464.3695810337
-0.0751686411636305,1464.3795810337
-0.082395949565714,1464.3895810337
-0.0897657096678791,1464.3995810337
-0.0964801043001667,1464.4095810337
-0.103640804733277,1464.4195810337
-0.110338919992445,1464.4295810337
-0.116887304417346,1464.4395810337
-0.123741433404036,1464.4495810337
-0.129510068939598,1464.4595810337
-0.13575050253666,1464.4695810337
-0.141703837049337,1464.4795810337
-0.14766360416326,1464.4895810337
-0.153442885111448,1464.4995810337
-0.159800680792185,1464.5095810337
-0.166524215118363,1464.5195810337
-0.173749552232957,1464.5295810337
-0.18067010710958,1464.5395810337
-0.187679243071493,1464.5495810337
-0.194579121278487,1464.5595810337
-0.20089379199001,1464.5695810337
-0.206910753322347,1464.5795810337
-0.212329510837508,1464.5895810337
-0.217799887214678,1464.5995810337
-0.22356946225515,1464.6095810337
-0.229775692797115,1464.6195810337
-0.23619488071603,1464.6295810337
-0.243208128170455,1464.6395810337
-0.250251322887855,1464.6495810337
-0.257090934277978,1464.6595810337
-0.263696710988974,1464.6695810337
-0.269271839969861,1464.6795810337
-0.274764310431368,1464.6895810337
-0.280636783886299,1464.6995810337
-0.286353493286367,1464.7095810337
-0.2928418785219,1464.7195810337
-0.298592852619872,1464.7295810337
-0.302967048456656,1464.7395810337
-0.305299705030401,1464.7495810337
-0.302781934391296,1464.7595810337
-0.293858100776713,1464.7695810337
-0.277931330978927,1464.7795810337
-0.254732894796788,1464.7895810337
-0.225831803847566,1464.7995810337
-0.193486501549019,1464.8095810337
-0.159434944254769,1464.8195810337
-0.126098376499873,1464.8295810337
-0.0954338200713056,1464.8395810337
-0.069216192768836,1464.8495810337
-0.048038391102802,1464.8595810337
-0.0325989536852501,1464.8695810337
-0.0222499668346096,1464.8795810337
-0.0163728914031811,1464.8895810337
-0.0148554137505369,1464.8995810337
-0.0166562689852895,1464.9095810337
-0.0206842185931094,1464.9195810337
-0.0261252208520359,1464.9295810337
-0.0312850968039077,1464.9395810337
-0.0362168306173193,1464.9495810337
-0.0402040002330864,1464.9595810337
-0.0430358379565309,1464.9695810337
-0.0456232639224824,1464.9795810337
-0.0467763392606316,1464.9895810337
-0.048823495721974,1464.9995810337
-0.051276986229161,1465.0095810337
-0.0543877324729639,1465.0195810337
-0.0587380054525212,1465.0295810337
-0.063426111758301,1465.0395810337
-0.0691990863137063,1465.0495810337
-0.0749590942012636,1465.0595810337
-0.0800511255508532,1465.0695810337
-0.083737933402529,1465.0795810337
-0.0857655360144173,1465.0895810337
-0.0859689444903431,1465.0995810337
-0.0851233356409937,1465.1095810337
-0.0824219555249371,1465.1195810337
-0.078401768326779,1465.1295810337
-0.0743908891587647,1465.1395810337
-0.0708318807117182,1465.1495810337
-0.0677939339999653,1465.1595810337
-0.065335667294751,1465.1695810337
-0.0634565538768782,1465.1795810337
-0.0620454670762359,1465.1895810337
-0.0614183234296627,1465.1995810337
-0.0617358872917623,1465.2095810337
-0.0628971773960834,1465.2195810337
-0.065441976896409,1465.2295810337
-0.0683005248606359,1465.2395810337
-0.0722183634821446,1465.2495810337
-0.0767835001177282,1465.2595810337
-0.0817643165573717,1465.2695810337
-0.0870914616164061,1465.2795810337
-0.0927947942832105,1465.2895810337
-0.0986845798619192,1465.2995810337
-0.104131240704115,1465.3095810337
-0.109175421759818,1465.3195810337
-0.113818255855559,1465.3295810337
-0.118333358745001,1465.3395810337
-0.122744454776491,1465.3495810337
-0.127429133480264,1465.3595810337
-0.131803246734872,1465.3695810337
-0.136633977594518,1465.3795810337
-0.14125006873827,1465.3895810337
-0.146346535103952,1465.3995810337
-0.152046627130025,1465.4095810337
-0.157561792342323,1465.4195810337
-0.163449090774183,1465.4295810337
-0.169473725396597,1465.4395810337
-0.175521098032714,1465.4495810337
-0.181169014702751,1465.4595810337
-0.18688795409707,1465.4695810337
-0.1924212022478,1465.4795810337
-0.197743334738047,1465.4895810337
-0.202754377536697,1465.4995810337
-0.207896029048891,1465.5095810337
-0.213529269523413,1465.5195810337
-0.219888796729968,1465.5295810337
-0.225904370589042,1465.5395810337
-0.231579633564521,1465.5495810337
-0.237175687680773,1465.5595810337
-0.241761801375218,1465.5695810337
-0.246089269257842,1465.5795810337
-0.25057625899171,1465.5895810337
-0.255204251431786,1465.5995810337
-0.260332227508855,1465.6095810337
-0.265954854309712,1465.6195810337
-0.271104175179102,1465.6295810337
-0.276630697852773,1465.6395810337
-0.281688365287769,1465.6495810337
-0.286972107708713,1465.6595810337
-0.291924228226226,1465.6695810337
-0.296895243153087,1465.6795810337
-0.302055838358073,1465.6895810337
-0.307307562616545,1465.6995810337
-0.312949103455453,1465.7095810337
-0.318934049893334,1465.7195810337
-0.325049924077967,1465.7295810337
-0.330990386996011,1465.7395810337
-0.336462262885747,1465.7495810337
-0.341818586293056,1465.7595810337
-0.347020419935188,1465.7695810337
-0.351465182562556,1465.7795810337
-0.353709796661826,1465.7895810337
-0.352219942727476,1465.7995810337
-0.344976695305928,1465.8095810337
-0.330144084708278,1465.8195810337
-0.307076907428431,1465.8295810337
-0.276308482957448,1465.8395810337
-0.239778321701269,1465.8495810337
-0.199415357095693,1465.8595810337
-0.159489725189919,1465.8695810337
-0.121532961513485,1465.8795810337
-0.0872220079849615,1465.8895810337
-0.0584557369407355,1465.8995810337
-0.0350992531624377,1465.9095810337
-0.0176904414630498,1465.9195810337
-0.0056660106884253,1465.9295810337
0.00108862857934233,1465.9395810337
0.00387833655519405,1465.9495810337
0.0037871894236437,1465.9595810337
0.00189092463591524,1465.9695810337
-0.000595577566700929,1465.9795810337
-0.00337331607573462,1465.9895810337
-0.00530533417876809,1465.9995810337
-0.00639951450093462,1466.0095810337
-0.0062649312842304,1466.0195810337
-0.00574771921251887,1466.0295810337
-0.00493835904023094,1466.0395810337
-0.00384554076042265,1466.0495810337
-0.00361099134595027,1466.0595810337
-0.00362618062537718,1466.0695810337
-0.00463837723995512,1466.0795810337
-0.00674485074056197,1466.0895810337
-0.00993040883543956,1466.0995810337
-0.0129834528357533,1466.1095810337
-0.0157828940979923,1466.1195810337
-0.0175550197910334,1466.1295810337
-0.0183203297191216,1466.1395810337
-0.0181923724005544,1466.1495810337
-0.016764902242311,1466.1595810337
-0.0144163233172129,1466.1695810337
-0.0114359944631816,1466.1795810337
-0.00793878918573485,1466.1895810337
-0.00447193322013077,1466.1995810337
-0.00149567520583276,1466.2095810337
0.0015787004845212,1466.2195810337
0.00385336615531017,1466.2295810337
0.00598566231657924,1466.2395810337
0.00732772260089629,1466.2495810337
0.00829051011184544,1466.2595810337
0.00869788159378277,1466.2695810337
0.00754594466067523,1466.2795810337
0.00525179065434702,1466.2895810337
0.00196994594460118,1466.2995810337
-0.00209479205823504,1466.3095810337
-0.00621798366964126,1466.3195810337
-0.0108118268569434,1466.3295810337
-0.0157072383068287,1466.3395810337
-0.021337875876384,1466.3495810337
-0.0270699655447745,1466.3595810337
-0.032539520837838,1466.3695810337
-0.0387363487624448,1466.3795810337
-0.0448568897369061,1466.3895810337
-0.0511845057815107,1466.3995810337
-0.0574118504032961,1466.4095810337
-0.0635331012722666,1466.4195810337
-0.0691947022481417,1466.4295810337
-0.0750331941530224,1466.4395810337
-0.0810489497841869,1466.4495810337
-0.0872400079991581,1466.4595810337
-0.093408697178944,1466.4695810337
-0.0990182654021734,1466.4795810337
-0.104414386984471,1466.4895810337
-0.10941261591155,1466.4995810337
-0.114094004498782,1466.5095810337
-0.118622415207638,1466.5195810337
-0.123236210885272,1466.5295810337
-0.12795770358318,1466.5395810337
-0.132385387365124,1466.5495810337
-0.137056663121216,1466.5595810337
-0.141523794010134,1466.5695810337
-0.146009685881812,1466.5795810337
-0.150893184707103,1466.5895810337
-0.156196353679712,1466.5995810337
-0.161007692298569,1466.6095810337
-0.166004572465523,1466.6195810337
-0.170803279034438,1466.6295810337
-0.175539067614816,1466.6395810337
-0.180781765603501,1466.6495810337
-0.185802916623895,1466.6595810337
-0.191099126498516,1466.6695810337
-0.196284206317083,1466.6795810337
-0.202209698854283,1466.6895810337
-0.207891462843623,1466.6995810337
-0.214094820142859,1466.7095810337
-0.220026031647893,1466.7195810337
-0.225792542122926,1466.7295810337
-0.231922804490604,1466.7395810337
-0.237740981399371,1466.7495810337
-0.243134858953096,1466.7595810337
-0.248772498371248,1466.7695810337
-0.254634561347117,1466.7795810337
-0.26032193506475,1466.7895810337
-0.26642963544908,1466.7995810337
-0.272793681644046,1466.8095810337
-0.279255047403715,1466.8195810337
-0.285726300961461,1466.8295810337
-0.291708239160904,1466.8395810337
-0.296947484573174,1466.8495810337
-0.300909342008651,1466.8595810337
-0.303219413894221,1466.8695810337
-0.302075496936686,1466.8795810337
-0.294733012220356,1466.8895810337
-0.279014242434136,1466.8995810337
-0.254117927655754,1466.9095810337
-0.219950190533125,1466.9195810337
-0.178356005771145,1466.9295810337
-0.132806344519469,1466.9395810337
-0.0854183782206815,1466.9495810337
-0.0387721270713459,1466.9595810337
0.00371190568208855,1466.9695810337
0.0405523569988031,1466.9795810337
0.0696547568876099,1466.9895810337
0.0912826607175422,1466.9995810337
0.105987769084609,1467.0095810337
0.114635520080972,1467.0195810337
0.118599260428076,1467.0295810337
0.11986414261053,1467.0395810337
0.119384748445852,1467.0495810337
0.11810147189222,1467.0595810337
0.116400098676751,1467.0695810337
0.114974425117125,1467.0795810337
0.114159900506172,1467.0895810337
0.113559380734967,1467.0995810337
0.11342228413874,1467.1095810337
0.113603285334132,1467.1195810337
0.113986076090977,1467.1295810337
0.114412698336371,1467.1395810337
0.114749348926031,1467.1495810337
0.114218181224482,1467.1595810337
0.112534212805653,1467.1695810337
0.109792342006617,1467.1795810337
0.105665486956194,1467.1895810337
0.100791565733983,1467.1995810337
0.0957181260762342,1467.2095810337
0.0914419260514297,1467.2195810337
0.0884637025466649,1467.2295810337
0.087357616163232,1467.2395810337
0.0872622401777371,1467.2495810337
0.088985181710028,1467.2595810337
0.0911189416287837,1467.2695810337
0.0938721400492795,1467.2795810337
0.0968730771916134,1467.2895810337
0.0991239447020443,1467.2995810337
0.101325270975052,1467.3095810337
0.103553142703318,1467.3195810337
0.105498979129926,1467.3295810337
0.106418956768014,1467.3395810337
0.106097521844874,1467.3495810337
0.104687582547843,1467.3595810337
0.101539740997184,1467.3695810337
0.0976705515221376,1467.3795810337
0.0935763729216254,1467.3895810337
0.0892522313910818,1467.3995810337
0.0846550963736621,1467.4095810337
0.0799992713769851,1467.4195810337
0.0748540745529134,1467.4295810337
0.0685071797609798,1467.4395810337
0.0621993802812715,1467.4495810337
0.0551773753411712,1467.4595810337
0.0479465125109479,1467.4695810337
0.040546892378194,1467.4795810337
0.0334158604797961,1467.4895810337
0.0270607956841747,1467.4995810337
0.020404698197762,1467.5095810337
0.0137027679211127,1467.5195810337
0.00658869529796023,1467.5295810337
-0.000913917929755643,1467.5395810337
-0.00852341684750425,1467.5495810337
-0.0163007806686331,1467.5595810337
-0.0236093088644137,1467.5695810337
-0.0303027824863529,1467.5795810337
-0.0365624815772812,1467.5895810337
-0.042688958477493,1467.5995810337
-0.0488071467178998,1467.6095810337
-0.0549383443925312,1467.6195810337
-0.0607551232031087,1467.6295810337
-0.0663111022220849,1467.6395810337
-0.0719362894550147,1467.6495810337
-0.0775490954863394,1467.6595810337
-0.0834488632092613,1467.6695810337
-0.0891243096791556,1467.6795810337
-0.0950847655716144,1467.6895810337
-0.101087991544651,1467.6995810337
-0.106990352323814,1467.7095810337
-0.113252708502952,1467.7195810337
-0.120232975140089,1467.7295810337
-0.127989627107291,1467.7395810337
-0.135768441350017,1467.7495810337
-0.143472084762015,1467.7595810337
-0.150606258071616,1467.7695810337
-0.15724916953731,1467.7795810337
-0.163690375410325,1467.7895810337
-0.17046840234803,1467.7995810337
-0.176938484392164,1467.8095810337
-0.183083181280448,1467.8195810337
-0.188861641576813,1467.8295810337
-0.194568543101798,1467.8395810337
-0.199794912948585,1467.8495810337
-0.205054765439271,1467.8595810337
-0.210772907766051,1467.8695810337
-0.216132434779493,1467.8795810337
-0.221523272744992,1467.8895810337
-0.227083292577316,1467.8995810337
-0.233309786976594,1467.9095810337
-0.240021323195677,1467.9195810337
-0.246627404286616,1467.9295810337
-0.253697501561594,1467.9395810337
-0.259866214510296,1467.9495810337
-0.264998637433407,1467.9595810337
-0.26677368258553,1467.9695810337
-0.263823276535484,1467.9795810337
-0.252673298565842,1467.9895810337
-0.232058339920099,1467.9995810337
-0.201920466809467,1468.0095810337
-0.162874250026845,1468.0195810337
-0.118158384119237,1468.0295810337
-0.0702923732794838,1468.0395810337
-0.0229874231947855,1468.0495810337
0.0210959072380506,1468.0595810337
0.0596785574450093,1468.0695810337
0.0912919901726581,1468.0795810337
0.115724456856291,1468.0895810337
0.133490644151356,1468.0995810337
0.145231808756753,1468.1095810337
0.152050601928391,1468.1195810337
0.155082930849679,1468.1295810337
0.155259422077767,1468.1395810337
0.153596471346953,1468.1495810337
0.149514335439079,1468.1595810337
0.144330027830747,1468.1695810337
0.138613001736492,1468.1795810337
0.133052316936196,1468.1895810337
0.128561790046603,1468.1995810337
0.125050581863678,1468.2095810337
0.122224031082642,1468.2195810337
0.119774143757026,1468.2295810337
0.116725587718808,1468.2395810337
0.113278242067388,1468.2495810337
0.109098538394675,1468.2595810337
0.103748787367792,1468.2695810337
0.0975441017375471,1468.2795810337
0.0914081062903733,1468.2895810337
0.0851807762033472,1468.2995810337
0.0798567138754746,1468.3095810337
0.0762454704781823,1468.3195810337
0.0744442946983377,1468.3295810337
0.0749872784789906,1468.3395810337
0.0777611898748237,1468.3495810337
0.082638925445342,1468.3595810337
0.0881089544776987,1468.3695810337
0.094804024112527,1468.3795810337
0.101687715772017,1468.3895810337
0.108073914979731,1468.3995810337
0.114122706211155,1468.4095810337
0.118525825807013,1468.4195810337
0.121758505854659,1468.4295810337
0.123000445385112,1468.4395810337
0.122914274561861,1468.4495810337
0.12058278575989,1468.4595810337
0.117359820872052,1468.4695810337
0.113157796061973,1468.4795810337
0.10844278774824,1468.4895810337
0.10282338325516,1468.4995810337
0.096619840104351,1468.5095810337
0.0897029110234294,1468.5195810337
0.0827523651195948,1468.5295810337
0.0754131821476153,1468.5395810337
0.0680087283401952,1468.5495810337
0.0604433950756761,1468.5595810337
0.052874760768801,1468.5695810337
0.0451609098730259,1468.5795810337
0.037445279279725,1468.5895810337
0.0298431073617016,1468.5995810337
0.0222795944049551,1468.6095810337
0.0149837964288442,1468.6195810337
0.00788478667656494,1468.6295810337
0.0011067413132544,1468.6395810337
-0.0055636301194421,1468.6495810337
-0.0119030776263447,1468.6595810337
-0.0179685846630741,1468.6695810337
-0.024241821870777,1468.6795810337
-0.0309559666169081,1468.6895810337
-0.0379503182674932,1468.6995810337
-0.044617817409403,1468.7095810337
-0.051279825811966,1468.7195810337
-0.0576054752424306,1468.7295810337
-0.0638201326656273,1468.7395810337
-0.0692165208665845,1468.7495810337
-0.0748980534902929,1468.7595810337
-0.0809860211631196,1468.7695810337
-0.0874601941122267,1468.7795810337
-0.0942267891427462,1468.7895810337
-0.100829026434914,1468.7995810337
-0.10744197445826,1468.8095810337
-0.114144548866152,1468.8195810337
-0.120383267741633,1468.8295810337
-0.126705356072671,1468.8395810337
-0.132321176577067,1468.8495810337
-0.137249485349321,1468.8595810337
-0.142363394881662,1468.8695810337
-0.147318296707534,1468.8795810337
-0.152409809367833,1468.8895810337
-0.158097862439882,1468.8995810337
-0.164358818317851,1468.9095810337
-0.170384737029457,1468.9195810337
-0.177192418184661,1468.9295810337
-0.184383452699734,1468.9395810337
-0.190951142971845,1468.9495810337
-0.197508692795765,1468.9595810337
-0.20396201920604,1468.9695810337
-0.21026433453547,1468.9795810337
-0.2164961671138,1468.9895810337
-0.22167660645177,1468.9995810337
-0.224291283832505,1469.0095810337
-0.221354962674983,1469.0195810337
-0.210476336671314,1469.0295810337
-0.189518177221218,1469.0395810337
-0.158400285558263,1469.0495810337
-0.118442652828445,1469.0595810337
-0.072003139005149,1469.0695810337
-0.0219466794494542,1469.0795810337
0.0279508794659166,1469.0895810337
0.0750155787278652,1469.0995810337
0.116892732572813,1469.1095810337
0.152499002267814,1469.1195810337
0.181234018811793,1469.1295810337
0.202551116826045,1469.1395810337
0.217419890569915,1469.1495810337
0.225903566239731,1469.1595810337
0.229510285363824,1469.1695810337
0.229408673666648,1469.1795810337
0.226618033376961,1469.1895810337
0.222480452134711,1469.1995810337
0.217300759363388,1469.2095810337
0.212043139094832,1469.2195810337
0.20714473078846,1469.2295810337
0.202402164782158,1469.2395810337
0.198384729060417,1469.2495810337
0.195187953147637,1469.2595810337
0.19172497774094,1469.2695810337
0.188137814498266,1469.2795810337
0.183287478832852,1469.2895810337
0.177674150142791,1469.2995810337
0.171359931382539,1469.3095810337
0.164921481270323,1469.3195810337
0.158123459589211,1469.3295810337
0.151683877635651,1469.3395810337
0.146015659968816,1469.3495810337
0.142437494210507,1469.3595810337
0.140408579908858,1469.3695810337
0.139980603602624,1469.3795810337
0.141754361620318,1469.3895810337
0.144902647630864,1469.3995810337
0.149208607863217,1469.4095810337
0.154257349847691,1469.4195810337
0.159816763400989,1469.4295810337
0.165044715803683,1469.4395810337
0.169115774262677,1469.4495810337
0.171921724068802,1469.4595810337
0.17314128882719,1469.4695810337
0.172694218352705,1469.4795810337
0.17061784550087,1469.4895810337
0.167210153160715,1469.4995810337
0.163148128425385,1469.5095810337
0.158786871920499,1469.5195810337
0.153827827531621,1469.5295810337
0.14871417336773,1469.5395810337
0.142482672183272,1469.5495810337
0.135441123753365,1469.5595810337
0.127445640648357,1469.5695810337
0.118983396650842,1469.5795810337
0.11103296183861,1469.5895810337
0.103094147835219,1469.5995810337
0.094454745881389,1469.6095810337
0.0862550637360975,1469.6195810337
0.0778415178523216,1469.6295810337
0.069523250628488,1469.6395810337
0.0611565851914274,1469.6495810337
0.0529134788787837,1469.6595810337
0.0451708445115785,1469.6695810337
0.0371135613109045,1469.6795810337
0.0296123070683767,1469.6895810337
0.022323136640025,1469.6995810337
0.0148174753874303,1469.7095810337
0.00721517977967707,1469.7195810337
-0.000253178768916587,1469.7295810337
-0.00753944524399241,1469.7395810337
-0.0144907155092633,1469.7495810337
-0.0214413144653294,1469.7595810337
-0.0277300265029879,1469.7695810337
-0.0341603398874303,1469.7795810337
-0.0408025643130439,1469.7895810337
-0.0468549607023605,1469.7995810337
-0.0532753850818959,1469.8095810337
-0.0601165802914715,1469.8195810337
-0.0674013997176244,1469.8295810337
-0.0754416436151979,1469.8395810337
-0.0837158583571634,1469.8495810337
-0.0920379113599176,1469.8595810337
-0.0999203319810426,1469.8695810337
-0.10702682302029,1469.8795810337
-0.113457557737487,1469.8895810337
-0.119613163923708,1469.8995810337
-0.125237435423845,1469.9095810337
-0.131138884201227,1469.9195810337
-0.137265220456682,1469.9295810337
-0.143372398783074,1469.9395810337
-0.149831824587838,1469.9495810337
-0.156144387336372,1469.9595810337
-0.162584124389088,1469.9695810337
-0.169189952545354,1469.9795810337
-0.176127021294822,1469.9895810337
-0.183251517201711,1469.9995810337
-0.19038303284651,1470.0095810337
-0.197618685770714,1470.0195810337
-0.204487701104803,1470.0295810337
-0.211210985562693,1470.0395810337
-0.21795284876074,1470.0495810337
-0.223926440264789,1470.0595810337
-0.227209853522769,1470.0695810337
-0.22485674693206,1470.0795810337
-0.21287768186126,1470.0895810337
-0.189396925686638,1470.0995810337
-0.154732090113101,1470.1095810337
-0.110378306156342,1470.1195810337
-0.0591583956748288,1470.1295810337
-0.00397800354312715,1470.1395810337
0.0516769330883438,1470.1495810337
0.104443722762018,1470.1595810337
0.15221395525769,1470.1695810337
0.192942819536144,1470.1795810337
0.22535122697062,1470.1895810337
0.249257552470204,1470.1995810337
0.265771438285539,1470.2095810337
0.275752949304472,1470.2195810337
0.280615175866077,1470.2295810337
0.281693617672487,1470.2395810337
0.280441405209735,1470.2495810337
0.27714794874149,1470.2595810337
0.272384958369536,1470.2695810337
0.267524158898313,1470.2795810337
0.262231778172028,1470.2895810337
0.257336028237815,1470.2995810337
0.253048497887998,1470.3095810337
0.24932740300277,1470.3195810337
0.246234998659993,1470.3295810337
0.243709324595109,1470.3395810337
0.240931761387714,1470.3495810337
0.237528346482322,1470.3595810337
0.232676905281645,1470.3695810337
0.2263935272854,1470.3795810337
0.219181885807094,1470.3895810337
0.211291724941561,1470.3995810337
0.20409307866359,1470.4095810337
0.198132730963574,1470.4195810337
0.193671075939155,1470.4295810337
0.191374323852112,1470.4395810337
0.190904381305881,1470.4495810337
0.191995903273604,1470.4595810337
0.194232791018555,1470.4695810337
0.196878457958348,1470.4795810337
0.199870059100034,1470.4895810337
0.202884880362444,1470.4995810337
0.205229524264524,1470.5095810337
0.207237260655669,1470.5195810337
0.208683624352351,1470.5295810337
0.208872248695529,1470.5395810337
0.208269545337979,1470.5495810337
0.206039844184035,1470.5595810337
0.202473918399731,1470.5695810337
0.197707283139676,1470.5795810337
0.191625053234366,1470.5895810337
0.184819977279988,1470.5995810337
0.177303795842838,1470.6095810337
0.16921347556098,1470.6195810337
0.160302943423178,1470.6295810337
0.151607646338232,1470.6395810337
0.142653213498385,1470.6495810337
0.133632041044257,1470.6595810337
0.124571855145683,1470.6695810337
0.115097928503,1470.6795810337
0.105712130822927,1470.6895810337
0.0967828532180886,1470.6995810337
0.0878117028086883,1470.7095810337
0.078904300931397,1470.7195810337
0.0697989032730869,1470.7295810337
0.060319276376098,1470.7395810337
0.0513501856813233,1470.7495810337
0.0424706083809073,1470.7595810337
0.0338505658539862,1470.7695810337
0.025885390928189,1470.7795810337
0.0180298316179207,1470.7895810337
0.0108280723145877,1470.7995810337
0.00331868982351894,1470.8095810337
-0.00438443421943627,1470.8195810337
-0.0122692597059115,1470.8295810337
-0.0208160872868867,1470.8395810337
-0.0291762658487464,1470.8495810337
-0.037120830645118,1470.8595810337
-0.0451539543239179,1470.8695810337
-0.0526686902188671,1470.8795810337
-0.0605183203422113,1470.8895810337
-0.0684494405437594,1470.8995810337
-0.0758384341916627,1470.9095810337
-0.082900954529026,1470.9195810337
-0.089980840063757,1470.9295810337
-0.0968946788914317,1470.9395810337
-0.104034270285081,1470.9495810337
-0.111781168756447,1470.9595810337
-0.119697186754269,1470.9695810337
-0.127740905514699,1470.9795810337
-0.13529412233627,1470.9895810337
-0.142621464797338,1470.9995810337
-0.14968327387447,1471.0095810337
-0.156318748686523,1471.0195810337
-0.162720546871716,1471.0295810337
-0.16933062643067,1471.0395810337
-0.176149853927809,1471.0495810337
-0.183304647218069,1471.0595810337
-0.190841809773533,1471.0695810337
-0.198921888245057,1471.0795810337
-0.206692324597002,1471.0895810337
-0.215060056751822,1471.0995810337
-0.222658016906924,1471.1095810337
-0.229719398026839,1471.1195810337
-0.235656082540485,1471.1295810337
-0.239175671541454,1471.1395810337
-0.237113291771517,1471.1495810337
-0.225940248111339,1471.1595810337
-0.203725728104854,1471.1695810337
-0.1701713234688,1471.1795810337
-0.127154987190247,1471.1895810337
-0.0775534921476227,1471.1995810337
-0.0246575079096536,1471.2095810337
0.0277565164191905,1471.2195810337
0.0781512693515558,1471.2295810337
0.123395853137321,1471.2395810337
0.162222502415846,1471.2495810337
0.193386923560463,1471.2595810337
0.217513992362185,1471.2695810337
0.234859153120078,1471.2795810337
0.245372964581729,1471.2895810337
0.250311875242124,1471.2995810337
0.250179644638997,1471.3095810337
0.247203636084214,1471.3195810337
0.241443879195489,1471.3295810337
0.234928720127431,1471.3395810337
0.227656930535954,1471.3495810337
0.22050489937754,1471.3595810337
0.21348975981187,1471.3695810337
0.206661465799674,1471.3795810337
0.200608802186714,1471.3895810337
0.194878538705775,1471.3995810337
0.188915686072705,1471.4095810337
0.182734038808257,1471.4195810337
0.175294503863866,1471.4295810337
0.166287033328055,1471.4395810337
0.156378526996553,1471.4495810337
0.145989194289162,1471.4595810337
0.136152195690961,1471.4695810337
0.126401360482144,1471.4795810337
0.118356392724154,1471.4895810337
0.112391643391744,1471.4995810337
0.108933674879233,1471.5095810337
0.107961086278941,1471.5195810337
0.109358416901638,1471.5295810337
0.111796128604308,1471.5395810337
0.115363614593608,1471.5495810337
0.120259467614956,1471.5595810337
0.125009981925063,1471.5695810337
0.130139056428139,1471.5795810337
0.134269540313911,1471.5895810337
0.137188263934961,1471.5995810337
0.138330061230229,1471.6095810337
0.137596169394571,1471.6195810337
0.135203395644221,1471.6295810337
0.131417562683633,1471.6395810337
0.126176436102321,1471.6495810337
0.119966355719123,1471.6595810337
0.113100881433329,1471.6695810337
0.10527605927414,1471.6795810337
0.0967012116051987,1471.6895810337
0.0875623602923916,1471.6995810337
0.0780434657864919,1471.7095810337
0.0684214359998083,1471.7195810337
0.0588464310048094,1471.7295810337
0.049305375270803,1471.7395810337
0.0401763361693406,1471.7495810337
0.0305155577074081,1471.7595810337
0.0207653864656447,1471.7695810337
0.0113355180403025,1471.7795810337
0.00177358687131131,1471.7895810337
-0.00746185646709553,1471.7995810337
-0.0163143149604874,1471.8095810337
-0.0248979721580147,1471.8195810337
-0.0326822448805816,1471.8295810337
-0.0406484465595521,1471.8395810337
-0.048794947555665,1471.8495810337
-0.0567474725403149,1471.8595810337
-0.0644247219158728,1471.8695810337
-0.0718759740633953,1471.8795810337
-0.0788300549486678,1471.8895810337
-0.0858330327457614,1471.8995810337
-0.0923328904271483,1471.9095810337
-0.0987527242488497,1471.9195810337
-0.104999330798667,1471.9295810337
-0.11121224701349,1471.9395810337
-0.117850356109937,1471.9495810337
-0.124805638068622,1471.9595810337
-0.131780555399223,1471.9695810337
-0.138235356746748,1471.9795810337
-0.144463361965792,1471.9895810337
-0.150432190014184,1471.9995810337
-0.156349626354087,1472.0095810337
-0.16257397996928,1472.0195810337
-0.169210564941271,1472.0295810337
-0.176203618226156,1472.0395810337
-0.183580268179868,1472.0495810337
-0.191019660835712,1472.0595810337
-0.19812442028773,1472.0695810337
-0.204456744168691,1472.0795810337
-0.210859735850448,1472.0895810337
-0.21783854734792,1472.0995810337
-0.224947632493997,1472.1095810337
-0.232514140443077,1472.1195810337
-0.240062442785615,1472.1295810337
-0.246886799959065,1472.1395810337
-0.252177887757349,1472.1495810337
-0.253421875981282,1472.1595810337
-0.246672175077335,1472.1695810337
-0.228796833471772,1472.1795810337
-0.199757514156632,1472.1895810337
-0.160731690005671,1472.1995810337
-0.115079541920364,1472.2095810337
-0.0646785759445929,1472.2195810337
-0.0129825967553461,1472.2295810337
0.0368674622520296,1472.2395810337
0.0827435492165445,1472.2495810337
0.121927361928917,1472.2595810337
0.153480947145165,1472.2695810337
0.177704818698981,1472.2795810337
0.194558276534545,1472.2895810337
0.204929118485471,1472.2995810337
0.209586586242668,1472.3095810337
0.210255543335823,1472.3195810337
0.207386271190571,1472.3295810337
0.202103505543458,1472.3395810337
0.195298679823261,1472.3495810337
0.187630550578907,1472.3595810337
0.179861335124841,1472.3695810337
0.172081407646258,1472.3795810337
0.164855131449201,1472.3895810337
0.157386908510603,1472.3995810337
0.149890846307161,1472.4095810337
0.142208715273578,1472.4195810337
0.133998444950987,1472.4295810337
0.124533634936546,1472.4395810337
0.113863611140863,1472.4495810337
0.102284619900075,1472.4595810337
0.0907758396283889,1472.4695810337
0.0806811645420335,1472.4795810337
0.0725783815697788,1472.4895810337
0.0670441151488576,1472.4995810337
0.064554360223124,1472.5095810337
0.0654411357174418,1472.5195810337
0.0691802055349658,1472.5295810337
0.074915207711339,1472.5395810337
0.0820680892884067,1472.5495810337
0.0896750884667988,1472.5595810337
0.0975969517819906,1472.5695810337
0.104018148447584,1472.5795810337
0.109851103632098,1472.5895810337
0.114268529406308,1472.5995810337
0.117406121478675,1472.6095810337
0.11936393044932,1472.6195810337
0.119088448874528,1472.6295810337
0.117829539189387,1472.6395810337
0.114817036621711,1472.6495810337
0.110513970963739,1472.6595810337
0.104548454936641,1472.6695810337
0.0977997532794211,1472.6795810337
0.0900335214469838,1472.6895810337
0.0814525461746061,1472.6995810337
0.0721637564308569,1472.7095810337
0.0631696146682889,1472.7195810337
0.0539467840615836,1472.7295810337
0.0448463886173898,1472.7395810337
0.0357667986975849,1472.7495810337
0.0266663208383103,1472.7595810337
0.018113529519101,1472.7695810337
0.00981051547945566,1472.7795810337
0.00131319143410082,1472.7895810337
-0.00674129324807472,1472.7995810337
-0.0151581366500686,1472.8095810337
-0.0242613170215868,1472.8195810337
-0.0328936481353151,1472.8295810337
-0.0405571305221513,1472.8395810337
-0.0480768841127703,1472.8495810337
-0.0555289001340511,1472.8595810337
-0.0629749281534746,1472.8695810337
-0.0703006454983356,1472.8795810337
-0.0780232146913714,1472.8895810337
-0.0856396071474399,1472.8995810337
-0.0929772232473058,1472.9095810337
-0.100576504381779,1472.9195810337
-0.107792259991284,1472.9295810337
-0.114583453109635,1472.9395810337
-0.120834699188099,1472.9495810337
-0.127065353864508,1472.9595810337
-0.133504184369261,1472.9695810337
-0.140035230809158,1472.9795810337
-0.146646659153649,1472.9895810337
-0.152906366366428,1472.9995810337
-0.159483663170119,1473.0095810337
-0.165876502875648,1473.0195810337
-0.172280459122994,1473.0295810337
-0.17902361414242,1473.0395810337
-0.18564927023448,1473.0495810337
-0.192248111036503,1473.0595810337
-0.198910045007843,1473.0695810337
-0.205471816463201,1473.0795810337
-0.212108169806646,1473.0895810337
-0.21898069719689,1473.0995810337
-0.22603425481016,1473.1095810337
-0.233317359843481,1473.1195810337
-0.240607930444894,1473.1295810337
-0.247599284367338,1473.1395810337
-0.252226634387259,1473.1495810337
-0.251750274084157,1473.1595810337
-0.241759257204555,1473.1695810337
-0.219344488653434,1473.1795810337
-0.184433432697964,1473.1895810337
-0.138912032589102,1473.1995810337
-0.0861584106154487,1473.2095810337
-0.0298798944646796,1473.2195810337
0.0263451243095102,1473.2295810337
0.0799164823112386,1473.2395810337
0.128035215888402,1473.2495810337
0.169580717008208,1473.2595810337
0.203096457892152,1473.2695810337
0.228296840229072,1473.2795810337
0.245692935280347,1473.2895810337
0.256920956364835,1473.2995810337
0.262458292544834,1473.3095810337
0.264080971515749,1473.3195810337
0.262763110461998,1473.3295810337
0.259140161407989,1473.3395810337
0.254465382773783,1473.3495810337
0.248363412013259,1473.3595810337
0.241966667316019,1473.3695810337
0.235276577757508,1473.3795810337
0.229008778439073,1473.3895810337
0.22334999624,1473.3995810337
0.218671174103471,1473.4095810337
0.21453404043264,1473.4195810337
0.210789532921437,1473.4295810337
0.206291194748625,1473.4395810337
0.201304597006284,1473.4495810337
0.194712883728834,1473.4595810337
0.186977089151536,1473.4695810337
0.178779140468258,1473.4795810337
0.170592324680838,1473.4895810337
0.163329011506251,1473.4995810337
0.15796371077929,1473.5095810337
0.154849521066643,1473.5195810337
0.15399134339671,1473.5295810337
0.155469220232219,1473.5395810337
0.159335236513868,1473.5495810337
0.164044040840784,1473.5595810337
0.168855498554868,1473.5695810337
0.172677305852794,1473.5795810337
0.176138364385317,1473.5895810337
0.178868899621186,1473.5995810337
0.180573511511742,1473.6095810337
0.181867987933675,1473.6195810337
0.182402053407025,1473.6295810337
0.181212877807435,1473.6395810337
0.178625088644199,1473.6495810337
0.174672007492284,1473.6595810337
0.169151011866767,1473.6695810337
0.162384623230137,1473.6795810337
0.15476711923224,1473.6895810337
0.146269874914518,1473.6995810337
0.137686073474054,1473.7095810337
0.128930533348228,1473.7195810337
0.119947957555493,1473.7295810337
0.110816476306839,1473.7395810337
0.101303520346411,1473.7495810337
0.0915456812279882,1473.7595810337
0.0816757862263548,1473.7695810337
0.0725142579229966,1473.7795810337
0.0630612273258166,1473.7895810337
0.0543062228795984,1473.7995810337
0.0455716521410754,1473.8095810337
0.0373196825448261,1473.8195810337
0.0290421542597889,1473.8295810337
0.0204224819792848,1473.8395810337
0.0116101023841485,1473.8495810337
0.00310687893878561,1473.8595810337
-0.00536389033712466,1473.8695810337
-0.013941669954756,1473.8795810337
-0.022419437009514,1473.8895810337
-0.0309591716040285,1473.8995810337
-0.0392240058213545,1473.9095810337
-0.0474234659024973,1473.9195810337
-0.0555504264438622,1473.9295810337
-0.0636316901653515,1473.9395810337
-0.0714589912861408,1473.9495810337
-0.0790214750572154,1473.9595810337
-0.0860181450749225,1473.9695810337
-0.0928715676366275,1473.9795810337
-0.0999484123490599,1473.9895810337
-0.106706283240387,1473.9995810337
-0.113319044683565,1474.0095810337
-0.119818221064124,1474.0195810337
-0.126312144032344,1474.0295810337
-0.133243243839422,1474.0395810337
-0.139505775412354,1474.0495810337
-0.145799415898684,1474.0595810337
-0.152714137522746,1474.0695810337
-0.159575135682423,1474.0795810337
-0.16693665271448,1474.0895810337
-0.174889075256722,1474.0995810337
-0.18281341736212,1474.1095810337
-0.190861170598641,1474.1195810337
-0.198719290668351,1474.1295810337
-0.206444879997795,1474.1395810337
-0.213795664320818,1474.1495810337
-0.220536989084721,1474.1595810337
-0.225740887726898,1474.1695810337
-0.227062890072649,1474.1795810337
-0.221029569152693,1474.1895810337
-0.203752459699439,1474.1995810337
-0.174260313067828,1474.2095810337
-0.132813154368104,1474.2195810337
-0.0821922799478884,1474.2295810337
-0.0260654477549808,1474.2395810337
0.0315946868085359,1474.2495810337
0.0877211331936784,1474.2595810337
0.139551025507799,1474.2695810337
0.185573155582519,1474.2795810337
0.224275408451869,1474.2895810337
0.255471526498423,1474.2995810337
0.27902622284231,1474.3095810337
0.295013783003198,1474.3195810337
0.304400703649095,1474.3295810337
0.308340126299403,1474.3395810337
0.307879576236889,1474.3495810337
0.303914887506235,1474.3595810337
0.297991672553329,1474.3695810337
0.29044412374132,1474.3795810337
0.282851551113894,1474.3895810337
0.275195585103264,1474.3995810337
0.268230753584305,1474.4095810337
0.262010627766486,1474.4195810337
0.256940235330385,1474.4295810337
0.252053059974004,1474.4395810337
0.247306906499894,1474.4495810337
0.242230795456168,1474.4595810337
0.236232181761104,1474.4695810337
0.228771507109043,1474.4795810337
0.219687225257982,1474.4895810337
0.210046620360797,1474.4995810337
0.199862302025427,1474.5095810337
0.189794270264581,1474.5195810337
0.181266472155383,1474.5295810337
0.174908180035001,1474.5395810337
0.170808788041116,1474.5495810337
0.168776523333342,1474.5595810337
0.168768066813483,1474.5695810337
0.170040295681372,1474.5795810337
0.172163813283457,1474.5895810337
0.175194310930932,1474.5995810337
0.178155658976105,1474.6095810337
0.18111299424089,1474.6195810337
0.183319115209045,1474.6295810337
0.183713102627129,1474.6395810337
0.183021709758383,1474.6495810337
0.180463475931,1474.6595810337
0.175999294001461,1474.6695810337
0.17041211029848,1474.6795810337
0.163409836576324,1474.6895810337
0.156210184392312,1474.6995810337
0.148535026803981,1474.7095810337
0.140492788052353,1474.7195810337
0.131923249172484,1474.7295810337
0.122777478457584,1474.7395810337
0.112855118765575,1474.7495810337
0.103311791996212,1474.7595810337
0.0934082003038921,1474.7695810337
0.0833989537784926,1474.7795810337
0.0730096736409771,1474.7895810337
0.0623677968171177,1474.7995810337
0.0520809643753945,1474.8095810337
0.0418037410233525,1474.8195810337
0.0312877183859568,1474.8295810337
0.0209442199189151,1474.8395810337
0.0106635302211955,1474.8495810337
0.00057203323303575,1474.8595810337
-0.00869241983777991,1474.8695810337
-0.01815924154803,1474.8795810337
-0.0276553473753024,1474.8895810337
-0.0368733351135182,1474.8995810337
-0.045957960587384,1474.9095810337
-0.0544992639694587,1474.9195810337
-0.0626417330008371,1474.9295810337
-0.0698954844944706,1474.9395810337
-0.077425568655577,1474.9495810337
-0.0850036842285378,1474.9595810337
-0.0921136134139321,1474.9695810337
-0.0999160335186171,1474.9795810337
-0.107170915781829,1474.9895810337
-0.114447130268777,1474.9995810337
-0.122338670002891,1475.0095810337
-0.130099899701654,1475.0195810337
-0.138706925757859,1475.0295810337
-0.147394259688428,1475.0395810337
-0.156221554077964,1475.0495810337
-0.164189170512867,1475.0595810337
-0.171871592492669,1475.0695810337
-0.178765270320171,1475.0795810337
-0.184741112886851,1475.0895810337
-0.190773832712537,1475.0995810337
-0.197478961621959,1475.1095810337
-0.204233559935488,1475.1195810337
-0.211632493456494,1475.1295810337
-0.219282966654022,1475.1395810337
-0.227243304078484,1475.1495810337
-0.236058913125297,1475.1595810337
-0.244602937249543,1475.1695810337
-0.252667416269759,1475.1795810337
-0.260604427620156,1475.1895810337
-0.267773675544224,1475.1995810337
-0.275213963221114,1475.2095810337
-0.282353634693908,1475.2195810337
-0.288656399339029,1475.2295810337
-0.291250158165314,1475.2395810337
-0.285494797528256,1475.2495810337
-0.267959192395383,1475.2595810337
-0.237453449668474,1475.2695810337
-0.195107890933003,1475.2795810337
-0.144536215984095,1475.2895810337
-0.0899664240063088,1475.2995810337
-0.0349216305810078,1475.3095810337
0.0169077991988431,1475.3195810337
0.0635443734187957,1475.3295810337
0.103951781170933,1475.3395810337
0.137670106296743,1475.3495810337
0.163932938796646,1475.3595810337
0.182592636214816,1475.3695810337
0.194805285883863,1475.3795810337
0.200615505928878,1475.3895810337
0.201578707016133,1475.3995810337
0.198574633378488,1475.4095810337
0.192596046968492,1475.4195810337
0.185032127080001,1475.4295810337
0.17628894495224,1475.4395810337
0.166719552247514,1475.4495810337
0.156877497738148,1475.4595810337
0.147110214876355,1475.4695810337
0.13811183045627,1475.4795810337
0.129361962784438,1475.4895810337
0.12143427592221,1475.4995810337
0.11330713922027,1475.5095810337
0.105261683134469,1475.5195810337
0.096552235152372,1475.5295810337
0.0871765113111282,1475.5395810337
0.0777543034482722,1475.5495810337
0.0677048780226971,1475.5595810337
0.0575733219568092,1475.5695810337
0.0483169838933934,1475.5795810337
0.0404067316250198,1475.5895810337
0.0350190124614954,1475.5995810337
0.0327741193127944,1475.6095810337
0.0332666861772531,1475.6195810337
0.0361952336553271,1475.6295810337
0.041073202688479,1475.6395810337
0.0471086565866121,1475.6495810337
0.0537887809408413,1475.6595810337
0.0598533410012698,1475.6695810337
0.0652313615367552,1475.6795810337
0.0694872343304482,1475.6895810337
0.0722624644569823,1475.6995810337
0.0739599354928207,1475.7095810337
0.0736792035639545,1475.7195810337
0.0720162369939407,1475.7295810337
0.0684280288261155,1475.7395810337
0.063307855659381,1475.7495810337
0.0569869685312525,1475.7595810337
0.0494217585341985,1475.7695810337
0.0412320315011832,1475.7795810337
0.0328461537842898,1475.7895810337
0.0240650577520418,1475.7995810337
0.0153099829006085,1475.8095810337
0.00631192528245151,1475.8195810337
-0.00310139758427578,1475.8295810337
-0.0125423948408628,1475.8395810337
-0.0220072953492962,1475.8495810337
-0.0308938948524385,1475.8595810337
-0.039525677083817,1475.8695810337
-0.0479650452986713,1475.8795810337
-0.0568402579554283,1475.8895810337
-0.0653666332698403,1475.8995810337
-0.0738175511870666,1475.9095810337
-0.0822847445336175,1475.9195810337
-0.0902167321414486,1475.9295810337
-0.0975741736687586,1475.9395810337
-0.104353725380604,1475.9495810337
-0.110658386778966,1475.9595810337
-0.116510075790436,1475.9695810337
-0.122551052537012,1475.9795810337
-0.128768537844092,1475.9895810337
-0.135088248659613,1475.9995810337
-0.14189647648172,1476.0095810337
-0.148480612490256,1476.0195810337
-0.155452215056769,1476.0295810337
-0.162671998464318,1476.0395810337
-0.169736577924605,1476.0495810337
-0.17668896482937,1476.0595810337
-0.183497964070409,1476.0695810337
-0.189962539449335,1476.0795810337
-0.196423317435849,1476.0895810337
-0.203171910716879,1476.0995810337
-0.210609322570586,1476.1095810337
-0.217744153799379,1476.1195810337
-0.22447369496995,1476.1295810337
-0.230455928320798,1476.1395810337
-0.236666540074769,1476.1495810337
-0.24324286670027,1476.1595810337
-0.24994674680064,1476.1695810337
-0.257205972355803,1476.1795810337
-0.264176904821204,1476.1895810337
-0.271455408600823,1476.1995810337
-0.278738459606398,1476.2095810337
-0.285976402915238,1476.2195810337
-0.292732300116254,1476.2295810337
-0.298614723550888,1476.2395810337
-0.302557758611305,1476.2495810337
-0.300613952259645,1476.2595810337
-0.288767490122922,1476.2695810337
-0.264089022981538,1476.2795810337
-0.227512449414756,1476.2895810337
-0.181172437312643,1476.2995810337
-0.129864635403507,1476.3095810337
-0.0765630195134196,1476.3195810337
-0.02466903499112,1476.3295810337
0.0234489795834709,1476.3395810337
0.0661222801901535,1476.3495810337
0.102068875359493,1476.3595810337
0.130956574442673,1476.3695810337
0.153388762499016,1476.3795810337
0.169276596473891,1476.3895810337
0.178434105128021,1476.3995810337
0.182056624371605,1476.4095810337
0.181056008782044,1476.4195810337
0.176410528870324,1476.4295810337
0.169257159072856,1476.4395810337
0.160455557167448,1476.4495810337
0.150737448542641,1476.4595810337
0.141225010576747,1476.4695810337
0.132523530301872,1476.4795810337
0.124343533083993,1476.4895810337
0.116236500498386,1476.4995810337
0.107958822759036,1476.5095810337
0.0994378198555952,1476.5195810337
0.0903561303787201,1476.5295810337
0.0811073645673484,1476.5395810337
0.071054328828962,1476.5495810337
0.0601241679950755,1476.5595810337
0.0480168962242205,1476.5695810337
0.0362994879911274,1476.5795810337
0.0255424063023853,1476.5895810337
0.0166378375026656,1476.5995810337
0.0100397125551934,1476.6095810337
0.00650575099187069,1476.6195810337
0.00646053302965761,1476.6295810337
0.00881734096775443,1476.6395810337
0.0141909524087601,1476.6495810337
0.021110927378709,1476.6595810337
0.0287403064301216,1476.6695810337
0.0361299719782731,1476.6795810337
0.0428224459400108,1476.6895810337
0.0479342129873457,1476.6995810337
0.0512502420203868,1476.7095810337
0.0527274964761995,1476.7195810337
0.0526510874692049,1476.7295810337
0.0510002459391781,1476.7395810337
0.0474033072752077,1476.7495810337
0.0424950326559005,1476.7595810337
0.0356083570229006,1476.7695810337
0.0270615267593299,1476.7795810337
0.0183262003897476,1476.7895810337
0.00934450599272735,1476.7995810337
0.000446998267530172,1476.8095810337
-0.00799372142967138,1476.8195810337
-0.0164900762318281,1476.8295810337
-0.0246815579071986,1476.8395810337
-0.0324388535965321,1476.8495810337
-0.0403472111172706,1476.8595810337
-0.0486542487769708,1476.8695810337
-0.0571884792294728,1476.8795810337
-0.0663367610784748,1476.8895810337
-0.075291944341012,1476.8995810337
-0.0840690746028503,1476.9095810337
-0.092485333218252,1476.9195810337
-0.100972230711944,1476.9295810337
-0.109161205523635,1476.9395810337
-0.117034340424755,1476.9495810337
-0.124911668967811,1476.9595810337
-0.132468232194507,1476.9695810337
-0.140118513694273,1476.9795810337
-0.147422883091958,1476.9895810337
-0.154719862622476,1476.9995810337
-0.162142920721283,1477.0095810337
-0.169519776229293,1477.0195810337
-0.176586518938971,1477.0295810337
-0.183460690529497,1477.0395810337
-0.189871933755164,1477.0495810337
-0.195753572073723,1477.0595810337
-0.201652388270065,1477.0695810337
-0.207067428401609,1477.0795810337
-0.212068644265439,1477.0895810337
-0.217078810731269,1477.0995810337
-0.22236069525348,1477.1095810337
-0.228432402073768,1477.1195810337
-0.234980330293777,1477.1295810337
-0.241511104113794,1477.1395810337
-0.247419330012262,1477.1495810337
-0.253240268239981,1477.1595810337
-0.258959115129057,1477.1695810337
-0.264807651197765,1477.1795810337
-0.27029611732482,1477.1895810337
-0.276539448564458,1477.1995810337
-0.28324959927732,1477.2095810337
-0.289443853940908,1477.2195810337
-0.296000162861897,1477.2295810337
-0.303301894496702,1477.2395810337
-0.310931873996536,1477.2495810337
-0.318922809892114,1477.2595810337
-0.326399166345612,1477.2695810337
-0.332223914495951,1477.2795810337
-0.334535463593328,1477.2895810337
-0.329827382097489,1477.2995810337
-0.313792225118355,1477.3095810337
-0.284149894242272,1477.3195810337
-0.241937492724568,1477.3295810337
-0.190517022550974,1477.3395810337
-0.134334231646007,1477.3495810337
-0.0764051247188262,1477.3595810337
-0.0205030835941908,1477.3695810337
0.0317446412921517,1477.3795810337
0.0783645068007412,1477.3895810337
0.118518618103428,1477.3995810337
0.151514424580756,1477.4095810337
0.17742035168933,1477.4195810337
0.195933103040365,1477.4295810337
0.208383231143413,1477.4395810337
0.215082375467509,1477.4495810337
0.216957848522803,1477.4595810337
0.215047905623885,1477.4695810337
0.210103455442834,1477.4795810337
0.203267985058101,1477.4895810337
0.194938773446637,1477.4995810337
0.186221371555266,1477.5095810337
0.177704130404468,1477.5195810337
0.16973082566008,1477.5295810337
0.162081055785306,1477.5395810337
0.154864940916979,1477.5495810337
0.147737889223373,1477.5595810337
0.140196018622394,1477.5695810337
0.13223512637791,1477.5795810337
0.123846392438957,1477.5895810337
0.114478305219975,1477.5995810337
0.104749234018867,1477.6095810337
0.0944314421000137,1477.6195810337
0.0846382194033447,1477.6295810337
0.0755026147723125,1477.6395810337
0.0678385830542262,1477.6495810337
0.0623171683135507,1477.6595810337
0.0596944194188607,1477.6695810337
0.0601072231221575,1477.6795810337
0.061748753931116,1477.6895810337
0.0657239072289471,1477.6995810337
0.0703979836970493,1477.7095810337
0.0753511974255311,1477.7195810337
0.080228984903363,1477.7295810337
0.0845524502793602,1477.7395810337
0.0882646979170585,1477.7495810337
0.0906018152733788,1477.7595810337
0.0911005409509022,1477.7695810337
0.0892055781458947,1477.7795810337
0.0857107950077437,1477.7895810337
0.0809296109889744,1477.7995810337
0.0748314329932317,1477.8095810337
0.0680708027432905,1477.8195810337
0.0606340813518279,1477.8295810337
0.0528491893201054,1477.8395810337
0.0443709557717809,1477.8495810337
0.0350820693022179,1477.8595810337
0.0250868238934611,1477.8695810337
0.0154432235545604,1477.8795810337
0.00567951838547749,1477.8895810337
-0.00378595076079379,1477.8995810337
-0.0131198596341034,1477.9095810337
-0.0234660865362829,1477.9195810337
-0.0327556093991454,1477.9295810337
-0.0420057725853655,1477.9395810337
-0.0510342531070178,1477.9495810337
-0.0598077656290613,1477.9595810337
-0.0685080284902436,1477.9695810337
-0.0772289553053668,1477.9795810337
-0.0859542244098439,1477.9895810337
-0.0945859999262291,1477.9995810337
-0.103247108914874,1478.0095810337
-0.111490439092816,1478.0195810337
-0.120118554660747,1478.0295810337
-0.128415715987623,1478.0395810337
-0.136713774596897,1478.0495810337
-0.144497156634229,1478.0595810337
-0.15197852027402,1478.0695810337
-0.159407121063276,1478.0795810337
-0.166803592125473,1478.0895810337
-0.174283131752406,1478.0995810337
-0.181713289090746,1478.1095810337
-0.189143058112321,1478.1195810337
-0.196563772787953,1478.1295810337
-0.204212426853686,1478.1395810337
-0.212271315272258,1478.1495810337
-0.219987492595588,1478.1595810337
-0.227180207288014,1478.1695810337
-0.234418116984637,1478.1795810337
-0.241680036853749,1478.1895810337
-0.248544189413197,1478.1995810337
-0.255125184505482,1478.2095810337
-0.26180767354668,1478.2195810337
-0.268002090750997,1478.2295810337
-0.274257935172145,1478.2395810337
-0.280424117199549,1478.2495810337
-0.286515512752649,1478.2595810337
-0.292765914131085,1478.2695810337
-0.299213062901707,1478.2795810337
-0.306055382421187,1478.2895810337
-0.312288102257312,1478.2995810337
-0.31900739437135,1478.3095810337
-0.325672049435938,1478.3195810337
-0.332281585284232,1478.3295810337
-0.338698421178661,1478.3395810337
-0.344971369390172,1478.3495810337
-0.349829179205507,1478.3595810337
-0.351246143118213,1478.3695810337
-0.343925750801202,1478.3795810337
-0.324008940388685,1478.3895810337
-0.289599758945239,1478.3995810337
-0.242484540092231,1478.4095810337
-0.187759298008203,1478.4195810337
-0.130047341936671,1478.4295810337
-0.0734168340232019,1478.4395810337
-0.0206463327695491,1478.4495810337
0.0262913053094186,1478.4595810337
0.0668994372457349,1478.4695810337
0.100570083436623,1478.4795810337
0.128129256838039,1478.4895810337
0.149332798744617,1478.4995810337
0.164388423048402,1478.5095810337
0.173578903123994,1478.5195810337
0.177242168065807,1478.5295810337
0.176773007113014,1478.5395810337
0.173179751666,1478.5495810337
0.166920979803101,1478.5595810337
0.158899058159228,1478.5695810337
0.149503107967747,1478.5795810337
0.139401802894354,1478.5895810337
0.129114917632433,1478.5995810337
0.11876892782905,1478.6095810337
0.109537938141212,1478.6195810337
0.100875158036273,1478.6295810337
0.0927172894497882,1478.6395810337
0.0849065126497838,1478.6495810337
0.0762709504614413,1478.6595810337
0.0660925721582941,1478.6695810337
0.0548016083079789,1478.6795810337
0.0424289464213131,1478.6895810337
0.0297594713185174,1478.6995810337
0.0173796119759627,1478.7095810337
0.00635630180556358,1478.7195810337
-0.00212385429511418,1478.7295810337
-0.00794849876393251,1478.7395810337
-0.0102110577373238,1478.7495810337
-0.00894058589663798,1478.7595810337
-0.00484036428862104,1478.7695810337
0.00132741605168237,1478.7795810337
0.00849203594318219,1478.7895810337
0.016418512977788,1478.7995810337
0.0232263530137024,1478.8095810337
0.0288833664214097,1478.8195810337
0.0327283644924148,1478.8295810337
0.0345952678215015,1478.8395810337
0.035117610257245,1478.8495810337
0.0336172416295808,1478.8595810337
0.0313982174151686,1478.8695810337
0.0269366518892545,1478.8795810337
0.0214625395262833,1478.8895810337
0.0142839258086199,1478.8995810337
0.00685654543308963,1478.9095810337
-0.00102362801701315,1478.9195810337
-0.00938749079932116,1478.9295810337
-0.017512033290522,1478.9395810337
-0.0253232315107346,1478.9495810337
-0.033169925851093,1478.9595810337
-0.041061955543443,1478.9695810337
-0.0496315884428068,1478.9795810337
-0.0589241636076772,1478.9895810337
-0.068234313064714,1478.9995810337
-0.0780400111077101,1479.0095810337
-0.0872820177935152,1479.0195810337
-0.0962322117992707,1479.0295810337
-0.105267477178783,1479.0395810337
-0.113851187199498,1479.0495810337
-0.121864530138131,1479.0595810337
-0.129913274006901,1479.0695810337
-0.138008799160487,1479.0795810337
-0.145500603832315,1479.0895810337
-0.152965302713791,1479.0995810337
-0.159863964613126,1479.1095810337
-0.167063310218106,1479.1195810337
-0.174857448125576,1479.1295810337
-0.182691276633467,1479.1395810337
-0.190484017889104,1479.1495810337
-0.197992326142301,1479.1595810337
-0.20515991495755,1479.1695810337
-0.21208022123848,1479.1795810337
-0.218695735962675,1479.1895810337
-0.225485410067892,1479.1995810337
-0.232446651833047,1479.2095810337
-0.239003424868702,1479.2195810337
-0.245304247224899,1479.2295810337
-0.25097850048549,1479.2395810337
-0.256573610590135,1479.2495810337
-0.262098529209945,1479.2595810337
-0.267566960542582,1479.2695810337
-0.273467552332286,1479.2795810337
-0.279573010766585,1479.2895810337
-0.285959474750771,1479.2995810337
-0.292179308638796,1479.3095810337
-0.298411221723129,1479.3195810337
-0.304302567138094,1479.3295810337
-0.309926908085318,1479.3395810337
-0.315364349823286,1479.3495810337
-0.321197720384046,1479.3595810337
-0.327259743732959,1479.3695810337
-0.331998562701345,1479.3795810337
-0.331459091896457,1479.3895810337
-0.320776737098672,1479.3995810337
-0.296475294444644,1479.4095810337
-0.258274788729391,1479.4195810337
-0.209623571699418,1479.4295810337
-0.155260921905958,1479.4395810337
-0.100702001509671,1479.4495810337
-0.0476460154198725,1479.4595810337
0.000494155723238128,1479.4695810337
0.0426872766708098,1479.4795810337
0.0789758146578278,1479.4895810337
0.108043190011165,1479.4995810337
0.131060409293863,1479.5095810337
0.147947054233112,1479.5195810337
0.159809221645565,1479.5295810337
0.165944069710753,1479.5395810337
0.16703134699941,1479.5495810337
0.164068105384054,1479.5595810337
0.158216325271962,1479.5695810337
0.14979552206622,1479.5795810337
0.140539858847214,1479.5895810337
0.131000341847783,1479.5995810337
0.12116240905642,1479.6095810337
0.111069213213465,1479.6195810337
0.101134236704178,1479.6295810337
0.0911996652513349,1479.6395810337
0.0812452782888424,1479.6495810337
0.071047448752573,1479.6595810337
0.0601565413318283,1479.6695810337
0.0481582557986213,1479.6795810337
0.0351872927810618,1479.6895810337
0.021426384570489,1479.6995810337
0.00729113801520591,1479.7095810337
-0.00649780685671349,1479.7195810337
-0.018418207602859,1479.7295810337
-0.0281335810932506,1479.7395810337
-0.0344918238431996,1479.7495810337
-0.0372483062998473,1479.7595810337
-0.036382336356951,1479.7695810337
-0.0319375588218838,1479.7795810337
-0.0250466285016197,1479.7895810337
-0.016992987098693,1479.7995810337
-0.00898507400378168,1479.8095810337
-0.00173308971784421,1479.8195810337
0.00398149297560552,1479.8295810337
0.00869993394341444,1479.8395810337
0.0115992626111375,1479.8495810337
0.0127413911959813,1479.8595810337
0.012187937546396,1479.8695810337
0.00967542327876993,1479.8795810337
0.00565047527841953,1479.8895810337
-0.000257544412705235,1479.8995810337
-0.00704846943108026,1479.9095810337
-0.0147972536676877,1479.9195810337
-0.0231962969891501,1479.9295810337
-0.032386920825807,1479.9395810337
-0.0421944811352677,1479.9495810337
-0.0514657245322004,1479.9595810337
-0.0610535560058084,1479.9695810337
-0.0708014545592676,1479.9795810337
-0.0805534219093227,1479.9895810337
-0.0898617798150893,1479.9995810337
-0.0990844298940015,1480.0095810337
-0.107869042112146,1480.0195810337
-0.116848100717422,1480.0295810337
-0.125983291917028,1480.0395810337
-0.134830474995946,1480.0495810337
-0.144120727269455,1480.0595810337
-0.152603996057898,1480.0695810337
-0.161194934923711,1480.0795810337
-0.17012203181134,1480.0895810337
-0.178181441100659,1480.0995810337
-0.186584951064642,1480.1095810337
-0.194883866870938,1480.1195810337
-0.202853127895116,1480.1295810337
-0.210568851925647,1480.1395810337
-0.218565410734459,1480.1495810337
-0.226168069333111,1480.1595810337
-0.233247069224128,1480.1695810337
-0.240268789214747,1480.1795810337
-0.246828211577746,1480.1895810337
-0.253167059957919,1480.1995810337
-0.259402774935563,1480.2095810337
-0.265111451458461,1480.2195810337
-0.270913193717586,1480.2295810337
-0.276770149918597,1480.2395810337
-0.282176574337787,1480.2495810337
-0.287357205171783,1480.2595810337
-0.292315542420138,1480.2695810337
-0.296822337154568,1480.2795810337
-0.301940561822204,1480.2895810337
-0.306761794621833,1480.2995810337
-0.312076228027982,1480.3095810337
-0.317589384002567,1480.3195810337
-0.324065580132274,1480.3295810337
-0.330330293902468,1480.3395810337
-0.336575266182439,1480.3495810337
-0.342594164239252,1480.3595810337
-0.348597000314542,1480.3695810337
-0.353724234687454,1480.3795810337
-0.359171115865279,1480.3895810337
-0.364042856911444,1480.3995810337
-0.36709360383023,1480.4095810337
-0.36577656266886,1480.4195810337
-0.353627759265361,1480.4295810337
-0.32751776933316,1480.4395810337
-0.286680785697604,1480.4495810337
-0.235097661187568,1480.4595810337
-0.178071963378377,1480.4695810337
-0.121371014105928,1480.4795810337
-0.0677744026208615,1480.4895810337
-0.0201793866565947,1480.4995810337
0.0214015541399792,1480.5095810337
0.0565173487670643,1480.5195810337
0.0856120571888421,1480.5295810337
0.108070670542643,1480.5395810337
0.124654211956732,1480.5495810337
0.136202380243474,1480.5595810337
0.142798871712899,1480.5695810337
0.144700395482014,1480.5795810337
0.143135326840188,1480.5895810337
0.138340372509179,1480.5995810337
0.131217301404024,1480.6095810337
0.122734088470237,1480.6195810337
0.113147065368196,1480.6295810337
0.103361267797473,1480.6395810337
0.0936594704058569,1480.6495810337
0.0837351722197394,1480.6595810337
0.074482345379658,1480.6695810337
0.0648554641287084,1480.6795810337
0.0549627331128569,1480.6895810337
0.0439849565497096,1480.6995810337
0.0317591299294422,1480.7095810337
0.0188745494180985,1480.7195810337
0.00604488254333396,1480.7295810337
-0.00635584295815626,1480.7395810337
-0.0186388788877729,1480.7495810337
-0.0299842681046785,1480.7595810337
-0.0392434327076532,1480.7695810337
-0.0460248550943701,1480.7795810337
-0.0489564497495862,1480.7895810337
-0.0485970410390507,1480.7995810337
-0.0442629538824826,1480.8095810337
-0.0366690523466085,1480.8195810337
-0.027382246329377,1480.8295810337
-0.0175349384931637,1480.8395810337
-0.00810152325538116,1480.8495810337
-2.99910815670164e-05,1480.8595810337
0.00679365434297971,1480.8695810337
0.0112739697808998,1480.8795810337
0.0141009571004905,1480.8895810337
0.0154490483140758,1480.8995810337
0.0146014507378305,1480.9095810337
0.0124710351613657,1480.9195810337
0.00849475238880028,1480.9295810337
0.00336123598503473,1480.9395810337
-0.00259573661306567,1480.9495810337
-0.00881543935079249,1480.9595810337
-0.0154602772924025,1480.9695810337
-0.0228178173683656,1480.9795810337
-0.0304903413030168,1480.9895810337
-0.0384810914052234,1480.9995810337
-0.0464052581729563,1481.0095810337
-0.0540719273124453,1481.0195810337
-0.0618817290222829,1481.0295810337
-0.0694945552111688,1481.0395810337
-0.0776132560234981,1481.0495810337
-0.0858807579669258,1481.0595810337
-0.0943640753703522,1481.0695810337
-0.102805128870814,1481.0795810337
-0.110904334424381,1481.0895810337
-0.118930046497121,1481.0995810337
-0.126450237663847,1481.1095810337
-0.133893591083175,1481.1195810337
-0.141632533904947,1481.1295810337
-0.149302028745538,1481.1395810337
-0.157152707075824,1481.1495810337
-0.164738185845107,1481.1595810337
-0.173138498495407,1481.1695810337
-0.181590727545843,1481.1795810337
-0.189487829749437,1481.1895810337
-0.196592042632337,1481.1995810337
-0.203321891611824,1481.2095810337
-0.209992513559748,1481.2195810337
-0.216341982756712,1481.2295810337
-0.222901476185809,1481.2395810337
-0.229487989328785,1481.2495810337
-0.236130795521085,1481.2595810337
-0.242150927939433,1481.2695810337
-0.248093190793915,1481.2795810337
-0.254194296210544,1481.2895810337
-0.260145498564604,1481.2995810337
-0.266552896565018,1481.3095810337
-0.272630973493139,1481.3195810337
-0.278565915532826,1481.3295810337
-0.285040788439122,1481.3395810337
-0.290719281815549,1481.3495810337
-0.296545089216836,1481.3595810337
-0.301830537497931,1481.3695810337
-0.306753616023135,1481.3795810337
-0.311864403645669,1481.3895810337
-0.317437333186393,1481.3995810337
-0.322176744001751,1481.4095810337
-0.323144433248429,1481.4195810337
-0.315119178635711,1481.4295810337
-0.293728800586477,1481.4395810337
-0.257440996997677,1481.4495810337
-0.208873907098702,1481.4595810337
-0.152919601792473,1481.4695810337
-0.0939763198778132,1481.4795810337
-0.0369119385851177,1481.4895810337
0.0164481817999852,1481.4995810337
0.0646172702337035,1481.5095810337
0.106799646101219,1481.5195810337
0.142479937037548,1481.5295810337
0.171912736863646,1481.5395810337
0.194874308081096,1481.5495810337
0.211538851710781,1481.5595810337
0.22249139698677,1481.5695810337
0.228256839088833,1481.5795810337
0.229334248430636,1481.5895810337
0.227249743624648,1481.5995810337
0.222820362527395,1481.6095810337
0.216306774230406,1481.6195810337
0.208673144011797,1481.6295810337
0.200787593276974,1481.6395810337
0.192539685743435,1481.6495810337
0.184698292322207,1481.6595810337
0.177437497130376,1481.6695810337
0.170147959081006,1481.6795810337
0.163556574884665,1481.6895810337
0.156463509446485,1481.6995810337
0.14863433340522,1481.7095810337
0.14030597614427,1481.7195810337
0.1308809766814,1481.7295810337
0.120553435288167,1481.7395810337
0.11020311815757,1481.7495810337
0.0999842997617235,1481.7595810337
0.0899671213581759,1481.7695810337
0.0815852715619163,1481.7795810337
0.0747979598254993,1481.7895810337
0.0699998782063793,1481.7995810337
0.068402394094617,1481.8095810337
0.0687853634751902,1481.8195810337
0.0717684358179554,1481.8295810337
0.0768095766099448,1481.8395810337
0.0824236576470299,1481.8495810337
0.0888039577697672,1481.8595810337
0.0941204004089661,1481.8695810337
0.0984236809177592,1481.8795810337
0.100779533817679,1481.8895810337
0.101299111422164,1481.8995810337
0.100069768330191,1481.9095810337
0.0974926983993826,1481.9195810337
0.0934109367753538,1481.9295810337
0.0880879857918652,1481.9395810337
0.0817097924221166,1481.9495810337
0.0745702841287287,1481.9595810337
0.0669435494715297,1481.9695810337
0.0596287945277014,1481.9795810337
0.0517282495805538,1481.9895810337
0.0443523181590883,1481.9995810337
0.0367219919730638,1482.0095810337
0.0285548525490307,1482.0195810337
0.0203411743364005,1482.0295810337
0.0115195408244204,1482.0395810337
0.00246012392125882,1482.0495810337
-0.0064617361295376,1482.0595810337
-0.0155832701939022,1482.0695810337
-0.0242226399767251,1482.0795810337
-0.032173367358427,1482.0895810337
-0.0403485668147319,1482.0995810337
-0.048404031457518,1482.1095810337
-0.0568407864274656,1482.1195810337
-0.0654440714268545,1482.1295810337
-0.073677818219303,1482.1395810337
-0.0819336783021414,1482.1495810337
-0.089231061863083,1482.1595810337
-0.0966969718175263,1482.1695810337
-0.103845573727284,1482.1795810337
-0.110956593227596,1482.1895810337
-0.117373631292453,1482.1995810337
-0.1238604601105,1482.2095810337
-0.130588484183109,1482.2195810337
-0.137339095033273,1482.2295810337
-0.144551678540386,1482.2395810337
-0.151446386094472,1482.2495810337
-0.158241340210832,1482.2595810337
-0.164602118120596,1482.2695810337
-0.170498945704776,1482.2795810337
-0.176101079545558,1482.2895810337
-0.18187242112962,1482.2995810337
-0.187449311294757,1482.3095810337
-0.193509041636387,1482.3195810337
-0.199741891469658,1482.3295810337
-0.206371462514474,1482.3395810337
-0.212810402527775,1482.3495810337
-0.220207746956478,1482.3595810337
-0.226438719978294,1482.3695810337
-0.233107812626339,1482.3795810337
-0.23957913559814,1482.3895810337
-0.246225703549306,1482.3995810337
-0.252924072269124,1482.4095810337
-0.258989906142969,1482.4195810337
-0.262031445640225,1482.4295810337
-0.258174333610176,1482.4395810337
-0.242111472557789,1482.4495810337
-0.211092630814296,1482.4595810337
-0.167465842854489,1482.4695810337
-0.115634399155939,1482.4795810337
-0.060703289506484,1482.4895810337
-0.00640394999527121,1482.4995810337
0.0444590244804584,1482.5095810337
0.0904860137599665,1482.5195810337
0.130442090137001,1482.5295810337
0.164759385199291,1482.5395810337
0.192843772962691,1482.5495810337
0.215153409754927,1482.5595810337
0.231899924257101,1482.5695810337
0.243218718836822,1482.5795810337
0.249470967352313,1482.5895810337
0.251425629603937,1482.5995810337
0.249187632577466,1482.6095810337
0.244264987553742,1482.6195810337
0.23731272098887,1482.6295810337
0.229140370471001,1482.6395810337
0.220199648952972,1482.6495810337
0.211394728436097,1482.6595810337
0.202495557771592,1482.6695810337
0.194160805921729,1482.6795810337
0.185721623753724,1482.6895810337
0.177091535078139,1482.6995810337
0.168594096691451,1482.7095810337
0.159124613723823,1482.7195810337
0.148925934450674,1482.7295810337
0.137527429122478,1482.7395810337
0.124905343955094,1482.7495810337
0.111667629778626,1482.7595810337
0.0990277543988856,1482.7695810337
0.0873618799596538,1482.7795810337
0.078546702716794,1482.7895810337
0.072692307595211,1482.7995810337
0.0697626356601075,1482.8095810337
0.069899304297897,1482.8195810337
0.0727380551113135,1482.8295810337
0.077677715724949,1482.8395810337
0.0832333863549403,1482.8495810337
0.0894527754780449,1482.8595810337
0.0950998449737326,1482.8695810337
0.0999269806479644,1482.8795810337
0.103665390662035,1482.8895810337
0.10654141134376,1482.8995810337
0.108554688923933,1482.9095810337
0.109025537729411,1482.9195810337
0.107787998805511,1482.9295810337
0.103990837298431,1482.9395810337
0.0990535850072947,1482.9495810337
0.0925433409510851,1482.9595810337
0.0853186501432739,1482.9695810337
0.078113997413593,1482.9795810337
0.070114895075048,1482.9895810337
0.0616525182125378,1482.9995810337
0.0530462035970232,1483.0095810337
0.0439166145270647,1483.0195810337
0.0350060679617093,1483.0295810337
0.0263977419941988,1483.0395810337
0.0176474471457703,1483.0495810337
0.00924041251534144,1483.0595810337
0.000109015975004008,1483.0695810337
-0.00929837678989984,1483.0795810337
-0.0186782901391742,1483.0895810337
-0.0284029312154391,1483.0995810337
-0.037579927674854,1483.1095810337
-0.0459012312049437,1483.1195810337
-0.0538676702168997,1483.1295810337
-0.0613930496991492,1483.1395810337
-0.0684593882542038,1483.1495810337
-0.0757492293605524,1483.1595810337
-0.0830168345074028,1483.1695810337
-0.0898074362193758,1483.1795810337
-0.0967381317014753,1483.1895810337
-0.103667184457072,1483.1995810337
-0.110069269196092,1483.2095810337
-0.116412435035155,1483.2195810337
-0.122304795611419,1483.2295810337
-0.127744275351199,1483.2395810337
-0.132551528279507,1483.2495810337
-0.137248314764923,1483.2595810337
-0.141614462312268,1483.2695810337
-0.146555074912013,1483.2795810337
-0.151602143792445,1483.2895810337
-0.156778978442522,1483.2995810337
-0.162562360357256,1483.3095810337
-0.168647221506841,1483.3195810337
-0.175206593158102,1483.3295810337
-0.181627860094969,1483.3395810337
-0.187845202997824,1483.3495810337
-0.193900890315198,1483.3595810337
-0.199724416214073,1483.3695810337
-0.205735413041708,1483.3795810337
-0.21196847231338,1483.3895810337
-0.21816054535869,1483.3995810337
-0.2235399928272,1483.4095810337
-0.225683049785511,1483.4195810337
-0.219942347556388,1483.4295810337
-0.202844988283531,1483.4395810337
-0.172451497670693,1483.4495810337
-0.130784884496659,1483.4595810337
-0.081459783934073,1483.4695810337
-0.0285063107825255,1483.4795810337
0.0232729354131671,1483.4895810337
0.0721558178374407,1483.4995810337
0.116454210280936,1483.5095810337
0.155832285799702,1483.5195810337
0.188683335922901,1483.5295810337
0.215505282142168,1483.5395810337
0.235867885881653,1483.5495810337
0.250434307563062,1483.5595810337
0.259174526341683,1483.5695810337
0.263610770099366,1483.5795810337
0.263979622502882,1483.5895810337
0.260866330541307,1483.5995810337
0.254951442611419,1483.6095810337
0.246966823498764,1483.6195810337
0.237713973753246,1483.6295810337
0.227313617784169,1483.6395810337
0.216810552748752,1483.6495810337
0.206275322818333,1483.6595810337
0.19609022292898,1483.6695810337
0.185788370938939,1483.6795810337
0.175582448535146,1483.6895810337
0.165348118185736,1483.6995810337
0.154262750671813,1483.7095810337
0.142010996279916,1483.7195810337
0.129339200612569,1483.7295810337
0.116431724937816,1483.7395810337
0.104649475493031,1483.7495810337
0.0942781001739222,1483.7595810337
0.0863940654967896,1483.7695810337
0.0816568410771365,1483.7795810337
0.0807961181984982,1483.7895810337
0.0831674069563337,1483.7995810337
0.0878717682901133,1483.8095810337
0.0945311397513942,1483.8195810337
0.102167620557025,1483.8295810337
0.110279090911736,1483.8395810337
0.117807537727455,1483.8495810337
0.124239874594523,1483.8595810337
0.12946461030386,1483.8695810337
0.133447559317276,1483.8795810337
0.1349974402346,1483.8895810337
0.134162018033225,1483.8995810337
0.132370301925867,1483.9095810337
0.129341767670372,1483.9195810337
0.125033395938653,1483.9295810337
0.119932772498762,1483.9395810337
0.113502180880359,1483.9495810337
0.10650921797923,1483.9595810337
0.0992968609249856,1483.9695810337
0.0921760814332783,1483.9795810337
0.0852326657502938,1483.9895810337
0.0778855833822551,1483.9995810337
0.0706057490779488,1484.0095810337
0.0624231408768098,1484.0195810337
0.0537222995860403,1484.0295810337
0.0453053824445382,1484.0395810337
0.0372619638627928,1484.0495810337
0.0295574870937458,1484.0595810337
0.0221422805223355,1484.0695810337
0.0146722149164038,1484.0795810337
0.00750452003878134,1484.0895810337
0.000377141084905486,1484.0995810337
-0.00645280597686289,1484.1095810337
-0.0134985136484999,1484.1195810337
-0.0208615959576982,1484.1295810337
-0.0279429265157577,1484.1395810337
-0.0345810267375101,1484.1495810337
-0.0414886371591343,1484.1595810337
-0.0477182265834196,1484.1695810337
-0.054487836468815,1484.1795810337
-0.0610631081042164,1484.1895810337
-0.0675550969234504,1484.1995810337
-0.073458081450972,1484.2095810337
-0.0791385248858707,1484.2195810337
-0.0843204478305597,1484.2295810337
-0.0893096469996501,1484.2395810337
-0.0940279078851176,1484.2495810337
-0.0983991740073559,1484.2595810337
-0.102820179494,1484.2695810337
-0.106894365844042,1484.2795810337
-0.111226554373823,1484.2895810337
-0.115547757117522,1484.2995810337
-0.120543733111383,1484.3095810337
-0.125767779047086,1484.3195810337
-0.131532805437731,1484.3295810337
-0.13714394519999,1484.3395810337
-0.143105527288824,1484.3495810337
-0.149439544132623,1484.3595810337
-0.155997237536796,1484.3695810337
-0.162061375761036,1484.3795810337
-0.168028390255658,1484.3895810337
-0.172478597241184,1484.3995810337
-0.174294776360762,1484.4095810337
-0.169427213380175,1484.4195810337
-0.153882103075598,1484.4295810337
-0.125949458261336,1484.4395810337
-0.0866839477131101,1484.4495810337
-0.0391029231937449,1484.4595810337
0.0131261677157765,1484.4695810337
0.0657276892826067,1484.4795810337
0.116213121048984,1484.4895810337
0.16246400131591,1484.4995810337
0.202925652892961,1484.5095810337
0.236978935766255,1484.5195810337
0.264736369237197,1484.5295810337
0.285667356054091,1484.5395810337
0.301210218186305,1484.5495810337
0.311464615099864,1484.5595810337
0.317172363275774,1484.5695810337
0.318746697614306,1484.5795810337
0.317223915910332,1484.5895810337
0.313543853300979,1484.5995810337
0.308636492241219,1484.6095810337
0.303324469629465,1484.6195810337
0.297805691350763,1484.6295810337
0.292322637906525,1484.6395810337
0.287112396228535,1484.6495810337
0.281620268303379,1484.6595810337
0.276176650100596,1484.6695810337
0.270384906208562,1484.6795810337
0.264130831638445,1484.6895810337
0.258015530315821,1484.6995810337
0.250678867278043,1484.7095810337
0.242856261801347,1484.7195810337
0.233939070662855,1484.7295810337
0.224285250780914,1484.7395810337
0.215497140771585,1484.7495810337
0.207213660904778,1484.7595810337
0.200727570121691,1484.7695810337
0.196556010706186,1484.7795810337
0.194156515285107,1484.7895810337
0.193989637324753,1484.7995810337
0.195670479352742,1484.8095810337
0.198826582132637,1484.8195810337
0.202868103366562,1484.8295810337
0.207396491983036,1484.8395810337
0.211547419430933,1484.8495810337
0.215212321759616,1484.8595810337
0.217793775561662,1484.8695810337
0.218983368697347,1484.8795810337
0.218917235213475,1484.8895810337
0.217833328082017,1484.8995810337
0.216019720267666,1484.9095810337
0.21300149809858,1484.9195810337
0.209147563430139,1484.9295810337
0.204295702205308,1484.9395810337
0.198404750468635,1484.9495810337
0.191884746750304,1484.9595810337
0.18513064841022,1484.9695810337
0.178098962676548,1484.9795810337
0.170767417731165,1484.9895810337
0.163441486689393,1484.9995810337
0.155772486756591,1485.0095810337
0.148117268377223,1485.0195810337
0.140696182081627,1485.0295810337
0.13327232243061,1485.0395810337
0.126478777721248,1485.0495810337
0.119531745202149,1485.0595810337
0.112296065063004,1485.0695810337
0.105147092838799,1485.0795810337
0.0975286264553806,1485.0895810337
0.0900375175604454,1485.0995810337
0.0831556625022361,1485.1095810337
0.0765912880912322,1485.1195810337
0.0698264879686597,1485.1295810337
0.0634804359895604,1485.1395810337
0.0564647735664514,1485.1495810337
0.0499482618623689,1485.1595810337
0.0430605857186456,1485.1695810337
0.0361763137969197,1485.1795810337
0.0295676325735736,1485.1895810337
0.0233129951460676,1485.1995810337
0.0167924690275104,1485.2095810337
0.0107217430817388,1485.2195810337
0.00494930881352591,1485.2295810337
-0.00106252442409547,1485.2395810337
-0.00696401549022028,1485.2495810337
-0.0126237154158918,1485.2595810337
-0.018123493890631,1485.2695810337
-0.023962075485702,1485.2795810337
-0.029209384867978,1485.2895810337
-0.034448364412295,1485.2995810337
-0.039761386559395,1485.3095810337
-0.0446311252705799,1485.3195810337
-0.0501725217367659,1485.3295810337
-0.0555669226783083,1485.3395810337
-0.0614373165080204,1485.3495810337
-0.0678077917581418,1485.3595810337
-0.0740280149645753,1485.3695810337
-0.0808044249828974,1485.3795810337
-0.0879377463052725,1485.3895810337
-0.0949259758695799,1485.3995810337
-0.102007015854483,1485.4095810337
-0.107872221783923,1485.4195810337
-0.1110981062376,1485.4295810337
-0.108702074212293,1485.4395810337
-0.0969734693732465,1485.4495810337
-0.0739935780334689,1485.4595810337
-0.0401382752147151,1485.4695810337
0.00182191257240156,1485.4795810337
0.0490986329701399,1485.4895810337
0.0980223093983008,1485.4995810337
0.145523911565822,1485.5095810337
0.189685742477428,1485.5195810337
0.228459306986045,1485.5295810337
0.261675409056499,1485.5395810337
0.287792506807268,1485.5495810337
0.308216036699803,1485.5595810337
0.322716504997017,1485.5695810337
0.331544382513401,1485.5795810337
0.335595971812205,1485.5895810337
0.335549329919916,1485.5995810337
0.332927322666357,1485.6095810337
0.327741195393338,1485.6195810337
0.321750216046919,1485.6295810337
0.314985167651465,1485.6395810337
0.308177426475744,1485.6495810337
0.301598691907941,1485.6595810337
0.295710361631031,1485.6695810337
0.290219191574073,1485.6795810337
0.285101553065454,1485.6895810337
0.280199405563475,1485.6995810337
0.274854884547621,1485.7095810337
0.268385005518989,1485.7195810337
0.261594459266774,1485.7295810337
0.253921877613819,1485.7395810337
0.245872477094417,1485.7495810337
0.237611171612558,1485.7595810337
0.229335541517781,1485.7695810337
0.222063292411229,1485.7795810337
0.216654240345024,1485.7895810337
0.21288027070273,1485.7995810337
0.21087030331749,1485.8095810337
0.211378124323474,1485.8195810337
0.213297931019742,1485.8295810337
0.216725216310686,1485.8395810337
0.220928105504195,1485.8495810337
0.224988051281382,1485.8595810337
0.228771959955951,1485.8695810337
0.232463943712335,1485.8795810337
0.235317842002551,1485.8895810337
0.236803244285532,1485.8995810337
0.237325603593533,1485.9095810337
0.237209161507943,1485.9195810337
0.236322780758071,1485.9295810337
0.234156608197379,1485.9395810337
0.230530899476032,1485.9495810337
0.226363536520342,1485.9595810337
0.220567865915527,1485.9695810337
0.213847949904496,1485.9795810337
0.20612300790056,1485.9895810337
0.198483892113665,1485.9995810337
0.190523239534436,1486.0095810337
0.182637258006213,1486.0195810337
0.175000830779219,1486.0295810337
0.167208449150262,1486.0395810337
0.159999177865406,1486.0495810337
0.152755317677161,1486.0595810337
0.146266460340889,1486.0695810337
0.139663539919312,1486.0795810337
0.132942787150497,1486.0895810337
0.126274741967705,1486.0995810337
0.119761703337857,1486.1095810337
0.112936191888258,1486.1195810337
0.105827962435367,1486.1295810337
0.0984993455530201,1486.1395810337
0.0912529105219333,1486.1495810337
0.0840111909827992,1486.1595810337
0.0777670386726644,1486.1695810337
0.0717362874333971,1486.1795810337
0.0654575141773073,1486.1895810337
0.0595521287881669,1486.1995810337
0.0535653448362984,1486.2095810337
0.0476778869179358,1486.2195810337
0.041155415237054,1486.2295810337
0.035252134530976,1486.2395810337
0.029265572781651,1486.2495810337
0.0234807167871705,1486.2595810337
0.0171355210123632,1486.2695810337
0.0117138546685845,1486.2795810337
0.00657666064711295,1486.2895810337
0.00130876663194548,1486.2995810337
-0.00394359148173425,1486.3095810337
-0.00966280035909677,1486.3195810337
-0.015179152564899,1486.3295810337
-0.0210704192570159,1486.3395810337
-0.0270891705623557,1486.3495810337
-0.0333241337508022,1486.3595810337
-0.0394441507686095,1486.3695810337
-0.0457494737823218,1486.3795810337
-0.0521424761489184,1486.3895810337
-0.0583940320675875,1486.3995810337
-0.0641838389624554,1486.4095810337
-0.0701512180529876,1486.4195810337
-0.0753495279089532,1486.4295810337
-0.0796234762953118,1486.4395810337
-0.0802778839700083,1486.4495810337
-0.0743854811080947,1486.4595810337
-0.0597025168182918,1486.4695810337
-0.0343064915373341,1486.4795810337
0.000394686985989362,1486.4895810337
0.0420910455880283,1486.4995810337
0.0878110765795667,1486.5095810337
0.134659597517723,1486.5195810337
0.180230210619328,1486.5295810337
0.222027057773774,1486.5395810337
0.258780721105967,1486.5495810337
0.288714143882859,1486.5595810337
0.312558482893577,1486.5695810337
0.329891066919911,1486.5795810337
0.341340667625385,1486.5895810337
0.347660308186512,1486.5995810337
0.350005436421341,1486.6095810337
0.348705821582056,1486.6195810337
0.345241324884539,1486.6295810337
0.340169783449953,1486.6395810337
0.333993838577564,1486.6495810337
0.327502058301206,1486.6595810337
0.321215150924513,1486.6695810337
0.315058116758295,1486.6795810337
0.30931486464063,1486.6895810337
0.303890132024844,1486.6995810337
0.298078903110748,1486.7095810337
0.292223946768494,1486.7195810337
0.285964913643378,1486.7295810337
0.278471302773456,1486.7395810337
0.270269231842505,1486.7495810337
0.261899432992945,1486.7595810337
0.25342320415695,1486.7695810337
0.245516219897239,1486.7795810337
0.23837057607379,1486.7895810337
0.232652954546726,1486.7995810337
0.228607669306133,1486.8095810337
0.226351703697696,1486.8195810337
0.2253082675135,1486.8295810337
0.22641294644525,1486.8395810337
0.228806350491501,1486.8495810337
0.232776078988931,1486.8595810337
0.237710947740362,1486.8695810337
0.242885350978584,1486.8795810337
0.247656863621993,1486.8895810337
0.251292711012605,1486.8995810337
0.254149373061798,1486.9095810337
0.255854972606527,1486.9195810337
0.256017217355727,1486.9295810337
0.254255952562968,1486.9395810337
0.250957409835297,1486.9495810337
0.246686600463997,1486.9595810337
0.241036095687571,1486.9695810337
0.23478892964484,1486.9795810337
0.228217498541802,1486.9895810337
0.221728816503039,1486.9995810337
0.214588532341909,1487.0095810337
0.207148730672091,1487.0195810337
0.198745869649005,1487.0295810337
0.190417110767492,1487.0395810337
0.182065620108654,1487.0495810337
0.174232837809921,1487.0595810337
0.166571099318488,1487.0695810337
0.159211973261853,1487.0795810337
0.152052078070636,1487.0895810337
0.145631208576969,1487.0995810337
0.139315728379098,1487.1095810337
0.132269469449114,1487.1195810337
0.125109239052784,1487.1295810337
0.117364514572191,1487.1395810337
0.109979366336202,1487.1495810337
0.103055901464441,1487.1595810337
0.0956991354810184,1487.1695810337
0.0885560454332625,1487.1795810337
0.0819594815904361,1487.1895810337
0.0757657764006615,1487.1995810337
0.0696815002242411,1487.2095810337
0.0635414434473967,1487.2195810337
0.0570996718545894,1487.2295810337
0.0508828732877463,1487.2395810337
0.0446800022995504,1487.2495810337
0.0382841547250783,1487.2595810337
0.0318901110532338,1487.2695810337
0.0253965171538632,1487.2795810337
0.0185791146164646,1487.2895810337
0.0122850747514205,1487.2995810337
0.00634592531814322,1487.3095810337
0.000594039352699493,1487.3195810337
-0.00489590265570336,1487.3295810337
-0.0102683224362898,1487.3395810337
-0.0157983358107216,1487.3495810337
-0.0215499974242337,1487.3595810337
-0.0270477286530181,1487.3695810337
-0.0328224026677495,1487.3795810337
-0.0385805726541761,1487.3895810337
-0.0446514571312657,1487.3995810337
-0.0510979499174831,1487.4095810337
-0.0578700955694188,1487.4195810337
-0.0643553738971429,1487.4295810337
-0.0707512651997465,1487.4395810337
-0.07683190656521,1487.4495810337
-0.0826318687333961,1487.4595810337
-0.0882756592334602,1487.4695810337
-0.0925662889870551,1487.4795810337
-0.0938405234646069,1487.4895810337
-0.0888070086564584,1487.4995810337
-0.0746513087169284,1487.5095810337
-0.050216638698306,1487.5195810337
-0.0161884406311254,1487.5295810337
0.0248086611572827,1487.5395810337
0.0703162525661696,1487.5495810337
0.117027174644965,1487.5595810337
0.162492236855066,1487.5695810337
0.204267609010788,1487.5795810337
0.240557229584344,1487.5895810337
0.27052914270546,1487.5995810337
0.293620330524903,1487.6095810337
0.310619612157528,1487.6195810337
0.321346215555501,1487.6295810337
0.326570999696208,1487.6395810337
0.327906685537195,1487.6495810337
0.325627272959674,1487.6595810337
0.320546999978777,1487.6695810337
0.313545745788618,1487.6795810337
0.305343487219229,1487.6895810337
0.297350749049224,1487.6995810337
0.289516835732173,1487.7095810337
0.28251501993524,1487.7195810337
0.275202853087542,1487.7295810337
0.268170400301098,1487.7395810337
0.261348113107838,1487.7495810337
0.253696939513929,1487.7595810337
0.245192286767748,1487.7695810337
0.235584415946788,1487.7795810337
0.225060053536989,1487.7895810337
0.213963558485798,1487.7995810337
0.203723786499375,1487.8095810337
0.194803474203396,1487.8195810337
0.187584773994795,1487.8295810337
0.183454753188516,1487.8395810337
0.182443578666505,1487.8495810337
0.184319488252627,1487.8595810337
0.188453286418614,1487.8695810337
0.19412920950407,1487.8795810337
0.200682280397759,1487.8895810337
0.207907588687542,1487.8995810337
0.215260472139183,1487.9095810337
0.222195676684266,1487.9195810337
0.22837612599264,1487.9295810337
0.233543394108434,1487.9395810337
0.236202421422152,1487.9495810337
0.236547485340693,1487.9595810337
0.23528327706487,1487.9695810337
0.232121898208466,1487.9795810337
0.227871359703301,1487.9895810337
0.223349820774398,1487.9995810337
0.217975362190044,1488.0095810337
0.212593025185463,1488.0195810337
0.206795769274018,1488.0295810337
0.199744648476612,1488.0395810337
0.192816482778803,1488.0495810337
0.185761012466791,1488.0595810337
0.17856469047428,1488.0695810337
0.172049160819444,1488.0795810337
0.165758233059784,1488.0895810337
0.158791704405279,1488.0995810337
0.151433978858236,1488.1095810337
0.143588720757858,1488.1195810337
0.135935618761682,1488.1295810337
0.127754264250275,1488.1395810337
0.11981824748739,1488.1495810337
0.11218860645826,1488.1595810337
0.105119787599282,1488.1695810337
0.0984431319696368,1488.1795810337
0.0921098868003256,1488.1895810337
0.0857162853653129,1488.1995810337
0.0791384517417604,1488.2095810337
0.0726640150908036,1488.2195810337
0.0659855109535164,1488.2295810337
0.0600600828122641,1488.2395810337
0.0541415688069207,1488.2495810337
0.0485852879459482,1488.2595810337
0.0433245673796245,1488.2695810337
0.0378018644504016,1488.2795810337
0.0325271397196397,1488.2895810337
0.0268542284314097,1488.2995810337
0.0213905613144652,1488.3095810337
0.0156461362775829,1488.3195810337
0.0102398288932792,1488.3295810337
0.00439965169706957,1488.3395810337
-0.00134627729526263,1488.3495810337
-0.00691140517434901,1488.3595810337
-0.0123828606976409,1488.3695810337
-0.0175999981250323,1488.3795810337
-0.0235472385370449,1488.3895810337
-0.0289032745409587,1488.3995810337
-0.0345639852547325,1488.4095810337
-0.0402623723763584,1488.4195810337
-0.0461663660488103,1488.4295810337
-0.0522297489059023,1488.4395810337
-0.0584433951139288,1488.4495810337
-0.0651966890400224,1488.4595810337
-0.0712989010682899,1488.4695810337
-0.075843235054703,1488.4795810337
-0.0763753982619339,1488.4895810337
-0.0699654937552105,1488.4995810337
-0.0537301795238802,1488.5095810337
-0.0266177950904373,1488.5195810337
0.00952434304791823,1488.5295810337
0.0531721171021442,1488.5395810337
0.100712071545613,1488.5495810337
0.148902969563561,1488.5595810337
0.195230896561256,1488.5695810337
0.237670207369406,1488.5795810337
0.274586545609307,1488.5895810337
0.304917797475331,1488.5995810337
0.328255359269292,1488.6095810337
0.344467335001243,1488.6195810337
0.35449675784489,1488.6295810337
0.359125042671857,1488.6395810337
0.359471806654403,1488.6495810337
0.356486357628552,1488.6595810337
0.350922074904072,1488.6695810337
0.344121297179219,1488.6795810337
0.337028311867311,1488.6895810337
0.329141212114644,1488.6995810337
0.322075947222711,1488.7095810337
0.314875270142849,1488.7195810337
0.308163204006632,1488.7295810337
0.301827824765617,1488.7395810337
0.295446187830713,1488.7495810337
0.288651676000753,1488.7595810337
0.280638172054733,1488.7695810337
0.272424084191864,1488.7795810337
0.262698388552768,1488.7895810337
0.252904297363742,1488.7995810337
0.243782890397633,1488.8095810337
0.235403270900294,1488.8195810337
0.228789864605087,1488.8295810337
0.224831041736855,1488.8395810337
0.223282522280088,1488.8495810337
0.224134469668006,1488.8595810337
0.227681188333344,1488.8695810337
0.233002133445078,1488.8795810337
0.23955795164618,1488.8895810337
0.246373647167458,1488.8995810337
0.253319336800126,1488.9095810337
0.259605974644934,1488.9195810337
0.264810891029144,1488.9295810337
0.26851450006237,1488.9395810337
0.270344239112608,1488.9495810337
0.270385603839434,1488.9595810337
0.268509022365793,1488.9695810337
0.265181594175868,1488.9795810337
0.260912105469025,1488.9895810337
0.255329218351892,1488.9995810337
0.248953324774537,1489.0095810337
0.242526136491392,1489.0195810337
0.235308906256462,1489.0295810337
0.227656997410548,1489.0395810337
0.220178045095405,1489.0495810337
0.212717941176046,1489.0595810337
0.205096302864566,1489.0695810337
0.197720755014718,1489.0795810337
0.190724092901172,1489.0895810337
0.183913757943311,1489.0995810337
0.176774133154334,1489.1095810337
0.169499857441682,1489.1195810337
0.161842687690697,1489.1295810337
0.154573809480457,1489.1395810337
0.147093777698791,1489.1495810337
0.139258200914407,1489.1595810337
0.131666894684564,1489.1695810337
0.124448998369536,1489.1795810337
0.117156306256932,1489.1895810337
0.110027953127888,1489.1995810337
0.103478457410274,1489.2095810337
0.0962974885120722,1489.2195810337
0.0884610122699818,1489.2295810337
0.0812887463660389,1489.2395810337
0.0739865610369581,1489.2495810337
0.066860403447097,1489.2595810337
0.0605251235184803,1489.2695810337
0.0543815759511146,1489.2795810337
0.0483974059457588,1489.2895810337
0.042167969337518,1489.2995810337
0.0359228976497592,1489.3095810337
