PPG,time
978.796564342061,2083.32519763934
1931.23039451284,2083.33519763934
1694.74560266552,2083.34519763934
1813.26725091331,2083.35519763934
1729.50953329922,2083.36519763934
1772.56352353902,2083.37519763934
1736.7449043729,2083.38519763934
1756.456688235,2083.39519763934
1749.52840774058,2083.40519763934
1765.87505329533,2083.41519763934
1790.49069360109,2083.42519763934
1831.95745383274,2083.43519763934
1896.93755608279,2083.44519763934
1982.23349590369,2083.45519763934
2089.89347224488,2083.46519763934
2210.99520138635,2083.47519763934
2341.43501820414,2083.48519763934
2471.51837111621,2083.49519763934
2598.49634616665,2083.50519763934
2714.79938259979,2083.51519763934
2819.6881630364,2083.52519763934
2908.15124970188,2083.53519763934
2979.65408314941,2083.54519763934
3031.51518979704,2083.55519763934
3062.07400374752,2083.56519763934
3077.73719143224,2083.57519763934
3078.44560795124,2083.58519763934
3068.93833162776,2083.59519763934
3047.97153224956,2083.60519763934
3021.00870041231,2083.61519763934
2988.27817001917,2083.62519763934
2951.00136014212,2083.63519763934
2911.88388281824,2083.64519763934
2871.09575539681,2083.65519763934
2828.83735202416,2083.66519763934
2787.93223713765,2083.67519763934
2743.8172314187,2083.68519763934
2701.95225623545,2083.69519763934
2657.54242914276,2083.70519763934
2610.08138414189,2083.71519763934
2560.98909680077,2083.72519763934
2513.03471107119,2083.73519763934
2467.36707180368,2083.74519763934
2426.61967966209,2083.75519763934
2390.93103322052,2083.76519763934
2360.72135128232,2083.77519763934
2335.43349757241,2083.78519763934
2312.74683440924,2083.79519763934
2296.22560409765,2083.80519763934
2283.1078538283,2083.81519763934
2272.62119132175,2083.82519763934
2265.51112030201,2083.83519763934
2260.30753057909,2083.84519763934
2258.89823410691,2083.85519763934
2259.02030750857,2083.86519763934
2259.03737112287,2083.87519763934
2256.16415910194,2083.88519763934
2248.17880384765,2083.89519763934
2236.78786069961,2083.90519763934
2220.69862844999,2083.91519763934
2200.12216130857,2083.92519763934
2179.1339175131,2083.93519763934
2160.1421993071,2083.94519763934
2138.10071728848,2083.95519763934
2114.5519690609,2083.96519763934
2088.18525275368,2083.97519763934
2060.67702304927,2083.98519763934
2036.72611070975,2083.99519763934
2011.60952205814,2084.00519763934
1989.63416526361,2084.01519763934
1968.03198656614,2084.02519763934
1943.56850245195,2084.03519763934
1920.28182135305,2084.04519763934
1897.54654021696,2084.05519763934
1877.77351507198,2084.06519763934
1856.46281627015,2084.07519763934
1836.24807649518,2084.08519763934
1819.74500240663,2084.09519763934
1804.40907414601,2084.10519763934
1790.73190126004,2084.11519763934
1774.51207019775,2084.12519763934
1759.4592818021,2084.13519763934
1745.76851138569,2084.14519763934
1735.4774970061,2084.15519763934
1729.94341947657,2084.16519763934
1722.78727745444,2084.17519763934
1713.64973794313,2084.18519763934
1705.44481100013,2084.19519763934
1695.71265918181,2084.20519763934
1684.25585993368,2084.21519763934
1673.02529900423,2084.22519763934
1661.85629096455,2084.23519763934
1653.63921588279,2084.24519763934
1651.6902765399,2084.25519763934
1660.91183591273,2084.26519763934
1688.49884832431,2084.27519763934
1737.41439772329,2084.28519763934
1806.74772509573,2084.29519763934
1897.67682685922,2084.30519763934
2008.26461723521,2084.31519763934
2138.74456897932,2084.32519763934
2280.39370511691,2084.33519763934
2424.04482118177,2084.34519763934
2562.93799444857,2084.35519763934
2693.66883451012,2084.36519763934
2808.49589436301,2084.37519763934
2908.84592947,2084.38519763934
2989.4437998319,2084.39519763934
3049.76911236969,2084.40519763934
3090.74277794391,2084.41519763934
3116.69092840784,2084.42519763934
3129.20467335322,2084.43519763934
3128.80519475878,2084.44519763934
3117.14646100348,2084.45519763934
3093.97093368642,2084.46519763934
3063.74865069291,2084.47519763934
3026.42721142376,2084.48519763934
2985.30716370055,2084.49519763934
2945.24667692496,2084.50519763934
2903.74646657761,2084.51519763934
2862.89108300265,2084.52519763934
2821.53902788187,2084.53519763934
2776.34773802602,2084.54519763934
2731.00613268124,2084.55519763934
2684.30737131517,2084.56519763934
2634.77606574433,2084.57519763934
2586.34732139177,2084.58519763934
2537.21630820221,2084.59519763934
2492.1279099368,2084.60519763934
2446.87606621859,2084.61519763934
2402.92635138261,2084.62519763934
2363.52577387294,2084.63519763934
2328.88973452789,2084.64519763934
2300.29981751192,2084.65519763934
2278.56033505315,2084.66519763934
2263.37921532085,2084.67519763934
2250.45925013307,2084.68519763934
2239.72065797451,2084.69519763934
2229.83200613215,2084.70519763934
2218.43121026609,2084.71519763934
2208.16896169145,2084.72519763934
2194.71966751185,2084.73519763934
2180.3708435146,2084.74519763934
2161.71705212677,2084.75519763934
2140.46731603722,2084.76519763934
2115.90228616711,2084.77519763934
2088.12773035039,2084.78519763934
2060.34903259743,2084.79519763934
2032.04013920415,2084.80519763934
2004.92825293873,2084.81519763934
1978.35219339689,2084.82519763934
1950.09725015405,2084.83519763934
1920.67159875056,2084.84519763934
1891.91839015219,2084.85519763934
1868.13615802182,2084.86519763934
1845.49674914188,2084.87519763934
1821.78564688207,2084.88519763934
1797.90978549143,2084.89519763934
1776.58180464303,2084.90519763934
1757.24402629053,2084.91519763934
1739.4099984963,2084.92519763934
1719.47836823015,2084.93519763934
1700.07052335991,2084.94519763934
1677.99221210381,2084.95519763934
1656.13105670903,2084.96519763934
1636.28654590587,2084.97519763934
1616.28039318574,2084.98519763934
1598.96831550315,2084.99519763934
1584.65155548222,2085.00519763934
1574.45086709922,2085.01519763934
1565.46880760278,2085.02519763934
1558.55327865655,2085.03519763934
1550.54593685713,2085.04519763934
1542.23970445091,2085.05519763934
1533.93532668819,2085.06519763934
1526.81897371136,2085.07519763934
1514.84260615379,2085.08519763934
1500.76269760034,2085.09519763934
1486.69940068516,2085.10519763934
1471.51097995347,2085.11519763934
1456.90321461664,2085.12519763934
1445.70484239056,2085.13519763934
1439.33210795109,2085.14519763934
1443.06161367259,2085.15519763934
1465.68730201933,2085.16519763934
1513.29335697788,2085.17519763934
1587.25536429003,2085.18519763934
1688.11759779709,2085.19519763934
1809.27785493115,2085.20519763934
1944.35666734078,2085.21519763934
2090.77219677556,2085.22519763934
2238.91009458819,2085.23519763934
2383.57542546634,2085.24519763934
2517.00722776185,2085.25519763934
2636.52112383453,2085.26519763934
2736.27461932306,2085.27519763934
2815.956316914,2085.28519763934
2875.90449494172,2085.29519763934
2914.45330458859,2085.30519763934
2935.19502270516,2085.31519763934
2939.07376719668,2085.32519763934
2928.71328740291,2085.33519763934
2904.01435442913,2085.34519763934
2870.00607738448,2085.35519763934
2833.11994436284,2085.36519763934
2791.2368847103,2085.37519763934
2743.83457418861,2085.38519763934
2695.41576103256,2085.39519763934
2644.52558658668,2085.40519763934
2593.70819222003,2085.41519763934
2543.16857461095,2085.42519763934
2490.2753300448,2085.43519763934
2437.92370280484,2085.44519763934
2385.29928487619,2085.45519763934
2333.32886771241,2085.46519763934
2282.23949591914,2085.47519763934
2229.30282136504,2085.48519763934
2178.32607215722,2085.49519763934
2130.4126794105,2085.50519763934
2087.00831085357,2085.51519763934
2049.49172929259,2085.52519763934
2016.5866608655,2085.53519763934
1987.57790213879,2085.54519763934
1964.8194749978,2085.55519763934
1946.5236214684,2085.56519763934
1933.17588860303,2085.57519763934
1922.04497482573,2085.58519763934
1914.45953879104,2085.59519763934
1906.21433526451,2085.60519763934
1893.3917652708,2085.61519763934
1879.73250434019,2085.62519763934
1862.61598138552,2085.63519763934
1843.7235667152,2085.64519763934
1825.24555378531,2085.65519763934
1806.32009822351,2085.66519763934
1788.51079382486,2085.67519763934
1771.32221208994,2085.68519763934
1752.30358733789,2085.69519763934
1732.86191220847,2085.70519763934
1715.22605993828,2085.71519763934
1696.35228033589,2085.72519763934
1678.19092297896,2085.73519763934
1659.34524486172,2085.74519763934
1641.45496229085,2085.75519763934
1624.36434501014,2085.76519763934
1605.21715319728,2085.77519763934
1586.00301490562,2085.78519763934
1567.55306032047,2085.79519763934
1548.74222763508,2085.80519763934
1531.60384099423,2085.81519763934
1512.57480318113,2085.82519763934
1492.74390316764,2085.83519763934
1475.44253201816,2085.84519763934
1456.13673245209,2085.85519763934
1438.66097395898,2085.86519763934
1421.0671661782,2085.87519763934
1403.67669577952,2085.88519763934
1384.18666624285,2085.89519763934
1366.6807170141,2085.90519763934
1349.24114915622,2085.91519763934
1332.99581254873,2085.92519763934
1316.81666507104,2085.93519763934
1302.53933857229,2085.94519763934
1289.32420331969,2085.95519763934
1276.31820715551,2085.96519763934
1265.47566864319,2085.97519763934
1258.48398812025,2085.98519763934
1261.17325714194,2085.99519763934
1273.58441834303,2086.00519763934
1300.56392873605,2086.01519763934
1343.86670834644,2086.02519763934
1407.54291534335,2086.03519763934
1490.96772311404,2086.04519763934
1593.6784234551,2086.05519763934
1711.31042342943,2086.06519763934
1839.62705020922,2086.07519763934
1971.28370215154,2086.08519763934
2099.74840746306,2086.09519763934
2221.73719064777,2086.10519763934
2331.1032367472,2086.11519763934
2425.4656907973,2086.12519763934
2499.27186132093,2086.13519763934
2554.38865382814,2086.14519763934
2588.78734316619,2086.15519763934
2604.02615282128,2086.16519763934
2604.0955445344,2086.17519763934
2591.47843291585,2086.18519763934
2566.98777520943,2086.19519763934
2528.04456235817,2086.20519763934
2480.17123651423,2086.21519763934
2428.6797104379,2086.22519763934
2375.47938235006,2086.23519763934
2320.95574973781,2086.24519763934
2267.68485239381,2086.25519763934
2213.48235374644,2086.26519763934
2157.84840480488,2086.27519763934
2104.22831134478,2086.28519763934
2050.57976092982,2086.29519763934
1999.66764322089,2086.30519763934
1952.29624330237,2086.31519763934
1910.22870288125,2086.32519763934
1872.95329411917,2086.33519763934
1843.1216209891,2086.34519763934
1822.22865892163,2086.35519763934
1803.77970788228,2086.36519763934
1792.34437674612,2086.37519763934
1787.1515940335,2086.38519763934
1787.6678816668,2086.39519763934
1794.29752428272,2086.40519763934
1801.86843712293,2086.41519763934
1811.73677885769,2086.42519763934
1823.68212284498,2086.43519763934
1834.06004090317,2086.44519763934
1844.82638818319,2086.45519763934
1853.8964915388,2086.46519763934
1860.20553099493,2086.47519763934
1864.9312518446,2086.48519763934
1866.54089259448,2086.49519763934
1863.75970420265,2086.50519763934
1858.32562645997,2086.51519763934
1848.65735110502,2086.52519763934
1832.37710463218,2086.53519763934
1815.00097812032,2086.54519763934
1799.29499933277,2086.55519763934
1786.51338345489,2086.56519763934
1774.01182035198,2086.57519763934
1761.08495460653,2086.58519763934
1750.34045938866,2086.59519763934
1739.57353040291,2086.60519763934
1728.99748949595,2086.61519763934
1721.44746459896,2086.62519763934
1712.86783755533,2086.63519763934
1707.13929264895,2086.64519763934
1701.92884716479,2086.65519763934
1696.76500357128,2086.66519763934
1690.46060193395,2086.67519763934
1684.60131480887,2086.68519763934
1682.32941905937,2086.69519763934
1683.38093690128,2086.70519763934
1685.40000727429,2086.71519763934
1687.75185348718,2086.72519763934
1688.38337729812,2086.73519763934
1685.86090242646,2086.74519763934
1683.90161549347,2086.75519763934
1683.7714437321,2086.76519763934
1691.61137324181,2086.77519763934
1715.48094417146,2086.78519763934
1759.86860122791,2086.79519763934
1826.5546747246,2086.80519763934
1913.91091841084,2086.81519763934
2020.80531130772,2086.82519763934
2146.5145595745,2086.83519763934
2285.17225471256,2086.84519763934
2425.30827310478,2086.85519763934
2561.82043946427,2086.86519763934
2688.23324124801,2086.87519763934
2798.67581146684,2086.88519763934
2892.83601959983,2086.89519763934
2968.68514360136,2086.90519763934
3028.6330478045,2086.91519763934
3073.83676893612,2086.92519763934
3102.3626960545,2086.93519763934
3113.85686835734,2086.94519763934
3110.7763718581,2086.95519763934
3095.81732370243,2086.96519763934
3069.30176289576,2086.97519763934
3040.37723738664,2086.98519763934
3004.94049345885,2086.99519763934
2964.08753085788,2087.00519763934
2921.27188486949,2087.01519763934
2877.48000073375,2087.02519763934
2832.66830582034,2087.03519763934
2786.07105121941,2087.04519763934
2737.44663579694,2087.05519763934
2689.85970206035,2087.06519763934
2640.40278672743,2087.07519763934
2592.64535789542,2087.08519763934
2545.36293568633,2087.09519763934
2499.86705453661,2087.10519763934
2457.02771091337,2087.11519763934
2417.29073531927,2087.12519763934
2386.95262910008,2087.13519763934
2360.49713074184,2087.14519763934
2336.79703654385,2087.15519763934
2319.80806453928,2087.16519763934
2308.37056796034,2087.17519763934
2303.48265431835,2087.18519763934
2302.79581102447,2087.19519763934
2306.32641655,2087.20519763934
2307.95864735001,2087.21519763934
2307.78260827506,2087.22519763934
2303.06698449099,2087.23519763934
2294.32881203531,2087.24519763934
2282.79589080111,2087.25519763934
2267.03029448746,2087.26519763934
2249.5754569471,2087.27519763934
2229.29956081223,2087.28519763934
2207.61518090959,2087.29519763934
2185.38799826533,2087.30519763934
2163.85165849463,2087.31519763934
2141.77121670799,2087.32519763934
2118.30029841103,2087.33519763934
2097.63451158368,2087.34519763934
2077.45056083367,2087.35519763934
2055.99249165665,2087.36519763934
2032.92135360583,2087.37519763934
2012.46691668187,2087.38519763934
1989.83486056737,2087.39519763934
1969.64665236284,2087.40519763934
1951.60167043285,2087.41519763934
1936.63094549724,2087.42519763934
1922.02845054971,2087.43519763934
1907.18670111566,2087.44519763934
1893.02297402609,2087.45519763934
1878.61379150779,2087.46519763934
1864.09875157359,2087.47519763934
1849.22448138482,2087.48519763934
1835.26342617257,2087.49519763934
1824.0461042445,2087.50519763934
1815.43398330225,2087.51519763934
1802.6073065613,2087.52519763934
1788.64817679088,2087.53519763934
1772.86499156458,2087.54519763934
1756.27170921113,2087.55519763934
1745.32222399297,2087.56519763934
1737.10284420197,2087.57519763934
1735.50854756104,2087.58519763934
1736.73222360957,2087.59519763934
1746.34365995798,2087.60519763934
1769.51964588463,2087.61519763934
1815.862731095,2087.62519763934
1886.41370992492,2087.63519763934
1979.59565649473,2087.64519763934
2093.37377972355,2087.65519763934
2223.00274082957,2087.66519763934
2359.17320190109,2087.67519763934
2500.49120892324,2087.68519763934
2639.62198897193,2087.69519763934
2767.08568353521,2087.70519763934
2879.9927082687,2087.71519763934
2975.22037423411,2087.72519763934
3048.84133373736,2087.73519763934
3103.83128921178,2087.74519763934
3139.14142270714,2087.75519763934
3156.34357845958,2087.76519763934
3159.97868225127,2087.77519763934
3153.73989892871,2087.78519763934
3134.27791910642,2087.79519763934
3106.44402320784,2087.80519763934
3069.62869471987,2087.81519763934
3030.30062640904,2087.82519763934
2986.03234541154,2087.83519763934
2941.42916534291,2087.84519763934
2896.7920461333,2087.85519763934
2848.00131781269,2087.86519763934
2798.30367749366,2087.87519763934
2745.75576692511,2087.88519763934
2693.66732307733,2087.89519763934
2639.97949784165,2087.90519763934
2586.23922637013,2087.91519763934
2530.14373418202,2087.92519763934
2476.9896106112,2087.93519763934
2425.97038087246,2087.94519763934
2378.97615887517,2087.95519763934
2333.6941339344,2087.96519763934
2293.32377410965,2087.97519763934
2260.56152720545,2087.98519763934
2230.95178516771,2087.99519763934
2210.25590688724,2088.00519763934
2188.93486157375,2088.01519763934
2170.01437437057,2088.02519763934
2152.77396362803,2088.03519763934
2137.29709629769,2088.04519763934
2120.48083668624,2088.05519763934
2106.36652171002,2088.06519763934
2093.19231698214,2088.07519763934
2076.51289812562,2088.08519763934
2054.79824961333,2088.09519763934
2031.18364106495,2088.10519763934
2002.50359953232,2088.11519763934
1973.18419888444,2088.12519763934
1946.21677934636,2088.13519763934
1918.94077917002,2088.14519763934
1893.13363814615,2088.15519763934
1867.81222941274,2088.16519763934
1843.21163562851,2088.17519763934
1821.66663130811,2088.18519763934
1798.91692224067,2088.19519763934
1777.63392359031,2088.20519763934
1756.48354694947,2088.21519763934
1736.30275077214,2088.22519763934
1715.61211581837,2088.23519763934
1697.41758711004,2088.24519763934
1678.66366894174,2088.25519763934
1661.84317083287,2088.26519763934
1646.14276011368,2088.27519763934
1629.62188151901,2088.28519763934
1616.27606707785,2088.29519763934
1602.16309890192,2088.30519763934
1587.26085883652,2088.31519763934
1572.79520481963,2088.32519763934
1557.88701961615,2088.33519763934
1542.81627317259,2088.34519763934
1526.28953297007,2088.35519763934
1508.61111515442,2088.36519763934
1493.91701183152,2088.37519763934
1478.73198378277,2088.38519763934
1461.77647924223,2088.39519763934
1445.70801404475,2088.40519763934
1433.44405273879,2088.41519763934
1424.90180510367,2088.42519763934
1415.71889223689,2088.43519763934
1410.3811836787,2088.44519763934
1412.40469963247,2088.45519763934
1430.9535595806,2088.46519763934
1470.37477196449,2088.47519763934
1533.09792162072,2088.48519763934
1619.66580344934,2088.49519763934
1722.95633195432,2088.50519763934
1839.49643988242,2088.51519763934
1961.76189661869,2088.52519763934
2083.29407239241,2088.53519763934
2201.80747991238,2088.54519763934
2307.85722865063,2088.55519763934
2401.07313107529,2088.56519763934
2475.09112201228,2088.57519763934
2531.13800133443,2088.58519763934
2570.41675793585,2088.59519763934
2590.0004648022,2088.60519763934
2594.04256308827,2088.61519763934
2582.29500923642,2088.62519763934
2557.52083577407,2088.63519763934
2523.65703050217,2088.64519763934
2479.79588069764,2088.65519763934
2430.88259416594,2088.66519763934
2377.44299512385,2088.67519763934
2322.53838572757,2088.68519763934
2267.31486555111,2088.69519763934
2212.99196147991,2088.70519763934
2159.70460992721,2088.71519763934
2107.44694580161,2088.72519763934
2060.07608212855,2088.73519763934
2009.07141767911,2088.74519763934
1958.46553447362,2088.75519763934
1910.28775629927,2088.76519763934
1865.40360657742,2088.77519763934
1827.80263519959,2088.78519763934
1793.53087575251,2088.79519763934
1765.51764363593,2088.80519763934
1739.97241197989,2088.81519763934
1722.64643291682,2088.82519763934
1712.70676793041,2088.83519763934
1706.14164570345,2088.84519763934
1707.65166743985,2088.85519763934
1711.10001716782,2088.86519763934
1715.31766629145,2088.87519763934
1719.61412890295,2088.88519763934
1724.96263791943,2088.89519763934
1728.74702399428,2088.90519763934
1729.06126537944,2088.91519763934
1727.20460486597,2088.92519763934
1721.7960286694,2088.93519763934
1713.99813312886,2088.94519763934
1703.79959008522,2088.95519763934
1689.98392340386,2088.96519763934
1673.39785830805,2088.97519763934
1654.85283557436,2088.98519763934
1635.94066249223,2088.99519763934
1616.5012444978,2089.00519763934
1597.76181165648,2089.01519763934
1580.9274713928,2089.02519763934
1564.83654064004,2089.03519763934
1552.12617988093,2089.04519763934
1540.80901379103,2089.05519763934
1531.96466727902,2089.06519763934
1521.48101782676,2089.07519763934
1511.75943856194,2089.08519763934
1503.32131411163,2089.09519763934
1494.0218238424,2089.10519763934
1488.22904486583,2089.11519763934
1483.23673498919,2089.12519763934
1481.25666809349,2089.13519763934
1479.53482429754,2089.14519763934
1478.12857724991,2089.15519763934
1481.04250891344,2089.16519763934
1483.9524158669,2089.17519763934
1491.48465700876,2089.18519763934
1503.25637675126,2089.19519763934
1517.27627446764,2089.20519763934
1538.33451847511,2089.21519763934
1568.85313169476,2089.22519763934
1617.47104244824,2089.23519763934
1683.96518593257,2089.24519763934
1769.42628803229,2089.25519763934
1870.69079673188,2089.26519763934
1985.69146089614,2089.27519763934
2107.18252430151,2089.28519763934
2226.58756736557,2089.29519763934
2339.03526996875,2089.30519763934
2439.46613528883,2089.31519763934
2532.23970649707,2089.32519763934
2605.89812414005,2089.33519763934
2661.74543590063,2089.34519763934
2702.85594702282,2089.35519763934
2725.2336896349,2089.36519763934
2731.19049405139,2089.37519763934
2725.09404574432,2089.38519763934
2708.38810632681,2089.39519763934
2683.33573312448,2089.40519763934
2654.13184845248,2089.41519763934
2620.18195919655,2089.42519763934
2584.57501128884,2089.43519763934
2550.82343618404,2089.44519763934
2518.03948174842,2089.45519763934
2487.20516099682,2089.46519763934
2455.79363651117,2089.47519763934
2424.10366245759,2089.48519763934
2391.26215939831,2089.49519763934
2357.34769679378,2089.50519763934
2323.12209443363,2089.51519763934
2288.76288680049,2089.52519763934
2257.05340347271,2089.53519763934
2229.20972649881,2089.54519763934
2208.09832999068,2089.55519763934
2190.44834416424,2089.56519763934
2177.16655893868,2089.57519763934
2166.38027717989,2089.58519763934
2160.69937520634,2089.59519763934
2159.87513037646,2089.60519763934
2162.9649558676,2089.61519763934
2170.90708076769,2089.62519763934
2176.52212949144,2089.63519763934
2181.53141718064,2089.64519763934
2186.03015497961,2089.65519763934
2189.20064731344,2089.66519763934
2190.49468171091,2089.67519763934
2189.77070364436,2089.68519763934
2185.28005897708,2089.69519763934
2177.7348156858,2089.70519763934
2167.40263457909,2089.71519763934
2154.74366819574,2089.72519763934
2138.78626640514,2089.73519763934
2119.31873796208,2089.74519763934
2099.90846277317,2089.75519763934
2082.98984842955,2089.76519763934
2068.14662608541,2089.77519763934
2054.42771885259,2089.78519763934
2040.56532982902,2089.79519763934
2025.8865338961,2089.80519763934
2007.65551793936,2089.81519763934
1989.77021123404,2089.82519763934
1973.26857037461,2089.83519763934
1961.78417888615,2089.84519763934
1950.02687668117,2089.85519763934
1942.64613369794,2089.86519763934
1935.43026828878,2089.87519763934
1929.56792461633,2089.88519763934
1925.2690061739,2089.89519763934
1920.99400219569,2089.90519763934
1916.90444163327,2089.91519763934
1912.60161300369,2089.92519763934
1908.96656722768,2089.93519763934
1903.75605722512,2089.94519763934
1895.85616891103,2089.95519763934
1885.59619130119,2089.96519763934
1874.73407007045,2089.97519763934
1864.462807053,2089.98519763934
1852.37468657918,2089.99519763934
1844.89841656368,2090.00519763934
1846.24393348031,2090.01519763934
1861.36740597201,2090.02519763934
1894.59729614149,2090.03519763934
1953.75405266629,2090.04519763934
2034.89332460157,2090.05519763934
2131.06436242698,2090.06519763934
2243.93677038307,2090.07519763934
2359.55189906096,2090.08519763934
2474.07780529987,2090.09519763934
2578.42967113197,2090.10519763934
2671.19213838634,2090.11519763934
2750.28642680771,2090.12519763934
2812.49435609021,2090.13519763934
2860.19387571825,2090.14519763934
2889.88137588756,2090.15519763934
2899.50219883598,2090.16519763934
2893.42759414042,2090.17519763934
2875.21182081365,2090.18519763934
2848.1218666334,2090.19519763934
2812.33376291464,2090.20519763934
2768.61798715748,2090.21519763934
2720.27649811391,2090.22519763934
2671.68543827328,2090.23519763934
2622.65543548708,2090.24519763934
2574.89257479346,2090.25519763934
2527.70113445609,2090.26519763934
2486.5042177148,2090.27519763934
2449.24067670599,2090.28519763934
2408.59120940052,2090.29519763934
2367.00494677895,2090.30519763934
2323.62780852126,2090.31519763934
2279.58686179787,2090.32519763934
2236.08942473064,2090.33519763934
2195.29264379072,2090.34519763934
2155.51805561005,2090.35519763934
2122.23654599472,2090.36519763934
2095.43889253234,2090.37519763934
2075.26309623104,2090.38519763934
2063.7896673397,2090.39519763934
2055.25747424557,2090.40519763934
2052.01192603123,2090.41519763934
2050.84823437709,2090.42519763934
2050.99651725271,2090.43519763934
2052.52978557526,2090.44519763934
2054.80888861292,2090.45519763934
2055.69134587633,2090.46519763934
2056.78039103436,2090.47519763934
2058.11010893929,2090.48519763934
2058.10065806728,2090.49519763934
2057.23473163649,2090.50519763934
2051.98797800367,2090.51519763934
2043.26179184892,2090.52519763934
2029.2103893805,2090.53519763934
2012.44531408694,2090.54519763934
1997.84118839647,2090.55519763934
1984.02559390063,2090.56519763934
1968.85725443351,2090.57519763934
1951.80707955827,2090.58519763934
1936.03271037513,2090.59519763934
1921.24324945785,2090.60519763934
1908.96567260365,2090.61519763934
1900.80044111349,2090.62519763934
1891.23472731344,2090.63519763934
1880.43949491499,2090.64519763934
1866.05559926441,2090.65519763934
1854.43070222668,2090.66519763934
1844.56543123557,2090.67519763934
1837.10190351916,2090.68519763934
1829.91002643562,2090.69519763934
1823.24254884219,2090.70519763934
1815.27534838357,2090.71519763934
1808.56853573297,2090.72519763934
1803.13000077772,2090.73519763934
1799.16860418881,2090.74519763934
1798.20362666583,2090.75519763934
1792.78360391698,2090.76519763934
1784.97006382493,2090.77519763934
1779.59582462122,2090.78519763934
1775.21518916873,2090.79519763934
1769.94684457291,2090.80519763934
1765.45046228468,2090.81519763934
1762.75822021398,2090.82519763934
1762.72297566288,2090.83519763934
1774.30065364252,2090.84519763934
1801.09488021675,2090.85519763934
1848.44078677025,2090.86519763934
1916.83104749579,2090.87519763934
2003.95998321067,2090.88519763934
2103.31585515853,2090.89519763934
2210.89172317451,2090.90519763934
2318.0887911167,2090.91519763934
2419.33125009835,2090.92519763934
2511.59153980426,2090.93519763934
2588.76786365192,2090.94519763934
2649.39900056368,2090.95519763934
2695.64270883761,2090.96519763934
2723.60332996456,2090.97519763934
2737.03505007974,2090.98519763934
2733.83554458848,2090.99519763934
2716.41007904249,2091.00519763934
2687.84282650127,2091.01519763934
2650.97178590614,2091.02519763934
2608.46120261888,2091.03519763934
2561.26179958471,2091.04519763934
2509.84064259694,2091.05519763934
2457.68282648701,2091.06519763934
2408.22630125212,2091.07519763934
2360.26901457084,2091.08519763934
2317.64846685852,2091.09519763934
2276.42029506112,2091.10519763934
2239.227906833,2091.11519763934
2198.64744036943,2091.12519763934
2156.57465727073,2091.13519763934
2111.29064026246,2091.14519763934
2067.53453793547,2091.15519763934
2029.17919697663,2091.16519763934
1995.20312279613,2091.17519763934
1964.87739353782,2091.18519763934
1940.82094612894,2091.19519763934
1919.27043423965,2091.20519763934
1900.64175575103,2091.21519763934
1885.7855336827,2091.22519763934
1878.87309238806,2091.23519763934
1876.26965464191,2091.24519763934
1876.39290185956,2091.25519763934
1881.2151894048,2091.26519763934
1883.88880972051,2091.27519763934
1885.03198976946,2091.28519763934
1885.10629184297,2091.29519763934
1882.85672273909,2091.30519763934
1878.92156886351,2091.31519763934
1871.32274881415,2091.32519763934
1858.45037236627,2091.33519763934
1844.7982944871,2091.34519763934
1829.20079482567,2091.35519763934
1809.81193223854,2091.36519763934
1789.4309427246,2091.37519763934
1767.01937152796,2091.38519763934
1743.73576907264,2091.39519763934
1721.59267348428,2091.40519763934
1702.66801629436,2091.41519763934
1686.12468827151,2091.42519763934
1670.40260199668,2091.43519763934
1654.48221107752,2091.44519763934
1641.0846839477,2091.45519763934
1627.37801078401,2091.46519763934
1613.53134769382,2091.47519763934
1600.16712439902,2091.48519763934
1589.91018903,2091.49519763934
1582.50933459674,2091.50519763934
1573.81196926528,2091.51519763934
1567.03987047178,2091.52519763934
1558.62344385175,2091.53519763934
1545.8491659548,2091.54519763934
1537.05633915194,2091.55519763934
1529.26678290312,2091.56519763934
1523.48294322833,2091.57519763934
1520.85006825899,2091.58519763934
1512.95768279181,2091.59519763934
1501.92454569112,2091.60519763934
1492.37332956604,2091.61519763934
1491.57808152752,2091.62519763934
1502.3734622167,2091.63519763934
1533.41634139559,2091.64519763934
1582.79500188801,2091.65519763934
1650.70463474984,2091.66519763934
1728.58530473666,2091.67519763934
1815.08181630337,2091.68519763934
1904.48999095311,2091.69519763934
1992.05636694059,2091.70519763934
2073.60306634843,2091.71519763934
2149.3232235318,2091.72519763934
2215.90545091912,2091.73519763934
2265.43022242063,2091.74519763934
2297.97961216534,2091.75519763934
2310.443374732,2091.76519763934
2308.35907030058,2091.77519763934
2291.02487622016,2091.78519763934
2262.46185296255,2091.79519763934
2227.79175147363,2091.80519763934
2187.93336786426,2091.81519763934
2146.54992748108,2091.82519763934
2103.32340618006,2091.83519763934
2060.73904445559,2091.84519763934
2017.17951021797,2091.85519763934
1975.16726546023,2091.86519763934
1937.49366278767,2091.87519763934
1900.71194065602,2091.88519763934
1867.51660947818,2091.89519763934
1836.33938252595,2091.90519763934
1809.62880484591,2091.91519763934
1785.71692056617,2091.92519763934
1761.47879834835,2091.93519763934
1738.67456111892,2091.94519763934
1722.62591967979,2091.95519763934
1715.16839413579,2091.96519763934
1718.73027830663,2091.97519763934
1727.81651151099,2091.98519763934
1740.50344652718,2091.99519763934
1754.80727138163,2092.00519763934
1770.78299085332,2092.01519763934
1791.7348876219,2092.02519763934
1815.18126945655,2092.03519763934
1836.30609918761,2092.04519763934
1857.45617902152,2092.05519763934
1876.25955568339,2092.06519763934
1893.10315303363,2092.07519763934
1907.63841249669,2092.08519763934
1919.18287489409,2092.09519763934
1926.41162970592,2092.10519763934
1929.41173074561,2092.11519763934
1928.32215603944,2092.12519763934
1926.37472453375,2092.13519763934
1921.88998490505,2092.14519763934
1919.09059087567,2092.15519763934
1917.97442658282,2092.16519763934
1918.01863764125,2092.17519763934
1917.97989490584,2092.18519763934
1916.44049158529,2092.19519763934
1915.52336106904,2092.20519763934
1915.01274708474,2092.21519763934
1914.91363796938,2092.22519763934
1915.33590458417,2092.23519763934
1916.51027998279,2092.24519763934
1920.81311904584,2092.25519763934
1923.32816283559,2092.26519763934
1925.4972844479,2092.27519763934
1925.03014891287,2092.28519763934
1925.00701924044,2092.29519763934
1924.36753371998,2092.30519763934
1922.33561940742,2092.31519763934
1920.35484564076,2092.32519763934
1919.5098899932,2092.33519763934
1922.46983586374,2092.34519763934
1927.44964624986,2092.35519763934
1936.69761707436,2092.36519763934
1953.92595528692,2092.37519763934
1984.89517539618,2092.38519763934
2032.32982120402,2092.39519763934
2098.16657305525,2092.40519763934
2184.14172391093,2092.41519763934
2283.68998911559,2092.42519763934
2389.26067970606,2092.43519763934
2496.55429693373,2092.44519763934
2599.39794998633,2092.45519763934
2690.00811504599,2092.46519763934
2768.64804138313,2092.47519763934
2831.77121812985,2092.48519763934
2879.3207368585,2092.49519763934
2909.31940009902,2092.50519763934
2925.42064652008,2092.51519763934
2927.59741980782,2092.52519763934
2915.86854994118,2092.53519763934
2894.62357069907,2092.54519763934
2864.84077581498,2092.55519763934
2830.03552492384,2092.56519763934
2793.25680421033,2092.57519763934
2751.9394930302,2092.58519763934
2711.45606628296,2092.59519763934
2670.05660031979,2092.60519763934
2627.58931660116,2092.61519763934
2590.61853735045,2092.62519763934
2554.63992378339,2092.63519763934
2518.00400410314,2092.64519763934
2484.95249141151,2092.65519763934
2451.27657918973,2092.66519763934
2416.9257513495,2092.67519763934
2378.57128192945,2092.68519763934
2339.18722902802,2092.69519763934
2302.8791798078,2092.70519763934
2272.16564564485,2092.71519763934
2250.65661540061,2092.72519763934
2230.35487197525,2092.73519763934
2214.79453165374,2092.74519763934
2203.69007875889,2092.75519763934
2195.87763770096,2092.76519763934
2193.25216510816,2092.77519763934
2194.41671519721,2092.78519763934
2198.1422566769,2092.79519763934
2204.89105549241,2092.80519763934
2209.36603769045,2092.81519763934
2209.71384404111,2092.82519763934
2206.895912499,2092.83519763934
2199.46268868456,2092.84519763934
2192.10909704983,2092.85519763934
2184.2647462644,2092.86519763934
2172.29633511984,2092.87519763934
2159.52139340271,2092.88519763934
2144.89109045998,2092.89519763934
2128.38478848452,2092.90519763934
2111.68028115252,2092.91519763934
2096.5550568576,2092.92519763934
2081.79535306817,2092.93519763934
2068.7440462652,2092.94519763934
2059.64627435261,2092.95519763934
2051.2528544429,2092.96519763934
2041.22195612419,2092.97519763934
2032.65212183266,2092.98519763934
2018.73538333105,2092.99519763934
2006.29984040768,2093.00519763934
1995.94242049678,2093.01519763934
1985.14952924995,2093.02519763934
1975.07467777469,2093.03519763934
1965.12800763264,2093.04519763934
1953.88823887061,2093.05519763934
1942.60379067117,2093.06519763934
1935.45630769615,2093.07519763934
1931.49676597037,2093.08519763934
1923.93239201803,2093.09519763934
1914.77365064435,2093.10519763934
1905.09013760084,2093.11519763934
1894.05270126057,2093.12519763934
1885.85593725816,2093.13519763934
1877.94525542309,2093.14519763934
1873.79731094517,2093.15519763934
1870.70125015093,2093.16519763934
1868.01593361902,2093.17519763934
1866.56041416484,2093.18519763934
1862.50033794417,2093.19519763934
1861.68461046768,2093.20519763934
1865.0448307461,2093.21519763934
1867.31846520787,2093.22519763934
1871.25662548048,2093.23519763934
1880.95417116947,2093.24519763934
1903.81708411692,2093.25519763934
1947.06516818256,2093.26519763934
2008.731109924,2093.27519763934
2090.17325023571,2093.28519763934
2190.48209091654,2093.29519763934
2302.0137492689,2093.30519763934
2418.69369357773,2093.31519763934
2535.36725656301,2093.32519763934
2648.45541997343,2093.33519763934
2751.20083134772,2093.34519763934
2836.73277098813,2093.35519763934
2905.13231670879,2093.36519763934
2956.87986356071,2093.37519763934
2990.32378840369,2093.38519763934
3003.40872769937,2093.39519763934
3001.97758094918,2093.40519763934
2990.93496852523,2093.41519763934
2966.79261139408,2093.42519763934
2933.84075830957,2093.43519763934
2892.60891866592,2093.44519763934
2846.82898395382,2093.45519763934
2796.07433791731,2093.46519763934
2746.23561787389,2093.47519763934
2697.73472032255,2093.48519763934
2653.42774885623,2093.49519763934
2614.21239070943,2093.50519763934
2576.96839837261,2093.51519763934
2540.71146923575,2093.52519763934
2499.8539649858,2093.53519763934
2457.60500447607,2093.54519763934
2412.20361268024,2093.55519763934
2367.56555219362,2093.56519763934
2325.74486629023,2093.57519763934
2287.06638998926,2093.58519763934
2247.13389978878,2093.59519763934
2208.39566545231,2093.60519763934
2174.5086658231,2093.61519763934
2147.06131131432,2093.62519763934
2128.05517174897,2093.63519763934
2115.54283203289,2093.64519763934
2111.5052069285,2093.65519763934
2108.60167399424,2093.66519763934
2104.85540204952,2093.67519763934
2101.60348281112,2093.68519763934
2097.87340138509,2093.69519763934
2094.70177844657,2093.70519763934
2092.18161354885,2093.71519763934
2089.54646009756,2093.72519763934
2084.28163567454,2093.73519763934
2078.88433865223,2093.74519763934
2067.97547560722,2093.75519763934
2053.59992851403,2093.76519763934
2038.14133800275,2093.77519763934
2023.15568584862,2093.78519763934
2006.69912220049,2093.79519763934
1991.64234960963,2093.80519763934
1976.22133133109,2093.81519763934
1956.78367653005,2093.82519763934
1939.3516861007,2093.83519763934
1922.52872165236,2093.84519763934
1908.22536516292,2093.85519763934
1894.60988019508,2093.86519763934
1883.92766397298,2093.87519763934
1872.03158150831,2093.88519763934
1859.27738777494,2093.89519763934
1846.31518770014,2093.90519763934
1830.88814827456,2093.91519763934
1816.47354379844,2093.92519763934
1804.1229405715,2093.93519763934
1792.9402437022,2093.94519763934
1782.19332020342,2093.95519763934
1774.34724853713,2093.96519763934
1765.2732768507,2093.97519763934
1753.52297739893,2093.98519763934
1742.75233698058,2093.99519763934
1730.47937872339,2094.00519763934
1718.88810166219,2094.01519763934
1711.14550796886,2094.02519763934
1701.9099182654,2094.03519763934
1692.00760105598,2094.04519763934
1683.18022259031,2094.05519763934
1673.5542497625,2094.06519763934
1662.71789062059,2094.07519763934
1648.45134389985,2094.08519763934
1635.61506209106,2094.09519763934
1621.76645899611,2094.10519763934
1610.94980764974,2094.11519763934
1599.26514030579,2094.12519763934
1589.03577113269,2094.13519763934
1585.14239778741,2094.14519763934
1592.44529694311,2094.15519763934
1623.73345898755,2094.16519763934
1679.08607855935,2094.17519763934
1756.0494454385,2094.18519763934
1848.90301304001,2094.19519763934
1955.15521457692,2094.20519763934
2067.13135461201,2094.21519763934
2181.0648010335,2094.22519763934
2289.53447141323,2094.23519763934
2386.11028186944,2094.24519763934
2468.24211687537,2094.25519763934
2532.53324669454,2094.26519763934
2576.8400514368,2094.27519763934
2602.54013655079,2094.28519763934
2610.1940911025,2094.29519763934
2604.22226357412,2094.30519763934
2586.83467570404,2094.31519763934
2558.850244346,2094.32519763934
2521.76812211668,2094.33519763934
2479.66672475853,2094.34519763934
2433.13492034101,2094.35519763934
2382.16054880344,2094.36519763934
2329.80008585544,2094.37519763934
2277.67709770669,2094.38519763934
2228.665905425,2094.39519763934
2179.42126261284,2094.40519763934
2135.53188243472,2094.41519763934
2093.94519051355,2094.42519763934
2051.39457729939,2094.43519763934
2012.68094396285,2094.44519763934
1975.90092187505,2094.45519763934
1941.23798330976,2094.46519763934
1908.03940123117,2094.47519763934
1877.76537505208,2094.48519763934
1853.86210930631,2094.49519763934
1834.49607421447,2094.50519763934
1821.02801050584,2094.51519763934
1813.71951448822,2094.52519763934
1808.50106124607,2094.53519763934
1804.08150848244,2094.54519763934
1801.49957963826,2094.55519763934
1800.85331712178,2094.56519763934
1801.01371879625,2094.57519763934
1802.89281580824,2094.58519763934
1804.34208826979,2094.59519763934
1802.530769707,2094.60519763934
1797.99585752028,2094.61519763934
1785.68759944355,2094.62519763934
1773.36525150424,2094.63519763934
1757.50533178997,2094.64519763934
1740.67583468199,2094.65519763934
1724.73017545954,2094.66519763934
1711.46263007209,2094.67519763934
1697.30162743909,2094.68519763934
1683.32958379833,2094.69519763934
1669.38678541136,2094.70519763934
1652.76359271639,2094.71519763934
1640.34973738627,2094.72519763934
1628.93346439962,2094.73519763934
1621.38436441726,2094.74519763934
1616.21858958149,2094.75519763934
1611.35446372746,2094.76519763934
1608.03932054611,2094.77519763934
1602.80152551841,2094.78519763934
1598.34585134296,2094.79519763934
1595.62987384808,2094.80519763934
1594.04071218884,2094.81519763934
1597.90479875288,2094.82519763934
1603.7917080309,2094.83519763934
1613.08903445538,2094.84519763934
1620.85543176033,2094.85519763934
1626.0920449434,2094.86519763934
1633.43224677279,2094.87519763934
1640.64166602459,2094.88519763934
1651.35160801878,2094.89519763934
1661.13752990492,2094.90519763934
1673.08329260344,2094.91519763934
1693.64854239254,2094.92519763934
1723.88541581987,2094.93519763934
1774.23593596551,2094.94519763934
1842.38314762232,2094.95519763934
1929.84967381848,2094.96519763934
2034.17889420527,2094.97519763934
2152.05552005054,2094.98519763934
2278.42211209462,2094.99519763934
2403.2049290585,2095.00519763934
2522.01734931658,2095.01519763934
2630.57076454334,2095.02519763934
2727.49780659227,2095.03519763934
2807.64031867329,2095.04519763934
2873.8102473262,2095.05519763934
2922.27486289232,2095.06519763934
2954.62016590338,2095.07519763934
2972.80620383137,2095.08519763934
2975.07340740621,2095.09519763934
2965.63080564174,2095.10519763934
2944.60715597884,2095.11519763934
2917.38880744432,2095.12519763934
2885.37810819378,2095.13519763934
2849.92100841766,2095.14519763934
2813.5785157473,2095.15519763934
2777.00631835977,2095.16519763934
2740.04318705094,2095.17519763934
2703.27448853196,2095.18519763934
2664.44167811228,2095.19519763934
2625.45783625734,2095.20519763934
2587.75826722645,2095.21519763934
2547.49825455152,2095.22519763934
2509.31605772965,2095.23519763934
2470.64759870767,2095.24519763934
2432.61471921096,2095.25519763934
2397.9723171289,2095.26519763934
2367.67826219361,2095.27519763934
2344.16034131027,2095.28519763934
2323.08140565369,2095.29519763934
2306.3559166683,2095.30519763934
2297.42910637124,2095.31519763934
2294.19840318288,2095.32519763934
2298.69501612337,2095.33519763934
2304.01177493705,2095.34519763934
2308.87581571021,2095.35519763934
2313.20281581758,2095.36519763934
2314.48092552269,2095.37519763934
2311.00054945851,2095.38519763934
2302.88286285959,2095.39519763934
2292.27134951315,2095.40519763934
2278.65920303521,2095.41519763934
2264.36364507789,2095.42519763934
2247.903201692,2095.43519763934
2230.40675403114,2095.44519763934
2210.67414725581,2095.45519763934
2188.31012507986,2095.46519763934
2166.21775266293,2095.47519763934
2144.52777203066,2095.48519763934
2122.55512411821,2095.49519763934
2101.22366484788,2095.50519763934
2079.27052716523,2095.51519763934
2057.90787256482,2095.52519763934
2033.96123142241,2095.53519763934
2010.17160232833,2095.54519763934
1991.68931806623,2095.55519763934
1977.09178630899,2095.56519763934
1963.59289493791,2095.57519763934
1951.20659784228,2095.58519763934
1937.67669895807,2095.59519763934
1921.70985075613,2095.60519763934
1902.48223108557,2095.61519763934
1886.20631121856,2095.62519763934
1873.34571352074,2095.63519763934
1862.34190997935,2095.64519763934
1850.38286736699,2095.65519763934
1841.74281714853,2095.66519763934
1832.07864302985,2095.67519763934
1820.83507487051,2095.68519763934
1809.49471829072,2095.69519763934
1797.36683956301,2095.70519763934
1789.43940580476,2095.71519763934
1783.58971678736,2095.72519763934
1783.31632855008,2095.73519763934
1794.16044956288,2095.74519763934
1820.88906531779,2095.75519763934
1864.72139827033,2095.76519763934
1930.7091454657,2095.77519763934
2016.84747550015,2095.78519763934
2122.03649129491,2095.79519763934
2242.81001130039,2095.80519763934
2368.67411793514,2095.81519763934
2494.07538832503,2095.82519763934
2613.1199486501,2095.83519763934
2722.74031946575,2095.84519763934
2821.84062966345,2095.85519763934
2905.54684077164,2095.86519763934
2971.58592217306,2095.87519763934
3018.76426526739,2095.88519763934
3048.39112831477,2095.89519763934
3061.40538920494,2095.90519763934
3060.00974828884,2095.91519763934
3045.54120158658,2095.92519763934
3019.34290301591,2095.93519763934
2986.20844099329,2095.94519763934
2948.78934342258,2095.95519763934
2909.53323476694,2095.96519763934
2870.07358142608,2095.97519763934
2828.60788113762,2095.98519763934
2786.62862838686,2095.99519763934
2746.38886486251,2096.00519763934
2709.09663750551,2096.01519763934
2673.81053324023,2096.02519763934
2636.54509790711,2096.03519763934
2599.29736903765,2096.04519763934
2558.45566158235,2096.05519763934
2514.89413674683,2096.06519763934
2471.70983078469,2096.07519763934
2429.48768023212,2096.08519763934
2386.70517078676,2096.09519763934
2348.76960304415,2096.10519763934
2313.68986890993,2096.11519763934
2284.02678485865,2096.12519763934
2262.36985273951,2096.13519763934
2243.5521593123,2096.14519763934
2231.20436627251,2096.15519763934
2221.05384158983,2096.16519763934
2211.51532121686,2096.17519763934
2203.75040534118,2096.18519763934
2199.98478431039,2096.19519763934
2194.01425245311,2096.20519763934
2185.64283050549,2096.21519763934
2173.75255843737,2096.22519763934
2159.72794818942,2096.23519763934
2142.1881325354,2096.24519763934
2121.4686144492,2096.25519763934
2099.51604694375,2096.26519763934
2073.69288772113,2096.27519763934
2046.73786502697,2096.28519763934
2019.57104396465,2096.29519763934
1991.54246878308,2096.30519763934
1963.13263293559,2096.31519763934
1933.97579554564,2096.32519763934
1908.96172990789,2096.33519763934
1887.14046168701,2096.34519763934
1867.64768920914,2096.35519763934
1848.70648347505,2096.36519763934
1828.08565036918,2096.37519763934
1807.89430862143,2096.38519763934
1784.73554677603,2096.39519763934
1764.29419340892,2096.40519763934
1744.77070380933,2096.41519763934
1723.98378279236,2096.42519763934
1705.15323702937,2096.43519763934
1686.34652067143,2096.44519763934
1669.03068411752,2096.45519763934
1655.09604231613,2096.46519763934
1640.56862886401,2096.47519763934
1627.14764758058,2096.48519763934
1613.0386143485,2096.49519763934
1598.54342506436,2096.50519763934
1584.70432460646,2096.51519763934
1569.93680762682,2096.52519763934
1550.99296188423,2096.53519763934
1534.13248453481,2096.54519763934
1515.49770456239,2096.55519763934
1502.26549566446,2096.56519763934
1488.46968517769,2096.57519763934
1477.86735570222,2096.58519763934
1465.60603274518,2096.59519763934
1451.35932252938,2096.60519763934
1437.99768449866,2096.61519763934
1428.92444216144,2096.62519763934
1428.01037322795,2096.63519763934
1437.99950947861,2096.64519763934
1466.67791926322,2096.65519763934
1517.2654827669,2096.66519763934
1591.06879643457,2096.67519763934
1687.38989191904,2096.68519763934
1801.37195680768,2096.69519763934
1931.26339551186,2096.70519763934
2070.43788671829,2096.71519763934
2212.42882016955,2096.72519763934
2349.0779424667,2096.73519763934
2474.72191770767,2096.74519763934
2585.48096780247,2096.75519763934
2677.08774066971,2096.76519763934
2747.89770928418,2096.77519763934
2800.67645473644,2096.78519763934
2836.26499189343,2096.79519763934
2855.34199634035,2096.80519763934
2858.85235898894,2096.81519763934
2854.76882841854,2096.82519763934
2838.01125995235,2096.83519763934
2812.1951878586,2096.84519763934
2775.09504583071,2096.85519763934
2732.33279044627,2096.86519763934
2688.43124890627,2096.87519763934
2644.38819371088,2096.88519763934
2599.29045154382,2096.89519763934
2550.37211856697,2096.90519763934
2501.63969631669,2096.91519763934
2453.04902807466,2096.92519763934
2406.34552657313,2096.93519763934
2358.60024595649,2096.94519763934
2310.27177686949,2096.95519763934
2262.07198684693,2096.96519763934
2217.37854737547,2096.97519763934
2173.84289723294,2096.98519763934
2132.68342763038,2096.99519763934
2096.71294898842,2097.00519763934
2063.28724728571,2097.01519763934
2036.50623427564,2097.02519763934
2016.03663118611,2097.03519763934
2000.85167126616,2097.04519763934
1991.28736875501,2097.05519763934
1985.31369493325,2097.06519763934
1982.63789407764,2097.07519763934
1978.6627235271,2097.08519763934
1971.65134403782,2097.09519763934
1962.85213761904,2097.10519763934
1950.28801964718,2097.11519763934
1937.91641120014,2097.12519763934
1923.00896443494,2097.13519763934
1905.68152572629,2097.14519763934
1884.06966738548,2097.15519763934
1859.61029121057,2097.16519763934
1834.09622855931,2097.17519763934
1805.78927564914,2097.18519763934
1776.4866186532,2097.19519763934
1748.19991944924,2097.20519763934
1718.57384864363,2097.21519763934
1687.6990127623,2097.22519763934
1655.78430382659,2097.23519763934
1624.67319717861,2097.24519763934
1592.73407889674,2097.25519763934
1562.75464287736,2097.26519763934
1534.7960522163,2097.27519763934
1509.62320068968,2097.28519763934
1485.06735031317,2097.29519763934
1459.66804855417,2097.30519763934
1434.40184625534,2097.31519763934
1407.7190856536,2097.32519763934
1381.07714441918,2097.33519763934
1356.89179465076,2097.34519763934
1336.99990394999,2097.35519763934
1321.41191289748,2097.36519763934
1307.6141693945,2097.37519763934
1291.7640090477,2097.38519763934
1275.070940142,2097.39519763934
1257.70628319753,2097.40519763934
1241.55875532016,2097.41519763934
1224.01915705079,2097.42519763934
1205.55553533517,2097.43519763934
1190.773493045,2097.44519763934
1180.81544440788,2097.45519763934
1180.7733910242,2097.46519763934
1191.04200456177,2097.47519763934
1219.62975395769,2097.48519763934
1264.74540621561,2097.49519763934
1332.95564449681,2097.50519763934
1425.24537977542,2097.51519763934
1533.31868243906,2097.52519763934
1653.40920489316,2097.53519763934
1780.56935441188,2097.54519763934
1909.51902408207,2097.55519763934
2040.0424576684,2097.56519763934
2163.60252249158,2097.57519763934
2276.85414896391,2097.58519763934
2377.2707089218,2097.59519763934
2459.50171956543,2097.60519763934
2525.18659269565,2097.61519763934
2575.16776977975,2097.62519763934
2605.91769095228,2097.63519763934
2617.53884993274,2097.64519763934
2618.14677324767,2097.65519763934
2609.96325217486,2097.66519763934
2595.29906807557,2097.67519763934
2577.71028375046,2097.68519763934
2555.02347025143,2097.69519763934
2528.47721574054,2097.70519763934
2498.23215850468,2097.71519763934
2465.26320090962,2097.72519763934
2431.82310375526,2097.73519763934
2394.4640497902,2097.74519763934
2356.562689967,2097.75519763934
2318.65660603196,2097.76519763934
2278.29961837561,2097.77519763934
2240.39841907789,2097.78519763934
2200.62749284223,2097.79519763934
2163.15962049213,2097.80519763934
2129.31958211671,2097.81519763934
2101.26280844917,2097.82519763934
2077.12814855637,2097.83519763934
2060.80709249393,2097.84519763934
2049.74861428699,2097.85519763934
2042.90389621474,2097.86519763934
2040.61789577955,2097.87519763934
2040.34965667863,2097.88519763934
2044.22286522414,2097.89519763934
2049.40601063657,2097.90519763934
2054.34638425337,2097.91519763934
2055.40481638311,2097.92519763934
2050.69556822517,2097.93519763934
2042.31780817003,2097.94519763934
2030.09695373534,2097.95519763934
2018.09642056191,2097.96519763934
2004.97502435912,2097.97519763934
1988.24823987811,2097.98519763934
1970.53904762797,2097.99519763934
1951.79654003147,2098.00519763934
1931.64788076175,2098.01519763934
1910.69323579729,2098.02519763934
1888.2227921337,2098.03519763934
1867.27286107752,2098.04519763934
1847.27113630054,2098.05519763934
1829.49499665891,2098.06519763934
1814.03609651592,2098.07519763934
1795.97148506971,2098.08519763934
1776.19020747274,2098.09519763934
1755.33485907721,2098.10519763934
1736.41107077653,2098.11519763934
1721.15022379314,2098.12519763934
1709.06919714504,2098.13519763934
1699.12355497864,2098.14519763934
1690.18302848749,2098.15519763934
1683.48301211867,2098.16519763934
1678.33400036986,2098.17519763934
1672.541326073,2098.18519763934
1665.65203128106,2098.19519763934
1660.72201929734,2098.20519763934
1656.0021652581,2098.21519763934
1651.11978422576,2098.22519763934
1642.58143264675,2098.23519763934
1637.50451841282,2098.24519763934
1640.57685055654,2098.25519763934
1656.12496514741,2098.26519763934
1691.73171140276,2098.27519763934
1751.86603869686,2098.28519763934
1835.0948193812,2098.29519763934
1941.83807046849,2098.30519763934
2067.34674096882,2098.31519763934
2206.82597466556,2098.32519763934
2352.77649856556,2098.33519763934
2500.37959269404,2098.34519763934
2644.76958178072,2098.35519763934
2778.51252862878,2098.36519763934
2903.80623728283,2098.37519763934
3014.33824498015,2098.38519763934
3107.28051636833,2098.39519763934
3179.26961544535,2098.40519763934
3233.39649373136,2098.41519763934
3270.85402646259,2098.42519763934
3292.84417595994,2098.43519763934
3302.05839117745,2098.44519763934
3297.09043192513,2098.45519763934
3280.08677119266,2098.46519763934
3255.04551074418,2098.47519763934
3219.67334864506,2098.48519763934
3181.07844487132,2098.49519763934
3139.8670804037,2098.50519763934
3096.94102910208,2098.51519763934
3053.11587651924,2098.52519763934
3003.57294830842,2098.53519763934
2947.59720112224,2098.54519763934
2886.85891537152,2098.55519763934
2825.30059961457,2098.56519763934
2763.1268726973,2098.57519763934
2699.4674663577,2098.58519763934
2638.34474206649,2098.59519763934
2578.77715886618,2098.60519763934
2521.71505738348,2098.61519763934
2468.31418829703,2098.62519763934
2421.14514645486,2098.63519763934
2381.9316378422,2098.64519763934
2349.92076722899,2098.65519763934
2324.77086112757,2098.66519763934
2303.36827636765,2098.67519763934
2283.70010348009,2098.68519763934
2265.00498300998,2098.69519763934
2245.45989016806,2098.70519763934
2227.44122799386,2098.71519763934
2207.54607780507,2098.72519763934
2188.36610681863,2098.73519763934
2169.80470110819,2098.74519763934
2147.2905250388,2098.75519763934
2124.08499155293,2098.76519763934
2098.87206153878,2098.77519763934
2072.98826340119,2098.78519763934
2046.05465433402,2098.79519763934
2019.92142971272,2098.80519763934
1992.23156275674,2098.81519763934
1963.0866533168,2098.82519763934
1935.34619333345,2098.83519763934
1905.82225971665,2098.84519763934
1874.89097323332,2098.85519763934
1844.24900346122,2098.86519763934
1814.41380920019,2098.87519763934
1783.91677246565,2098.88519763934
1753.28174781549,2098.89519763934
1724.02294047796,2098.90519763934
1698.34823054117,2098.91519763934
1674.92454858429,2098.92519763934
1654.4749363864,2098.93519763934
1634.99326433828,2098.94519763934
1618.48954698644,2098.95519763934
1604.19597515357,2098.96519763934
1591.97182166355,2098.97519763934
1582.36654443275,2098.98519763934
1572.50355078278,2098.99519763934
1561.0682642568,2099.00519763934
1548.41643080885,2099.01519763934
1536.37573838513,2099.02519763934
1524.77913013043,2099.03519763934
1515.79192105524,2099.04519763934
1506.12782067407,2099.05519763934
1497.54034675752,2099.06519763934
1489.84221920889,2099.07519763934
1479.31959860647,2099.08519763934
1472.10915807695,2099.09519763934
1469.23144889074,2099.10519763934
1474.78701795965,2099.11519763934
1496.69925598289,2099.12519763934
1541.13686880253,2099.13519763934
1613.11702135586,2099.14519763934
1712.65110962526,2099.15519763934
1838.02875822666,2099.16519763934
1980.09614207085,2099.17519763934
2133.69999803058,2099.18519763934
2288.15339488615,2099.19519763934
2443.4594104234,2099.20519763934
2595.0856290189,2099.21519763934
2733.88082678313,2099.22519763934
2860.91270044198,2099.23519763934
2968.55490111672,2099.24519763934
3055.16092727142,2099.25519763934
3120.88117107385,2099.26519763934
3166.42469917072,2099.27519763934
3193.15542659676,2099.28519763934
3204.00168639678,2099.29519763934
3198.21034326004,2099.30519763934
3179.92006908123,2099.31519763934
3150.16685564814,2099.32519763934
3110.15144266515,2099.33519763934
3066.64847798434,2099.34519763934
3020.27437657842,2099.35519763934
2970.02002530682,2099.36519763934
2918.74496550012,2099.37519763934
2863.31972253114,2099.38519763934
2804.1855359363,2099.39519763934
2741.7340084514,2099.40519763934
2677.44867362432,2099.41519763934
2609.49097402501,2099.42519763934
2545.12371802854,2099.43519763934
2484.22217927953,2099.44519763934
2426.58485449677,2099.45519763934
2367.55583426373,2099.46519763934
2311.18823625437,2099.47519763934
2255.82790397057,2099.48519763934
2205.32702101143,2099.49519763934
2164.16492320618,2099.50519763934
2133.07479468437,2099.51519763934
2104.62493677884,2099.52519763934
2081.68520396358,2099.53519763934
2065.4304963866,2099.54519763934
2050.98000751554,2099.55519763934
2034.85032511894,2099.56519763934
2017.92419510585,2099.57519763934
2000.95830277726,2099.58519763934
1985.83800146463,2099.59519763934
1970.36029742437,2099.60519763934
1953.16535049703,2099.61519763934
1935.79459133845,2099.62519763934
1913.58107008167,2099.63519763934
1885.06271700479,2099.64519763934
1857.08861541223,2099.65519763934
1827.5435570066,2099.66519763934
1798.97389889033,2099.67519763934
1769.2510867343,2099.68519763934
1742.22569542571,2099.69519763934
1712.69705693965,2099.70519763934
1683.35055858288,2099.71519763934
1653.6038152849,2099.72519763934
1625.66466823465,2099.73519763934
1598.80409602897,2099.74519763934
1571.29195094759,2099.75519763934
1544.77504446507,2099.76519763934
1518.965029121,2099.77519763934
1495.26599210116,2099.78519763934
1472.6386966313,2099.79519763934
1450.35823784722,2099.80519763934
1425.63880795113,2099.81519763934
1401.34626555609,2099.82519763934
1374.38746605011,2099.83519763934
1345.82727893407,2099.84519763934
1317.15918922411,2099.85519763934
1289.46863881851,2099.86519763934
1264.53708348483,2099.87519763934
1238.63917269884,2099.88519763934
1208.87962474996,2099.89519763934
1174.31144491929,2099.90519763934
1136.14505293098,2099.91519763934
1099.62988934614,2099.92519763934
1064.29726861105,2099.93519763934
1032.75792131007,2099.94519763934
1005.00339124985,2099.95519763934
975.822069002765,2099.96519763934
951.245084949925,2099.97519763934
934.253561801784,2099.98519763934
930.379223246652,2099.99519763934
938.866106726541,2100.00519763934
966.702846544366,2100.01519763934
1018.57180414752,2100.02519763934
1097.97958669473,2100.03519763934
1206.18869024402,2100.04519763934
1342.66100669531,2100.05519763934
1500.585774135,2100.06519763934
1672.65159842985,2100.07519763934
1850.14496241595,2100.08519763934
2028.21923751652,2100.09519763934
2197.28580159401,2100.10519763934
2351.02715984887,2100.11519763934
2488.3744474412,2100.12519763934
2605.78598892801,2100.13519763934
2702.004490271,2100.14519763934
2779.15793045136,2100.15519763934
2836.96536139973,2100.16519763934
2874.94446205834,2100.17519763934
2895.62441196356,2100.18519763934
2898.00669918566,2100.19519763934
2888.07778694549,2100.20519763934
2865.70555854031,2100.21519763934
2831.69669600137,2100.22519763934
2790.72251986314,2100.23519763934
2743.23208879984,2100.24519763934
2692.09654994423,2100.25519763934
2637.90252482182,2100.26519763934
2578.65145896976,2100.27519763934
2515.22263789338,2100.28519763934
2448.66897626449,2100.29519763934
2382.3984831556,2100.30519763934
2314.30018731757,2100.31519763934
2241.66071630225,2100.32519763934
2169.01999743521,2100.33519763934
2099.85975502397,2100.34519763934
2036.5897910445,2100.35519763934
1980.74873302037,2100.36519763934
1930.92935188357,2100.37519763934
1886.55353204467,2100.38519763934
1849.02930673793,2100.39519763934
1819.56348216993,2100.40519763934
1794.48164037892,2100.41519763934
1775.76143793931,2100.42519763934
1763.91541151918,2100.43519763934
1756.52432258162,2100.44519763934
1754.54788817882,2100.45519763934
1753.34406971319,2100.46519763934
1749.63696512033,2100.47519763934
1745.92555196094,2100.48519763934
1739.52401930566,2100.49519763934
1732.68918707171,2100.50519763934
1724.31269401593,2100.51519763934
1714.18877996041,2100.52519763934
1699.67721495011,2100.53519763934
1681.25439035533,2100.54519763934
1660.80072810957,2100.55519763934
1638.36570367414,2100.56519763934
1620.85388698398,2100.57519763934
1606.40895656426,2100.58519763934
1594.91969649267,2100.59519763934
1584.68706669375,2100.60519763934
1575.69963550303,2100.61519763934
1567.9325679611,2100.62519763934
1558.17299147104,2100.63519763934
1546.36966671834,2100.64519763934
1535.55322278723,2100.65519763934
1523.35543541728,2100.66519763934
1511.20441848047,2100.67519763934
1501.24524944552,2100.68519763934
1492.35650796592,2100.69519763934
1484.94170783271,2100.70519763934
1477.75648166536,2100.71519763934
1467.07169245457,2100.72519763934
1457.00316970569,2100.73519763934
1446.99610772374,2100.74519763934
1437.87824502098,2100.75519763934
1432.44440801122,2100.76519763934
1431.43664577226,2100.77519763934
1435.7746951507,2100.78519763934
1455.91549851012,2100.79519763934
1494.51615436789,2100.80519763934
1556.43527123594,2100.81519763934
1645.88811000702,2100.82519763934
1759.11756502061,2100.83519763934
1891.80657543679,2100.84519763934
2040.73034765721,2100.85519763934
2200.32984630631,2100.86519763934
2365.32891001882,2100.87519763934
2527.18267108092,2100.88519763934
2683.34557279377,2100.89519763934
2826.05013267588,2100.90519763934
2954.04651977923,2100.91519763934
3064.31849338982,2100.92519763934
3154.27650475265,2100.93519763934
3224.27362458657,2100.94519763934
3274.06913982784,2100.95519763934
3307.43538186969,2100.96519763934
3321.98788317052,2100.97519763934
3321.51359313196,2100.98519763934
3307.95356737343,2100.99519763934
3283.89609221227,2101.00519763934
3248.65152039728,2101.01519763934
3205.6765423047,2101.02519763934
3160.67928587802,2101.03519763934
3113.71963306233,2101.04519763934
3065.13266294623,2101.05519763934
3015.39647832437,2101.06519763934
2960.428091501,2101.07519763934
2897.63917177524,2101.08519763934
2831.93509855009,2101.09519763934
2762.4278686892,2101.10519763934
2692.01427068283,2101.11519763934
2620.18422657311,2101.12519763934
2552.20054858688,2101.13519763934
2488.87653442815,2101.14519763934
2432.87531666908,2101.15519763934
2386.39210299713,2101.16519763934
2346.23564990019,2101.17519763934
2308.06076550058,2101.18519763934
2277.25079012067,2101.19519763934
2256.56908446382,2101.20519763934
2240.19839694518,2101.21519763934
2228.61910442739,2101.22519763934
2215.68843607546,2101.23519763934
2200.6707517448,2101.24519763934
2185.05758617972,2101.25519763934
2168.2926625932,2101.26519763934
2151.00519042951,2101.27519763934
2133.3202218934,2101.28519763934
2112.55021602089,2101.29519763934
2088.93729726032,2101.30519763934
2064.00884106408,2101.31519763934
2032.80172481412,2101.32519763934
1997.20190283392,2101.33519763934
1961.10966993198,2101.34519763934
1925.00962220464,2101.35519763934
1893.38610192537,2101.36519763934
1865.05470160789,2101.37519763934
1839.79810549824,2101.38519763934
1816.79666386803,2101.39519763934
1793.71580464753,2101.40519763934
1771.39446167095,2101.41519763934
1746.15793337728,2101.42519763934
1721.20703061348,2101.43519763934
1699.22345461049,2101.44519763934
1679.25074957577,2101.45519763934
1659.45480932683,2101.46519763934
1639.5579626451,2101.47519763934
1620.31867580775,2101.48519763934
1603.35009200686,2101.49519763934
1588.67376997811,2101.50519763934
1578.53823225641,2101.51519763934
1568.309754721,2101.52519763934
1556.29622047476,2101.53519763934
1542.45237621672,2101.54519763934
1529.97414807939,2101.55519763934
1521.05627427894,2101.56519763934
1511.51626498043,2101.57519763934
1503.22880779714,2101.58519763934
1492.51965385649,2101.59519763934
1485.87881878909,2101.60519763934
1485.9346583561,2101.61519763934
1498.58073304396,2101.62519763934
1533.75521325247,2101.63519763934
1591.97179448491,2101.64519763934
1679.01727081533,2101.65519763934
1794.04588396313,2101.66519763934
1930.75380231187,2101.67519763934
2091.37960386316,2101.68519763934
2263.57315918155,2101.69519763934
2438.67650911564,2101.70519763934
2616.77074076053,2101.71519763934
2786.64617737585,2101.72519763934
2941.15736200058,2101.73519763934
3077.30678923878,2101.74519763934
3192.45200232494,2101.75519763934
3287.31571278179,2101.76519763934
3361.35177087774,2101.77519763934
3411.0977195673,2101.78519763934
3439.37733122817,2101.79519763934
3447.69591944085,2101.80519763934
3441.2880908652,2101.81519763934
3424.39519443787,2101.82519763934
3400.51725030167,2101.83519763934
3368.48082536009,2101.84519763934
3329.43725590116,2101.85519763934
3281.75413411613,2101.86519763934
3226.47161684998,2101.87519763934
3166.50421313971,2101.88519763934
3100.6784742587,2101.89519763934
3034.48834450184,2101.90519763934
2966.0373367257,2101.91519763934
2897.16825733798,2101.92519763934
2824.39732190545,2101.93519763934
2750.83723244587,2101.94519763934
2674.86479328538,2101.95519763934
2601.6143974271,2101.96519763934
2531.36867431081,2101.97519763934
2464.8833157536,2101.98519763934
2407.08986182306,2101.99519763934
2355.13561914084,2102.00519763934
2306.47416702766,2102.01519763934
2261.15188172073,2102.02519763934
2222.8461072453,2102.03519763934
2192.20445986628,2102.04519763934
2166.44006884584,2102.05519763934
2144.93497302341,2102.06519763934
2126.06632459884,2102.07519763934
2107.39773187132,2102.08519763934
2088.84988622118,2102.09519763934
2068.18320566416,2102.10519763934
2047.20493573468,2102.11519763934
2025.62292075069,2102.12519763934
2001.52390876616,2102.13519763934
1974.58972406565,2102.14519763934
1946.56685874091,2102.15519763934
1916.55104183621,2102.16519763934
1884.60005387915,2102.17519763934
1851.6148077547,2102.18519763934
1820.80463732411,2102.19519763934
1788.60325843289,2102.20519763934
1758.38591262281,2102.21519763934
1729.49074801238,2102.22519763934
1701.63334563218,2102.23519763934
1674.61235090642,2102.24519763934
1646.71731145718,2102.25519763934
1618.35534651362,2102.26519763934
1590.17543414799,2102.27519763934
1562.86425903913,2102.28519763934
1539.35644431819,2102.29519763934
1518.52849404042,2102.30519763934
1495.20619476286,2102.31519763934
1474.76606784012,2102.32519763934
1457.13177293565,2102.33519763934
1439.68051259416,2102.34519763934
1423.20865109285,2102.35519763934
1403.16295445723,2102.36519763934
1383.97236994722,2102.37519763934
1368.13412340351,2102.38519763934
1353.48519559099,2102.39519763934
1340.84998792723,2102.40519763934
1330.1146530649,2102.41519763934
1321.27660143935,2102.42519763934
1311.01263325322,2102.43519763934
1303.09147979774,2102.44519763934
1295.83797942851,2102.45519763934
1291.31357392086,2102.46519763934
1284.68581081243,2102.47519763934
1276.05893369282,2102.48519763934
1267.5534399778,2102.49519763934
1258.61129504738,2102.50519763934
1249.98639722368,2102.51519763934
1244.1788525641,2102.52519763934
1243.79028896537,2102.53519763934
1252.37185869039,2102.54519763934
1277.78826289721,2102.55519763934
1326.07027268722,2102.56519763934
1404.97670078493,2102.57519763934
1513.01581849127,2102.58519763934
1648.77805392285,2102.59519763934
1804.24260485215,2102.60519763934
1976.00142701075,2102.61519763934
2160.90664459753,2102.62519763934
2351.76572057194,2102.63519763934
2537.86746386635,2102.64519763934
2713.49904981613,2102.65519763934
2872.99140088458,2102.66519763934
3013.96070092525,2102.67519763934
3131.77080579872,2102.68519763934
3227.61195958154,2102.69519763934
3301.86690212263,2102.70519763934
3352.99253497003,2102.71519763934
3381.11671398977,2102.72519763934
3387.45077641135,2102.73519763934
3377.35110171998,2102.74519763934
3349.2917971628,2102.75519763934
3310.63019442542,2102.76519763934
3262.2075191987,2102.77519763934
3206.43846959824,2102.78519763934
3146.91631489717,2102.79519763934
3081.66904672374,2102.80519763934
3011.80073600013,2102.81519763934
2938.8211042397,2102.82519763934
2865.34397213701,2102.83519763934
2791.73734668169,2102.84519763934
2719.53161194228,2102.85519763934
2645.24710090776,2102.86519763934
2568.67105039397,2102.87519763934
2489.18882279129,2102.88519763934
2410.665607774,2102.89519763934
2334.56879053475,2102.90519763934
2264.34556281689,2102.91519763934
2203.73705737759,2102.92519763934
2152.9687249805,2102.93519763934
2108.49313720599,2102.94519763934
2071.78402643861,2102.95519763934
2039.09546349841,2102.96519763934
2011.69976214681,2102.97519763934
1987.68014640972,2102.98519763934
1968.7471783852,2102.99519763934
1951.40655895421,2103.00519763934
1933.28647135471,2103.01519763934
1912.88645949234,2103.02519763934
1890.71640229449,2103.03519763934
1863.4072571928,2103.04519763934
1833.01436162652,2103.05519763934
1802.33113386523,2103.06519763934
1771.92803113337,2103.07519763934
1737.76254598086,2103.08519763934
1702.97906682437,2103.09519763934
1666.56383467515,2103.10519763934
1626.48463913188,2103.11519763934
1584.84387922929,2103.12519763934
1544.86443330593,2103.13519763934
1508.67735900088,2103.14519763934
1473.99145590369,2103.15519763934
1440.99000344987,2103.16519763934
1409.93911756199,2103.17519763934
1376.78203833735,2103.18519763934
1345.14187611447,2103.19519763934
1313.56485291255,2103.20519763934
1282.880068435,2103.21519763934
1257.40206495765,2103.22519763934
1234.94948624713,2103.23519763934
1214.27706995007,2103.24519763934
1192.47378518363,2103.25519763934
1170.46123051726,2103.26519763934
1150.32779967126,2103.27519763934
1128.21317260347,2103.28519763934
1109.08595605961,2103.29519763934
1092.05622478809,2103.30519763934
1074.97059800699,2103.31519763934
1058.36570086233,2103.32519763934
1039.2531412681,2103.33519763934
1020.65093647133,2103.34519763934
1002.56391258996,2103.35519763934
988.858637688221,2103.36519763934
977.294163710505,2103.37519763934
970.824219866742,2103.38519763934
969.258004842131,2103.39519763934
972.253289587172,2103.40519763934
990.939949853818,2103.41519763934
1028.03130348104,2103.42519763934
1093.03340336419,2103.43519763934
1189.37763096119,2103.44519763934
1310.33853427695,2103.45519763934
1453.4450589404,2103.46519763934
1613.43849290222,2103.47519763934
1783.63983490714,2103.48519763934
1956.80570337017,2103.49519763934
2129.38191151075,2103.50519763934
2295.28614983535,2103.51519763934
2452.08585146499,2103.52519763934
2593.60586646962,2103.53519763934
2717.81737679595,2103.54519763934
2816.82479857892,2103.55519763934
2891.42663163124,2103.56519763934
2944.74740977357,2103.57519763934
2977.6189346639,2103.58519763934
2992.43220158604,2103.59519763934
2988.98797724974,2103.60519763934
2970.24106745398,2103.61519763934
2939.66536147724,2103.62519763934
2903.80335986266,2103.63519763934
2859.99773262019,2103.64519763934
2812.10374288464,2103.65519763934
2758.04836657818,2103.66519763934
2695.9942200144,2103.67519763934
2626.68575772308,2103.68519763934
2551.2237792206,2103.69519763934
2474.04353301249,2103.70519763934
2397.97393733653,2103.71519763934
2324.23622768079,2103.72519763934
2254.85032667688,2103.73519763934
2187.18709301331,2103.74519763934
2122.70287585762,2103.75519763934
2065.19063705596,2103.76519763934
2012.50206800428,2103.77519763934
1968.33230907298,2103.78519763934
1938.19630915261,2103.79519763934
1915.18667123062,2103.80519763934
1897.80013886283,2103.81519763934
1885.32353654849,2103.82519763934
1874.79307288103,2103.83519763934
1865.78639297344,2103.84519763934
1861.47901549114,2103.85519763934
1859.71665064496,2103.86519763934
1860.01322421455,2103.87519763934
1857.53105491439,2103.88519763934
1852.4834887272,2103.89519763934
1844.39590818706,2103.90519763934
1831.18715370241,2103.91519763934
1820.62872929598,2103.92519763934
1805.93166941646,2103.93519763934
1788.66471236899,2103.94519763934
1769.44681920365,2103.95519763934
1750.91638923486,2103.96519763934
1732.60252739619,2103.97519763934
1715.26308440141,2103.98519763934
1697.38071941886,2103.99519763934
1681.01842818374,2104.00519763934
1664.03773760228,2104.01519763934
1643.0908215672,2104.02519763934
1620.6509602486,2104.03519763934
1598.33776871017,2104.04519763934
1577.03038733086,2104.05519763934
1559.8593950402,2104.06519763934
1545.44063631749,2104.07519763934
1532.15473388093,2104.08519763934
1518.79263807769,2104.09519763934
1505.49770913059,2104.10519763934
1491.61667976367,2104.11519763934
1475.75304008734,2104.12519763934
1461.95356036892,2104.13519763934
1450.25859779825,2104.14519763934
1438.73333413494,2104.15519763934
1429.1071563593,2104.16519763934
1421.46223513587,2104.17519763934
1417.386358431,2104.18519763934
1421.62719022933,2104.19519763934
1443.55408163443,2104.20519763934
1489.85189868791,2104.21519763934
1562.87998995574,2104.22519763934
1667.69217364795,2104.23519763934
1797.69859278654,2104.24519763934
1948.32459897663,2104.25519763934
2116.37970648308,2104.26519763934
2295.93167973625,2104.27519763934
2475.81898860525,2104.28519763934
2649.89506356376,2104.29519763934
2813.96558292637,2104.30519763934
2958.35067319387,2104.31519763934
3082.67128863936,2104.32519763934
3182.43959921231,2104.33519763934
3257.11642172378,2104.34519763934
3312.6714377147,2104.35519763934
3347.37995959007,2104.36519763934
3362.0544277674,2104.37519763934
3361.62248587214,2104.38519763934
3349.4745062258,2104.39519763934
3325.21039365423,2104.40519763934
3290.51315840285,2104.41519763934
3249.08056277207,2104.42519763934
3199.07062432356,2104.43519763934
3141.11515037097,2104.44519763934
3078.81396653393,2104.45519763934
3010.27694620297,2104.46519763934
2937.64503880176,2104.47519763934
2859.44426016653,2104.48519763934
2780.13130078892,2104.49519763934
2699.00720320362,2104.50519763934
2619.76578120351,2104.51519763934
2544.71770065885,2104.52519763934
2470.81356592389,2104.53519763934
2405.0464411221,2104.54519763934
2343.85572179055,2104.55519763934
2290.71373479971,2104.56519763934
2243.18518543682,2104.57519763934
2202.58886605853,2104.58519763934
2166.89468660367,2104.59519763934
2136.68850947472,2104.60519763934
2114.92632487615,2104.61519763934
2097.73372110524,2104.62519763934
2083.90204952217,2104.63519763934
2071.4888820301,2104.64519763934
2058.09210942439,2104.65519763934
2041.51658399572,2104.66519763934
2021.35085566026,2104.67519763934
1997.96790854464,2104.68519763934
1973.32293020378,2104.69519763934
1949.71203558867,2104.70519763934
1926.78245721553,2104.71519763934
1903.15711682198,2104.72519763934
1877.93890684163,2104.73519763934
1851.6547745243,2104.74519763934
1826.58843172523,2104.75519763934
1801.85445532324,2104.76519763934
1778.57034870051,2104.77519763934
1751.64366533834,2104.78519763934
1724.25882352412,2104.79519763934
1697.67962640198,2104.80519763934
1670.973799886,2104.81519763934
1644.28280614486,2104.82519763934
1616.12923494711,2104.83519763934
1589.97572251266,2104.84519763934
1567.95297723921,2104.85519763934
1550.08905904572,2104.86519763934
1533.28805853294,2104.87519763934
1516.63701590241,2104.88519763934
1501.37012196433,2104.89519763934
1485.6953625224,2104.90519763934
1469.04867877361,2104.91519763934
1453.69295739326,2104.92519763934
1440.24253433587,2104.93519763934
1424.85316671865,2104.94519763934
1412.80645363499,2104.95519763934
1402.32065441239,2104.96519763934
1390.45523114218,2104.97519763934
1383.03877613882,2104.98519763934
1374.38612185223,2104.99519763934
1368.8504326152,2105.00519763934
1360.48504945933,2105.01519763934
1353.02023249142,2105.02519763934
1350.1851023238,2105.03519763934
1354.61245165821,2105.04519763934
1375.41109660704,2105.05519763934
1420.82877916484,2105.06519763934
1494.81469927601,2105.07519763934
1597.55990942102,2105.08519763934
1726.51808209599,2105.09519763934
1875.94186413913,2105.10519763934
2042.71274731839,2105.11519763934
2221.35723308965,2105.12519763934
2402.39629691162,2105.13519763934
2583.42647064286,2105.14519763934
2754.96957695787,2105.15519763934
2911.46585733485,2105.16519763934
3049.69315686034,2105.17519763934
3162.03289489346,2105.18519763934
3248.71602675427,2105.19519763934
3311.03976692683,2105.20519763934
3352.05146490745,2105.21519763934
3374.8132687922,2105.22519763934
3384.27011176453,2105.23519763934
3378.40059904079,2105.24519763934
3356.30914689433,2105.25519763934
3324.87090811983,2105.26519763934
3283.61981485879,2105.27519763934
3233.76654820636,2105.28519763934
3181.2308657294,2105.29519763934
3126.12546939882,2105.30519763934
3067.78930063713,2105.31519763934
3006.51226249047,2105.32519763934
2937.93522056078,2105.33519763934
2868.38216625589,2105.34519763934
2795.78026212091,2105.35519763934
2720.80721098036,2105.36519763934
2647.66970552425,2105.37519763934
2575.16203718617,2105.38519763934
2504.67059387686,2105.39519763934
2434.98270960919,2105.40519763934
2373.46307791221,2105.41519763934
2314.77799593153,2105.42519763934
2263.2339330022,2105.43519763934
2219.85982603333,2105.44519763934
2185.76796051044,2105.45519763934
2158.1652855336,2105.46519763934
2138.33631629672,2105.47519763934
2121.11336229125,2105.48519763934
2105.41369598443,2105.49519763934
2091.05758445135,2105.50519763934
2074.0549365057,2105.51519763934
2055.45498348541,2105.52519763934
2032.32361813677,2105.53519763934
2008.8246656115,2105.54519763934
1982.36536659723,2105.55519763934
1953.69136726963,2105.56519763934
1921.66399210492,2105.57519763934
1891.5946783678,2105.58519763934
1864.02815393592,2105.59519763934
1835.18945970817,2105.60519763934
1810.75977422517,2105.61519763934
1784.29261256008,2105.62519763934
1758.61296925976,2105.63519763934
1732.9661853304,2105.64519763934
1706.84192445234,2105.65519763934
1679.28137935713,2105.66519763934
1652.72973446007,2105.67519763934
1626.16306817682,2105.68519763934
1600.11098222137,2105.69519763934
1578.34445730146,2105.70519763934
1555.65177454555,2105.71519763934
1536.53541809167,2105.72519763934
1518.48988276123,2105.73519763934
1500.98078917883,2105.74519763934
1484.33833438997,2105.75519763934
1466.42822130098,2105.76519763934
1449.15266197818,2105.77519763934
1433.85985470804,2105.78519763934
1424.90482339519,2105.79519763934
1415.20532684771,2105.80519763934
1409.65240199316,2105.81519763934
1403.74092799932,2105.82519763934
1395.22391789464,2105.83519763934
1385.08506490541,2105.84519763934
1375.4627695876,2105.85519763934
1369.67468924551,2105.86519763934
1364.75168078192,2105.87519763934
1356.65431078731,2105.88519763934
1347.50604224377,2105.89519763934
1338.52103753246,2105.90519763934
1336.70772617266,2105.91519763934
1347.05450038645,2105.92519763934
1371.42648873546,2105.93519763934
1415.86183791298,2105.94519763934
1483.71935662857,2105.95519763934
1576.47144238728,2105.96519763934
1697.56603679996,2105.97519763934
1839.3640514388,2105.98519763934
1999.50630399382,2105.99519763934
2171.38575102917,2106.00519763934
2346.99522793426,2106.01519763934
2519.69090783246,2106.02519763934
2679.25128017849,2106.03519763934
2822.01784989725,2106.04519763934
2945.29300542094,2106.05519763934
3048.13838432525,2106.06519763934
3128.47289790016,2106.07519763934
3186.46511883821,2106.08519763934
3223.37157004469,2106.09519763934
3239.33564213853,2106.10519763934
3237.70597203665,2106.11519763934
3219.24032236584,2106.12519763934
3186.06122020745,2106.13519763934
3145.24316447309,2106.14519763934
3095.54564856826,2106.15519763934
3043.00229964072,2106.16519763934
2985.59245466044,2106.17519763934
2924.67898993546,2106.18519763934
2862.203332218,2106.19519763934
2798.99484189704,2106.20519763934
2734.52107024322,2106.21519763934
2664.80222481724,2106.22519763934
2595.80045948553,2106.23519763934
2525.13239851282,2106.24519763934
2452.05719414417,2106.25519763934
2381.92713763051,2106.26519763934
2312.33646472403,2106.27519763934
2247.65790484274,2106.28519763934
2185.59234925588,2106.29519763934
2131.63785414872,2106.30519763934
2085.32061859699,2106.31519763934
2047.67151567809,2106.32519763934
2017.48122801825,2106.33519763934
1990.90851435568,2106.34519763934
1971.01552871622,2106.35519763934
1957.995383219,2106.36519763934
1944.84679620955,2106.37519763934
1929.73562170127,2106.38519763934
1910.59351029462,2106.39519763934
1891.75282861046,2106.40519763934
1870.63220983498,2106.41519763934
1848.06409154169,2106.42519763934
1824.74488821501,2106.43519763934
1800.18257515927,2106.44519763934
1774.59043700525,2106.45519763934
1751.53410265622,2106.46519763934
1724.20596923886,2106.47519763934
1696.30015668128,2106.48519763934
1666.84584879508,2106.49519763934
1636.27578786828,2106.50519763934
1605.36701900431,2106.51519763934
1573.60737967372,2106.52519763934
1542.31515588151,2106.53519763934
1510.50683630479,2106.54519763934
1481.77163035258,2106.55519763934
1457.04149290857,2106.56519763934
1435.11848012295,2106.57519763934
1415.82288548984,2106.58519763934
1397.18658888215,2106.59519763934
1379.31051197909,2106.60519763934
1361.29629137117,2106.61519763934
1343.31041420062,2106.62519763934
1325.85309298102,2106.63519763934
1310.03170048665,2106.64519763934
1293.19239784142,2106.65519763934
1277.2840110466,2106.66519763934
1263.03695047992,2106.67519763934
1246.11469692936,2106.68519763934
1230.41999236067,2106.69519763934
1219.81579312921,2106.70519763934
1211.34704037179,2106.71519763934
1204.74195191135,2106.72519763934
1196.73506124433,2106.73519763934
1188.72489268771,2106.74519763934
1178.69664683447,2106.75519763934
1166.36076410089,2106.76519763934
1153.21021420681,2106.77519763934
1145.9780247146,2106.78519763934
1149.89570147646,2106.79519763934
1170.93497907869,2106.80519763934
1212.88898386851,2106.81519763934
1278.08902198558,2106.82519763934
1369.30846896414,2106.83519763934
1484.14513305854,2106.84519763934
1623.00538687811,2106.85519763934
1777.50638338932,2106.86519763934
1938.34433130987,2106.87519763934
2099.25434438411,2106.88519763934
2251.00441564308,2106.89519763934
2393.02018321046,2106.90519763934
2517.25410104986,2106.91519763934
2618.4693189148,2106.92519763934
2699.2321777763,2106.93519763934
2760.07824484201,2106.94519763934
2799.93876117787,2106.95519763934
2820.4932059544,2106.96519763934
2822.93404987373,2106.97519763934
2808.74562699567,2106.98519763934
2779.85154049309,2106.99519763934
2739.81352747913,2107.00519763934
2693.92657111696,2107.01519763934
2644.4982150097,2107.02519763934
2590.32611871113,2107.03519763934
2534.12520534497,2107.04519763934
2475.91043203824,2107.05519763934
2416.17919345199,2107.06519763934
2356.25663497447,2107.07519763934
2293.45103813141,2107.08519763934
2231.44485800948,2107.09519763934
2168.57392562356,2107.10519763934
2105.74259402009,2107.11519763934
2043.466380183,2107.12519763934
1984.38661257434,2107.13519763934
1930.63750002071,2107.14519763934
1883.59211749573,2107.15519763934
1844.41409459105,2107.16519763934
1814.44555147987,2107.17519763934
1790.25677093054,2107.18519763934
1771.72967221316,2107.19519763934
1756.44353447094,2107.20519763934
1745.44374686599,2107.21519763934
1735.36775607478,2107.22519763934
1728.95571161748,2107.23519763934
1723.08232237241,2107.24519763934
1717.61788421531,2107.25519763934
1709.62217170927,2107.26519763934
1698.31203786097,2107.27519763934
1687.96402998041,2107.28519763934
1674.84077821012,2107.29519763934
1661.84812344985,2107.30519763934
1648.11780223035,2107.31519763934
1630.69146434169,2107.32519763934
1611.20832360355,2107.33519763934
1589.26857797546,2107.34519763934
1565.35661703367,2107.35519763934
1543.57208225471,2107.36519763934
1525.23779640196,2107.37519763934
1510.32213073694,2107.38519763934
1498.80443681366,2107.39519763934
1488.7130692862,2107.40519763934
1480.96223790607,2107.41519763934
1473.63141980747,2107.42519763934
1465.05867406419,2107.43519763934
1455.95390757808,2107.44519763934
1448.73981563368,2107.45519763934
1441.70843946584,2107.46519763934
1438.41224780568,2107.47519763934
1436.16528291387,2107.48519763934
1433.20832812067,2107.49519763934
1432.90933861586,2107.50519763934
1432.90669714525,2107.51519763934
1432.11233717856,2107.52519763934
1430.10411229971,2107.53519763934
1429.82316068925,2107.54519763934
1429.62416630497,2107.55519763934
1432.2088946052,2107.56519763934
1439.58329927813,2107.57519763934
1454.1592539743,2107.58519763934
1483.40635843658,2107.59519763934
1531.97016770985,2107.60519763934
1601.79077640707,2107.61519763934
1695.3720873605,2107.62519763934
1810.15410100057,2107.63519763934
1945.70512907424,2107.64519763934
2092.65874785141,2107.65519763934
2246.49413672671,2107.66519763934
2399.50972174015,2107.67519763934
2547.0695366142,2107.68519763934
2683.44343596733,2107.69519763934
2802.33783385879,2107.70519763934
2905.95032471632,2107.71519763934
2988.73056973177,2107.72519763934
3051.03212828399,2107.73519763934
3093.24967463197,2107.74519763934
3119.73655924659,2107.75519763934
3128.32394327455,2107.76519763934
3121.97031488175,2107.77519763934
3104.54639499428,2107.78519763934
3079.81062000334,2107.79519763934
3050.89455035211,2107.80519763934
3017.57870322986,2107.81519763934
2980.91721679997,2107.82519763934
2940.82866111335,2107.83519763934
2896.13549982782,2107.84519763934
2849.91381379047,2107.85519763934
2799.49668182227,2107.86519763934
2748.38166202028,2107.87519763934
2694.57513244878,2107.88519763934
2638.31242774768,2107.89519763934
2582.34290335406,2107.90519763934
2528.43192010414,2107.91519763934
2479.73178569031,2107.92519763934
2432.63490948887,2107.93519763934
2394.82209810871,2107.94519763934
2360.7743865521,2107.95519763934
2332.13857998927,2107.96519763934
2307.88535633065,2107.97519763934
2287.99075743963,2107.98519763934
2273.74634077909,2107.99519763934
2266.09142206383,2108.00519763934
2260.88891432242,2108.01519763934
2258.48478094604,2108.02519763934
2256.97469348071,2108.03519763934
2250.48052267507,2108.04519763934
2241.29449143456,2108.05519763934
2228.73388188615,2108.06519763934
2212.63070299517,2108.07519763934
2192.0988986199,2108.08519763934
2167.67903719565,2108.09519763934
2143.0740995239,2108.10519763934
2113.66525703335,2108.11519763934
2085.00023387472,2108.12519763934
2059.33182656044,2108.13519763934
2032.21472990992,2108.14519763934
2006.40850143404,2108.15519763934
1982.41405677242,2108.16519763934
1957.35258544948,2108.17519763934
1934.62984581356,2108.18519763934
1911.67569956721,2108.19519763934
1886.76801913075,2108.20519763934
1863.16204954823,2108.21519763934
1839.04397196849,2108.22519763934
1816.61011547359,2108.23519763934
1796.40685171917,2108.24519763934
1777.2972844055,2108.25519763934
1762.11471775898,2108.26519763934
1750.0410779219,2108.27519763934
1738.80900992692,2108.28519763934
1725.71641048447,2108.29519763934
1718.16184468473,2108.30519763934
1710.30385613212,2108.31519763934
1700.46577374271,2108.32519763934
1692.09686854699,2108.33519763934
1682.5667857749,2108.34519763934
1670.31819852574,2108.35519763934
1657.57582240319,2108.36519763934
1644.98957011125,2108.37519763934
1634.37952350348,2108.38519763934
1627.28623096497,2108.39519763934
1622.18625638665,2108.40519763934
1623.57047199071,2108.41519763934
1634.04681756879,2108.42519763934
1663.13257933526,2108.43519763934
1714.29410698957,2108.44519763934
1790.7987794525,2108.45519763934
1893.02221626222,2108.46519763934
2018.7363228975,2108.47519763934
2161.47400111941,2108.48519763934
2314.27005650159,2108.49519763934
2472.5601476006,2108.50519763934
2628.5823641991,2108.51519763934
2769.24278684297,2108.52519763934
2892.79635587694,2108.53519763934
2997.02956500234,2108.54519763934
3080.74971949636,2108.55519763934
3143.35842177497,2108.56519763934
3185.56081547834,2108.57519763934
3210.02086484603,2108.58519763934
3217.85487151315,2108.59519763934
3210.54122313131,2108.60519763934
3189.88484071353,2108.61519763934
3158.3012193233,2108.62519763934
3118.42974109783,2108.63519763934
3073.3304292556,2108.64519763934
3026.28030572195,2108.65519763934
2978.73215344891,2108.66519763934
2929.07841528731,2108.67519763934
2880.79283520184,2108.68519763934
2832.60467954441,2108.69519763934
2783.35063461828,2108.70519763934
2731.93724611337,2108.71519763934
2679.84633331871,2108.72519763934
2626.81858226221,2108.73519763934
2574.27257941667,2108.74519763934
2522.39894002786,2108.75519763934
2470.99289196759,2108.76519763934
2421.99603668672,2108.77519763934
2378.89487378281,2108.78519763934
2338.84282102393,2108.79519763934
2304.20833505053,2108.80519763934
2275.02087200181,2108.81519763934
2249.05535684418,2108.82519763934
2225.63341535416,2108.83519763934
2205.54464129959,2108.84519763934
2188.51953468631,2108.85519763934
2175.60142470723,2108.86519763934
2163.63546364216,2108.87519763934
2153.52575431255,2108.88519763934
2142.00567080009,2108.89519763934
2129.66993193381,2108.90519763934
2113.81851703606,2108.91519763934
2095.2784193935,2108.92519763934
2075.51370341228,2108.93519763934
2054.3990786149,2108.94519763934
2032.43673524289,2108.95519763934
2008.93401760074,2108.96519763934
1982.46784301817,2108.97519763934
1957.67480582505,2108.98519763934
1933.72506774359,2108.99519763934
1908.58347802902,2109.00519763934
1885.26855246902,2109.01519763934
1862.21432951368,2109.02519763934
1837.77617614201,2109.03519763934
1812.72681235807,2109.04519763934
1785.65059256853,2109.05519763934
1757.60928247048,2109.06519763934
1730.48004742102,2109.07519763934
1707.83069223375,2109.08519763934
1690.00264605777,2109.09519763934
1674.4016467059,2109.10519763934
1662.0209279315,2109.11519763934
1650.27098462336,2109.12519763934
1638.14550099132,2109.13519763934
1625.36592249716,2109.14519763934
1613.4427481529,2109.15519763934
1601.36571935454,2109.16519763934
1588.60874710414,2109.17519763934
1575.13530136272,2109.18519763934
1563.32673425424,2109.19519763934
1550.48348379926,2109.20519763934
1536.4648790164,2109.21519763934
1526.57192970588,2109.22519763934
1518.86540529902,2109.23519763934
1509.07003364857,2109.24519763934
1500.14097768152,2109.25519763934
1492.62804822888,2109.26519763934
1485.21854017728,2109.27519763934
1481.86043751945,2109.28519763934
1482.43128117011,2109.29519763934
1497.83628265263,2109.30519763934
1535.67848786333,2109.31519763934
1598.5166284429,2109.32519763934
1686.7204038283,2109.33519763934
1797.65846601707,2109.34519763934
1926.26575907463,2109.35519763934
2067.29765715559,2109.36519763934
2212.74728832525,2109.37519763934
2355.33827524066,2109.38519763934
2488.26755251936,2109.39519763934
2606.76457271443,2109.40519763934
2709.82211698231,2109.41519763934
2794.27460607187,2109.42519763934
2860.29483025704,2109.43519763934
2906.27243002579,2109.44519763934
2931.29599776499,2109.45519763934
2936.30402006284,2109.46519763934
2925.16178081257,2109.47519763934
2899.10348721015,2109.48519763934
2864.80486067322,2109.49519763934
2823.53961446302,2109.50519763934
2778.01342605869,2109.51519763934
2728.24445445041,2109.52519763934
2676.53443026312,2109.53519763934
2625.73269515809,2109.54519763934
2576.41575074546,2109.55519763934
2527.17250585262,2109.56519763934
2479.20915736044,2109.57519763934
2430.73010122815,2109.58519763934
2382.0377176252,2109.59519763934
2335.25569996781,2109.60519763934
2285.36634488764,2109.61519763934
2237.73191971391,2109.62519763934
2189.59105964984,2109.63519763934
2144.38478711623,2109.64519763934
2105.08795324098,2109.65519763934
2072.83128220802,2109.66519763934
2043.32123239794,2109.67519763934
2021.54959098646,2109.68519763934
2002.13314154017,2109.69519763934
1984.54696493532,2109.70519763934
1971.16685812134,2109.71519763934
1960.90002696111,2109.72519763934
1951.83035886885,2109.73519763934
1941.8029203837,2109.74519763934
1930.26469197533,2109.75519763934
1916.77963844426,2109.76519763934
1902.40746992693,2109.77519763934
1889.38815987405,2109.78519763934
1875.12194448323,2109.79519763934
1858.69043964,2109.80519763934
1838.94427661505,2109.81519763934
1813.81632868314,2109.82519763934
1787.73994023317,2109.83519763934
1763.57605603185,2109.84519763934
1737.84057497192,2109.85519763934
1709.98793208638,2109.86519763934
1682.99210059642,2109.87519763934
1656.13377082789,2109.88519763934
1629.28169416693,2109.89519763934
1606.56388174998,2109.90519763934
1584.91674808394,2109.91519763934
1566.14029488363,2109.92519763934
1548.93208395972,2109.93519763934
1531.77294698431,2109.94519763934
1519.18219131215,2109.95519763934
1505.65866625195,2109.96519763934
1488.36602135974,2109.97519763934
1471.96085796952,2109.98519763934
1454.30588551716,2109.99519763934
1438.02938340852,2110.00519763934
1427.78388924643,2110.01519763934
1417.62823240009,2110.02519763934
1405.67393348074,2110.03519763934
1394.50007280505,2110.04519763934
1380.50381708699,2110.05519763934
1368.509985151,2110.06519763934
1355.91370333331,2110.07519763934
1344.90870147507,2110.08519763934
1333.32476975738,2110.09519763934
1323.23129226919,2110.10519763934
1318.1332360194,2110.11519763934
1318.05889273399,2110.12519763934
1330.19790448585,2110.13519763934
1360.50359470093,2110.14519763934
1411.58053145257,2110.15519763934
1485.43926587997,2110.16519763934
1582.48414280555,2110.17519763934
1696.99830992682,2110.18519763934
1823.52208514546,2110.19519763934
1955.30984386944,2110.20519763934
2084.8121990376,2110.21519763934
2207.19340642039,2110.22519763934
2314.29363108748,2110.23519763934
2406.71301878768,2110.24519763934
2481.43782472077,2110.25519763934
2537.02939775583,2110.26519763934
2571.62851996778,2110.27519763934
2586.77087100516,2110.28519763934
2585.67146517611,2110.29519763934
2569.22719686149,2110.30519763934
2540.94823030808,2110.31519763934
2501.36418977966,2110.32519763934
2458.42354058922,2110.33519763934
2415.10754280896,2110.34519763934
2370.15270474628,2110.35519763934
2323.01861555325,2110.36519763934
2273.51969462123,2110.37519763934
2223.22608595728,2110.38519763934
2170.6482964389,2110.39519763934
2120.2174754066,2110.40519763934
2070.50147220406,2110.41519763934
2023.57765695792,2110.42519763934
1977.19015549497,2110.43519763934
1933.64269640156,2110.44519763934
1896.10080869002,2110.45519763934
1863.3618143134,2110.46519763934
1835.09988020289,2110.47519763934
1813.33979828672,2110.48519763934
1799.5892680819,2110.49519763934
1791.55668116811,2110.50519763934
1788.83821426197,2110.51519763934
1789.01330675249,2110.52519763934
1789.9908558793,2110.53519763934
1797.18551127485,2110.54519763934
1803.70865906596,2110.55519763934
1812.11925610084,2110.56519763934
1822.67966329203,2110.57519763934
1829.30818624731,2110.58519763934
1836.41690236364,2110.59519763934
1838.23542170838,2110.60519763934
1835.93597223211,2110.61519763934
1830.71988964868,2110.62519763934
1823.53421887785,2110.63519763934
1814.26388501868,2110.64519763934
1801.79898254849,2110.65519763934
1785.47869020011,2110.66519763934
1765.71287524017,2110.67519763934
1743.0706336947,2110.68519763934
1721.39159852875,2110.69519763934
1705.77115282821,2110.70519763934
1693.95398487151,2110.71519763934
1684.79465418233,2110.72519763934
1677.40832859302,2110.73519763934
1672.46650086444,2110.74519763934
1669.39175076173,2110.75519763934
1665.66605673475,2110.76519763934
1660.2083438031,2110.77519763934
1654.41475159252,2110.78519763934
1650.1519958303,2110.79519763934
1649.96056642487,2110.80519763934
1650.0199314337,2110.81519763934
1651.49725904162,2110.82519763934
1652.73706180492,2110.83519763934
1654.14336983045,2110.84519763934
1653.30119165392,2110.85519763934
1649.78597538464,2110.86519763934
1648.31325188741,2110.87519763934
1645.82451992955,2110.88519763934
1645.45082717705,2110.89519763934
1646.78008018683,2110.90519763934
1650.51803067937,2110.91519763934
1665.62740982783,2110.92519763934
1691.5375351796,2110.93519763934
1736.45055184152,2110.94519763934
1806.95701446825,2110.95519763934
1899.23694165724,2110.96519763934
2008.61627198216,2110.97519763934
2129.70078535246,2110.98519763934
2256.09046865618,2110.99519763934
2385.31080032158,2111.00519763934
2511.33335707744,2111.01519763934
2628.04054553039,2111.02519763934
2728.94606675466,2111.03519763934
2811.10925994996,2111.04519763934
2874.56747280535,2111.05519763934
2918.12078052918,2111.06519763934
2942.16556152792,2111.07519763934
2951.3021862438,2111.08519763934
2948.4476435296,2111.09519763934
2935.49474416824,2111.10519763934
2915.20018631187,2111.11519763934
2887.71183290693,2111.12519763934
2853.71665118244,2111.13519763934
2812.28912823926,2111.14519763934
2765.86961879355,2111.15519763934
2718.62622654191,2111.16519763934
2669.61350931201,2111.17519763934
2622.17205723562,2111.18519763934
2574.14655419107,2111.19519763934
2529.69269618171,2111.20519763934
2487.7261655159,2111.21519763934
2447.9260086244,2111.22519763934
2408.29258009676,2111.23519763934
2364.19619825876,2111.24519763934
2319.43536568963,2111.25519763934
2279.89970448009,2111.26519763934
2243.56891671042,2111.27519763934
2211.98473652325,2111.28519763934
2185.94785816511,2111.29519763934
2167.71610397579,2111.30519763934
2155.46558234671,2111.31519763934
2149.45611411604,2111.32519763934
2148.66382654191,2111.33519763934
2151.34953608822,2111.34519763934
2153.97786175876,2111.35519763934
2155.62015798673,2111.36519763934
2155.66663207361,2111.37519763934
2152.74048660199,2111.38519763934
2147.5760746155,2111.39519763934
2142.62699619515,2111.40519763934
2131.90132948293,2111.41519763934
2119.86591082325,2111.42519763934
2106.65171790128,2111.43519763934
2091.04597156795,2111.44519763934
2073.65221708861,2111.45519763934
2052.00703498659,2111.46519763934
2027.69529054996,2111.47519763934
2003.19520772295,2111.48519763934
1979.08147540226,2111.49519763934
1956.63595268128,2111.50519763934
1934.8463075527,2111.51519763934
1914.89159751898,2111.52519763934
1895.46303598888,2111.53519763934
1879.20666324174,2111.54519763934
1865.08632721462,2111.55519763934
1848.01115337471,2111.56519763934
1832.93953090537,2111.57519763934
1819.89022640834,2111.58519763934
1806.85742653535,2111.59519763934
1797.07397867823,2111.60519763934
1787.54454050203,2111.61519763934
1777.17829921235,2111.62519763934
1766.09991038811,2111.63519763934
1756.44451300132,2111.64519763934
1747.31218084342,2111.65519763934
1738.89856930489,2111.66519763934
1731.27037940732,2111.67519763934
1717.66146265013,2111.68519763934
1701.32708225507,2111.69519763934
1685.16613855718,2111.70519763934
1675.21110718383,2111.71519763934
1666.62601066688,2111.72519763934
1660.66635037335,2111.73519763934
1654.89639818018,2111.74519763934
1648.791088876,2111.75519763934
1643.0924885293,2111.76519763934
1644.05247478323,2111.77519763934
1661.14883214537,2111.78519763934
1698.07094498138,2111.79519763934
1756.96964802142,2111.80519763934
1836.33671526961,2111.81519763934
1935.11382610442,2111.82519763934
2046.07577536065,2111.83519763934
2168.15730622856,2111.84519763934
2296.52354616919,2111.85519763934
2423.38292652283,2111.86519763934
2542.20985103302,2111.87519763934
2645.43200957094,2111.88519763934
2729.6005326075,2111.89519763934
2792.7899665245,2111.90519763934
2836.73135794053,2111.91519763934
2862.11699870557,2111.92519763934
2870.37121779888,2111.93519763934
2867.47052678492,2111.94519763934
2857.00085193013,2111.95519763934
2836.75455630299,2111.96519763934
2809.6074957967,2111.97519763934
2772.52069814638,2111.98519763934
2729.24093284872,2111.99519763934
2682.91775356263,2112.00519763934
2632.95228174797,2112.01519763934
2584.32871596477,2112.02519763934
2537.57495557891,2112.03519763934
2492.5656359003,2112.04519763934
2449.59654367044,2112.05519763934
2402.91624584594,2112.06519763934
2356.28989762704,2112.07519763934
2310.85017287005,2112.08519763934
2269.23378320584,2112.09519763934
2231.4510302161,2112.10519763934
2195.99357449837,2112.11519763934
2161.81124681245,2112.12519763934
2129.83504322874,2112.13519763934
2102.38459464941,2112.14519763934
2079.24646806518,2112.15519763934
2061.1417843832,2112.16519763934
2046.27941140648,2112.17519763934
2035.44675578317,2112.18519763934
2027.58190442476,2112.19519763934
2020.40310514763,2112.20519763934
2015.30218919949,2112.21519763934
2009.85136585288,2112.22519763934
2005.26968566937,2112.23519763934
2001.82924532015,2112.24519763934
1997.77559554758,2112.25519763934
1989.59511642704,2112.26519763934
1978.40684762794,2112.27519763934
1964.119026586,2112.28519763934
1945.07773138976,2112.29519763934
1921.76251129177,2112.30519763934
1898.14023929314,2112.31519763934
1874.35921991266,2112.32519763934
1851.92711337756,2112.33519763934
1826.42825542267,2112.34519763934
1803.41261271473,2112.35519763934
1780.99433206868,2112.36519763934
1760.18060945883,2112.37519763934
1740.71064403507,2112.38519763934
1720.47561738383,2112.39519763934
1703.95275007038,2112.40519763934
1689.61951077797,2112.41519763934
1676.29300681958,2112.42519763934
1663.21301520991,2112.43519763934
1654.29691281416,2112.44519763934
1642.2902729696,2112.45519763934
1630.39829749374,2112.46519763934
1619.42093607114,2112.47519763934
1609.67629295193,2112.48519763934
1601.89591603768,2112.49519763934
1595.00574915188,2112.50519763934
1589.94936218443,2112.51519763934
1578.51662229645,2112.52519763934
1566.27866291363,2112.53519763934
1552.68553989325,2112.54519763934
1540.14242538902,2112.55519763934
1527.22195912745,2112.56519763934
1516.65979741982,2112.57519763934
1508.55703837027,2112.58519763934
1496.77388506616,2112.59519763934
1483.92077137655,2112.60519763934
1471.31079769583,2112.61519763934
1457.33861221048,2112.62519763934
1448.03512785073,2112.63519763934
1440.29051742309,2112.64519763934
1435.63041808387,2112.65519763934
1439.80865272778,2112.66519763934
1454.080806634,2112.67519763934
1482.08475994367,2112.68519763934
1529.04419189553,2112.69519763934
1597.37703882638,2112.70519763934
1686.14148864382,2112.71519763934
1790.96276872851,2112.72519763934
1905.96239236032,2112.73519763934
2026.55096870503,2112.74519763934
2146.52133828945,2112.75519763934
2256.9232492964,2112.76519763934
2356.50302888298,2112.77519763934
2441.58627197486,2112.78519763934
2510.80890014978,2112.79519763934
2563.31478267246,2112.80519763934
2594.41366991417,2112.81519763934
2608.06435076916,2112.82519763934
2604.92147516942,2112.83519763934
2586.3143328029,2112.84519763934
2558.83081701003,2112.85519763934
2521.37553714566,2112.86519763934
2477.98372639188,2112.87519763934
2431.35671897313,2112.88519763934
2383.52542860541,2112.89519763934
2333.19109931299,2112.90519763934
2283.53671419008,2112.91519763934
2235.31379801836,2112.92519763934
2188.27769864894,2112.93519763934
2142.60197338718,2112.94519763934
2098.12666107868,2112.95519763934
2053.45879237321,2112.96519763934
2010.46847437404,2112.97519763934
1967.77396019782,2112.98519763934
1930.66640843875,2112.99519763934
1895.86482117725,2113.00519763934
1864.02282262656,2113.01519763934
1836.93655221086,2113.02519763934
1813.39990953024,2113.03519763934
1792.85859791028,2113.04519763934
1777.72883175678,2113.05519763934
1764.57359782941,2113.06519763934
1755.86086625578,2113.07519763934
1747.22833476532,2113.08519763934
1742.49447683373,2113.09519763934
1738.2784388758,2113.10519763934
1737.96819936986,2113.11519763934
1737.94666509099,2113.12519763934
1738.09474668835,2113.13519763934
1735.80878327151,2113.14519763934
1732.27542566385,2113.15519763934
1728.90514028422,2113.16519763934
1724.15893674433,2113.17519763934
1714.07057280462,2113.18519763934
1703.51562708693,2113.19519763934
1690.26045423433,2113.20519763934
1679.00310887351,2113.21519763934
1668.60152376183,2113.22519763934
1658.45211316374,2113.23519763934
1651.84676992285,2113.24519763934
1645.20528391927,2113.25519763934
1640.51871145372,2113.26519763934
1635.89794845105,2113.27519763934
1632.58927221009,2113.28519763934
1628.27961096355,2113.29519763934
1624.73946572756,2113.30519763934
1621.80712452203,2113.31519763934
1619.27015810808,2113.32519763934
1617.26870863421,2113.33519763934
1615.30982995126,2113.34519763934
1614.84691344839,2113.35519763934
1615.12954713239,2113.36519763934
1614.7293513299,2113.37519763934
1617.82512392902,2113.38519763934
1623.4221165217,2113.39519763934
1628.22982615028,2113.40519763934
1630.40560037093,2113.41519763934
1632.29603878547,2113.42519763934
1636.52795951453,2113.43519763934
1641.60794003544,2113.44519763934
1644.57639401267,2113.45519763934
1648.36469303454,2113.46519763934
1653.86501209699,2113.47519763934
1665.75423076687,2113.48519763934
1692.45138774755,2113.49519763934
1738.04880937145,2113.50519763934
1804.15789945861,2113.51519763934
1889.48473087725,2113.52519763934
1990.14990593117,2113.53519763934
2102.34134294164,2113.54519763934
2221.06142475363,2113.55519763934
2339.68427336079,2113.56519763934
2458.34024410523,2113.57519763934
2569.81442140111,2113.58519763934
2670.83167837479,2113.59519763934
2757.62649260761,2113.60519763934
2826.71823513676,2113.61519763934
2875.08067927115,2113.62519763934
2907.95430985561,2113.63519763934
2924.42167903216,2113.64519763934
2925.64536015709,2113.65519763934
2916.1138157321,2113.66519763934
2893.74739188525,2113.67519763934
2863.98552910253,2113.68519763934
2829.04858407491,2113.69519763934
2789.65352414399,2113.70519763934
2751.0205015664,2113.71519763934
2713.60157914588,2113.72519763934
2676.47597219561,2113.73519763934
2638.45126493028,2113.74519763934
2600.03448975703,2113.75519763934
2561.78956411201,2113.76519763934
2523.74143868207,2113.77519763934
2486.59258136676,2113.78519763934
2449.35478454288,2113.79519763934
2414.08474650169,2113.80519763934
2380.22512278192,2113.81519763934
2349.0416756519,2113.82519763934
2315.51993180982,2113.83519763934
2288.24764958712,2113.84519763934
2267.12181086152,2113.85519763934
2249.74383828877,2113.86519763934
2238.29541265113,2113.87519763934
2229.01303659438,2113.88519763934
2225.1570712314,2113.89519763934
2223.66022194893,2113.90519763934
2224.8010378342,2113.91519763934
2227.53853288333,2113.92519763934
2228.83685606786,2113.93519763934
2229.98099489324,2113.94519763934
2230.30172471002,2113.95519763934
2228.61370413113,2113.96519763934
2224.01234008681,2113.97519763934
2216.6663305581,2113.98519763934
2203.72580072003,2113.99519763934
2188.99795048775,2114.00519763934
2173.25032271588,2114.01519763934
2156.33956774479,2114.02519763934
2138.48297784088,2114.03519763934
2121.35941754612,2114.04519763934
2104.54374018119,2114.05519763934
2087.25434193993,2114.06519763934
2069.64170435302,2114.07519763934
2056.16452156951,2114.08519763934
2042.81033760603,2114.09519763934
2027.9313627903,2114.10519763934
2013.49532896385,2114.11519763934
1998.23369331974,2114.12519763934
1983.50705133926,2114.13519763934
1969.66332308114,2114.14519763934
1955.08198667855,2114.15519763934
1938.60817121761,2114.16519763934
1924.12651582278,2114.17519763934
1910.71006968428,2114.18519763934
1898.14517598412,2114.19519763934
1887.18763081873,2114.20519763934
1878.31439967928,2114.21519763934
1870.815998467,2114.22519763934
1860.19140807702,2114.23519763934
1851.62888576611,2114.24519763934
1844.59302487592,2114.25519763934
1840.28584732107,2114.26519763934
1834.9190408477,2114.27519763934
1827.79374223895,2114.28519763934
1819.82010566513,2114.29519763934
1808.60203111208,2114.30519763934
1797.15670842357,2114.31519763934
1790.02618372305,2114.32519763934
1794.11126124463,2114.33519763934
1808.34402465026,2114.34519763934
1837.02231359199,2114.35519763934
1884.62228091467,2114.36519763934
1951.3466402442,2114.37519763934
2037.92405337407,2114.38519763934
2141.57493823434,2114.39519763934
2257.54238490356,2114.40519763934
2383.24531928508,2114.41519763934
2511.0312692216,2114.42519763934
2636.75497093666,2114.43519763934
2750.18752819883,2114.44519763934
2847.46311324588,2114.45519763934
2928.80658382522,2114.46519763934
2992.28026083809,2114.47519763934
3038.62311731107,2114.48519763934
3070.16717542257,2114.49519763934
3086.31785929175,2114.50519763934
3087.62630460081,2114.51519763934
3074.268545969,2114.52519763934
3049.42116982246,2114.53519763934
3017.4810827589,2114.54519763934
2976.86789180646,2114.55519763934
2933.95833281253,2114.56519763934
2891.06206387591,2114.57519763934
2847.2329500105,2114.58519763934
2803.10653657979,2114.59519763934
2762.35689049342,2114.60519763934
2721.43715190531,2114.61519763934
2682.42755008716,2114.62519763934
2643.45774492712,2114.63519763934
2602.39467299184,2114.64519763934
2563.25101591609,2114.65519763934
2525.41833841456,2114.66519763934
2490.09593981559,2114.67519763934
2457.30614356511,2114.68519763934
2426.45417263771,2114.69519763934
2397.97357151761,2114.70519763934
2372.2978218383,2114.71519763934
2349.96446287785,2114.72519763934
2330.95261829426,2114.73519763934
2313.72689113733,2114.74519763934
2299.93924667171,2114.75519763934
2290.84888121866,2114.76519763934
2285.71629143351,2114.77519763934
2281.33676203499,2114.78519763934
2275.88448360246,2114.79519763934
2270.77153190332,2114.80519763934
2264.05569285829,2114.81519763934
2255.64061429339,2114.82519763934
2246.90521298167,2114.83519763934
2234.6421274403,2114.84519763934
2220.52633093999,2114.85519763934
2200.75914917572,2114.86519763934
2181.93257052142,2114.87519763934
2161.27720833944,2114.88519763934
2140.01075622653,2114.89519763934
2117.86042809257,2114.90519763934
2094.01140398898,2114.91519763934
2070.21822165465,2114.92519763934
2043.69883447249,2114.93519763934
2022.80817231533,2114.94519763934
2004.13670216227,2114.95519763934
1987.68638178204,2114.96519763934
1970.88039042328,2114.97519763934
1955.69331287737,2114.98519763934
1939.912598878,2114.99519763934
1923.90742264292,2115.00519763934
1909.39598620097,2115.01519763934
1896.29341884515,2115.02519763934
1885.57107299312,2115.03519763934
1875.02657441788,2115.04519763934
1864.43294038937,2115.05519763934
1850.59409302684,2115.06519763934
1835.02574276646,2115.07519763934
1819.96198444775,2115.08519763934
1803.7726382449,2115.09519763934
1788.53186753394,2115.10519763934
1774.35456648324,2115.11519763934
1760.15125724656,2115.12519763934
1747.41457107603,2115.13519763934
1738.02702997835,2115.14519763934
1728.77523550024,2115.15519763934
1718.19920933388,2115.16519763934
1706.0998615843,2115.17519763934
1694.30350632256,2115.18519763934
1682.27463279145,2115.19519763934
1672.4435583356,2115.20519763934
1665.31797226642,2115.21519763934
1658.59234119895,2115.22519763934
1655.0315842668,2115.23519763934
1653.82589520241,2115.24519763934
1661.33577285391,2115.25519763934
1687.78584731781,2115.26519763934
1733.87021912714,2115.27519763934
1802.90625887676,2115.28519763934
1894.71294815772,2115.29519763934
2004.34554134477,2115.30519763934
2129.21954705095,2115.31519763934
2260.66979659703,2115.32519763934
2393.14943167819,2115.33519763934
2521.66523857963,2115.34519763934
2638.937148695,2115.35519763934
2741.85720645361,2115.36519763934
2829.02942338203,2115.37519763934
2895.17888819214,2115.38519763934
2941.17495762822,2115.39519763934
2967.99090048446,2115.40519763934
2977.26891948828,2115.41519763934
2976.41921940905,2115.42519763934
2964.54058194863,2115.43519763934
2942.0515099254,2115.44519763934
2910.42335356625,2115.45519763934
2870.95745461286,2115.46519763934
2826.56233644579,2115.47519763934
2780.22838481676,2115.48519763934
2733.34883747262,2115.49519763934
2689.0841738396,2115.50519763934
2642.50847161162,2115.51519763934
2591.77529921702,2115.52519763934
2539.40978733863,2115.53519763934
2486.81330591558,2115.54519763934
2434.33116666384,2115.55519763934
2384.06762428684,2115.56519763934
2339.02917556005,2115.57519763934
2298.65794506612,2115.58519763934
2262.8027415804,2115.59519763934
2228.98762077459,2115.60519763934
2199.08681601507,2115.61519763934
2169.28089660553,2115.62519763934
2141.78991148003,2115.63519763934
2115.31933008033,2115.64519763934
2094.96564271203,2115.65519763934
2082.60919672204,2115.66519763934
2075.25931394526,2115.67519763934
2070.74055196108,2115.68519763934
2068.37621040533,2115.69519763934
2064.49332612802,2115.70519763934
2058.49967418965,2115.71519763934
2048.97885657559,2115.72519763934
2039.67136084685,2115.73519763934
2023.32020375384,2115.74519763934
2005.52745607907,2115.75519763934
1989.98428063407,2115.76519763934
1972.34975185917,2115.77519763934
1954.52629627048,2115.78519763934
1933.16891193639,2115.79519763934
1906.83326608575,2115.80519763934
1882.93750051591,2115.81519763934
1858.07953518158,2115.82519763934
1831.82973998972,2115.83519763934
1805.9912015681,2115.84519763934
1780.22944688236,2115.85519763934
1753.16682554029,2115.86519763934
1725.74654464487,2115.87519763934
1701.5354804976,2115.88519763934
1675.65050052455,2115.89519763934
1651.83040050456,2115.90519763934
1629.22279295851,2115.91519763934
1608.1285857257,2115.92519763934
1587.08306821579,2115.93519763934
1568.035589323,2115.94519763934
1550.02829156939,2115.95519763934
1530.80637123451,2115.96519763934
1515.70939094042,2115.97519763934
1499.98098814454,2115.98519763934
1484.55375622437,2115.99519763934
1469.94026930663,2116.00519763934
1456.01386736785,2116.01519763934
1442.75175633429,2116.02519763934
1430.0338625462,2116.03519763934
1417.51509398295,2116.04519763934
1403.35533463877,2116.05519763934
1389.93573336965,2116.06519763934
1377.15560537634,2116.07519763934
1366.07080550782,2116.08519763934
1357.03952597887,2116.09519763934
1360.080481623,2116.10519763934
1375.94439064062,2116.11519763934
1407.94278161604,2116.12519763934
1460.36965458453,2116.13519763934
1534.44476080366,2116.14519763934
1628.93185767194,2116.15519763934
1738.08542343784,2116.16519763934
1858.43356628136,2116.17519763934
1982.25932061147,2116.18519763934
2103.05078820895,2116.19519763934
2220.05305522249,2116.20519763934
2324.15368360488,2116.21519763934
2414.77177018527,2116.22519763934
2488.72207713915,2116.23519763934
2546.0413850199,2116.24519763934
2584.68421562473,2116.25519763934
2605.61385790462,2116.26519763934
2609.01637190356,2116.27519763934
2600.70458621244,2116.28519763934
2583.58814024311,2116.29519763934
2559.0559973383,2116.30519763934
2529.99440753758,2116.31519763934
2493.03658655836,2116.32519763934
2451.13584819888,2116.33519763934
2406.83368183503,2116.34519763934
2359.10947390601,2116.35519763934
2309.3165082638,2116.36519763934
2260.27238195542,2116.37519763934
2210.54121300231,2116.38519763934
2161.59777553142,2116.39519763934
2113.02178043982,2116.40519763934
2063.1122087467,2116.41519763934
2014.61557620862,2116.42519763934
1967.74831518475,2116.43519763934
1926.25897367819,2116.44519763934
1890.83319714086,2116.45519763934
1861.4876399367,2116.46519763934
1836.54827159532,2116.47519763934
1819.02638479701,2116.48519763934
1808.0525552138,2116.49519763934
1803.88386008472,2116.50519763934
1804.47647929747,2116.51519763934
1810.20842974274,2116.52519763934
1818.49705196207,2116.53519763934
1826.19586023647,2116.54519763934
1831.11296835034,2116.55519763934
1834.38306357123,2116.56519763934
1837.89886255429,2116.57519763934
1838.08710559015,2116.58519763934
1837.09330436424,2116.59519763934
1830.33060055506,2116.60519763934
1824.47624452505,2116.61519763934
1815.80496911855,2116.62519763934
1803.46498954153,2116.63519763934
1790.1097755393,2116.64519763934
1774.3491124941,2116.65519763934
1759.95603975489,2116.66519763934
1745.62728926129,2116.67519763934
1735.11257290348,2116.68519763934
1724.54147124161,2116.69519763934
1715.89555554117,2116.70519763934
1708.81418294272,2116.71519763934
1698.22305017531,2116.72519763934
1689.19214612243,2116.73519763934
1680.90407532076,2116.74519763934
1672.75854932146,2116.75519763934
1666.79114170672,2116.76519763934
1660.54129885349,2116.77519763934
1656.45293908103,2116.78519763934
1653.66105275999,2116.79519763934
1649.79174464657,2116.80519763934
1646.86161451164,2116.81519763934
1643.11219085542,2116.82519763934
1637.39044821098,2116.83519763934
1634.39141476502,2116.84519763934
1630.43122106177,2116.85519763934
1628.26391905663,2116.86519763934
1628.02208240812,2116.87519763934
1630.93716293849,2116.88519763934
1635.86420276699,2116.89519763934
1648.405571162,2116.90519763934
1674.44162485173,2116.91519763934
1719.62549566898,2116.92519763934
1789.99110159969,2116.93519763934
1881.65750360571,2116.94519763934
1996.15376721585,2116.95519763934
2127.41982021048,2116.96519763934
2271.04536843474,2116.97519763934
2424.37677504819,2116.98519763934
2574.46419693944,2116.99519763934
2715.78760854746,2117.00519763934
2843.69849484365,2117.01519763934
2954.74917369355,2117.02519763934
3050.12248113263,2117.03519763934
3125.61123293553,2117.04519763934
3182.96901359755,2117.05519763934
3224.0583264709,2117.06519763934
3249.30982894632,2117.07519763934
3256.55393637489,2117.08519763934
3252.26683345524,2117.09519763934
3239.44680972753,2117.10519763934
3215.36234713436,2117.11519763934
3185.63187050669,2117.12519763934
3154.24004192372,2117.13519763934
3118.62611225939,2117.14519763934
3079.93025012084,2117.15519763934
3039.22353876068,2117.16519763934
2995.869858881,2117.17519763934
2949.23068922656,2117.18519763934
2898.32073251244,2117.19519763934
2846.62755099851,2117.20519763934
2793.00706782379,2117.21519763934
2739.10097210197,2117.22519763934
2689.00793277312,2117.23519763934
2639.84756204323,2117.24519763934
2594.94340495091,2117.25519763934
2551.07859262065,2117.26519763934
2508.55205545678,2117.27519763934
2468.87393340629,2117.28519763934
2432.76755028868,2117.29519763934
2402.88039201301,2117.30519763934
2378.90034549103,2117.31519763934
2358.97474344255,2117.32519763934
2343.24061796474,2117.33519763934
2330.34194927015,2117.34519763934
2317.6428895119,2117.35519763934
2306.01143930249,2117.36519763934
2294.37844707084,2117.37519763934
2283.88063045902,2117.38519763934
2271.71321475695,2117.39519763934
2256.78435942889,2117.40519763934
2236.15075127519,2117.41519763934
2215.36982029086,2117.42519763934
2192.39141384658,2117.43519763934
2167.56097224808,2117.44519763934
2143.3384541539,2117.45519763934
2116.92846654603,2117.46519763934
2090.42188698063,2117.47519763934
2063.64398640881,2117.48519763934
2038.16314541451,2117.49519763934
2010.67587973938,2117.50519763934
1986.2793672471,2117.51519763934
1962.8209718827,2117.52519763934
1941.08414591244,2117.53519763934
1918.66376553751,2117.54519763934
1894.32596882023,2117.55519763934
1871.31082906999,2117.56519763934
1851.16789400556,2117.57519763934
1834.92706545294,2117.58519763934
1820.53745443806,2117.59519763934
1806.02166595698,2117.60519763934
1790.20634589938,2117.61519763934
1775.78253154199,2117.62519763934
1760.87906559342,2117.63519763934
1746.60381944054,2117.64519763934
1733.60649123659,2117.65519763934
1720.00493457823,2117.66519763934
1709.17509250038,2117.67519763934
1700.67501342642,2117.68519763934
1693.41022962334,2117.69519763934
1686.61328415279,2117.70519763934
1677.1831196023,2117.71519763934
1665.19014366707,2117.72519763934
1654.41167325616,2117.73519763934
1645.5287577963,2117.74519763934
1639.44630105214,2117.75519763934
1637.21501212323,2117.76519763934
1643.57906616041,2117.77519763934
1662.13272370736,2117.78519763934
1698.46135396493,2117.79519763934
1756.60143664622,2117.80519763934
1837.42028180792,2117.81519763934
1943.61693194194,2117.82519763934
2069.49618581995,2117.83519763934
2212.60249655787,2117.84519763934
2365.79983671869,2117.85519763934
2523.56258389853,2117.86519763934
2673.97998822521,2117.87519763934
2811.37219119943,2117.88519763934
2935.73260193016,2117.89519763934
3040.9742808016,2117.90519763934
3125.81346109943,2117.91519763934
3190.45619268539,2117.92519763934
3237.36359445707,2117.93519763934
3264.47604091098,2117.94519763934
3274.13331113184,2117.95519763934
3271.73629776194,2117.96519763934
3255.70916055647,2117.97519763934
3232.79704541739,2117.98519763934
3204.2770686296,2117.99519763934
3169.26882984051,2118.00519763934
3130.16382694278,2118.01519763934
3086.02822668508,2118.02519763934
3036.31694935444,2118.03519763934
2983.91374774581,2118.04519763934
2932.16986091918,2118.05519763934
2876.43544260914,2118.06519763934
2820.26848526549,2118.07519763934
2759.1337751656,2118.08519763934
2697.25296526146,2118.09519763934
2634.30928496288,2118.10519763934
2574.2537782171,2118.11519763934
2522.62868733364,2118.12519763934
2477.01663305634,2118.13519763934
2433.48245694545,2118.14519763934
2394.7697210197,2118.15519763934
2359.01236055904,2118.16519763934
2325.95770385677,2118.17519763934
2299.30223706399,2118.18519763934
2278.50850320837,2118.19519763934
2261.91515531825,2118.20519763934
2246.83104359725,2118.21519763934
2233.047522468,2118.22519763934
2221.01744638482,2118.23519763934
2204.07711213707,2118.24519763934
2186.68622478917,2118.25519763934
2165.06161448296,2118.26519763934
2144.74622112421,2118.27519763934
2123.788308591,2118.28519763934
2101.27513662706,2118.29519763934
2078.36009602595,2118.30519763934
2053.49890561424,2118.31519763934
2023.73988789033,2118.32519763934
1990.48532056428,2118.33519763934
1958.85868782563,2118.34519763934
1926.90321436779,2118.35519763934
1897.20032743027,2118.36519763934
1870.24612336954,2118.37519763934
1842.26822840648,2118.38519763934
1813.57832228467,2118.39519763934
1781.92797455819,2118.40519763934
1749.87525396434,2118.41519763934
1717.14396999237,2118.42519763934
1689.80652702115,2118.43519763934
1663.9080755427,2118.44519763934
1637.81237935619,2118.45519763934
1612.20051291909,2118.46519763934
1588.60396128672,2118.47519763934
1565.33359301189,2118.48519763934
1542.50468621145,2118.49519763934
1520.28037966172,2118.50519763934
1501.51808034573,2118.51519763934
1484.12447051094,2118.52519763934
1466.64024887497,2118.53519763934
1450.13663046143,2118.54519763934
1431.44317862008,2118.55519763934
1415.86710573996,2118.56519763934
1399.96580958517,2118.57519763934
1383.61445566626,2118.58519763934
1370.77844879521,2118.59519763934
1358.87969158986,2118.60519763934
1345.89794749954,2118.61519763934
1334.12280512725,2118.62519763934
1323.6974125208,2118.63519763934
1313.6685147375,2118.64519763934
1305.76682044478,2118.65519763934
1298.35269365442,2118.66519763934
1296.26285492327,2118.67519763934
1302.19204714383,2118.68519763934
1316.0758383694,2118.69519763934
1346.05710792284,2118.70519763934
1395.68919899455,2118.71519763934
1467.63786678206,2118.72519763934
