PPG,time
-0.243055842813821,2081.99654233724
-0.488845738989743,2082.00654233724
-0.4419633365475,2082.01654233724
-0.482802242720952,2082.02654233724
-0.473119548863993,2082.03654233724
-0.495141440433927,2082.04654233724
-0.497211282032466,2082.05654233724
-0.512214121571165,2082.06654233724
-0.519998297523407,2082.07654233724
-0.531637905883058,2082.08654233724
-0.539057416837761,2082.09654233724
-0.540847235597459,2082.10654233724
-0.527090929898829,2082.11654233724
-0.483850318387628,2082.12654233724
-0.396997740191776,2082.13654233724
-0.25913536420816,2082.14654233724
-0.0809664528831388,2082.15654233724
0.111116700154486,2082.16654233724
0.288625359649223,2082.17654233724
0.429546136398581,2082.18654233724
0.524645784302547,2082.19654233724
0.577000160329348,2082.20654233724
0.596027955209206,2082.21654233724
0.592320137401216,2082.22654233724
0.575842907970896,2082.23654233724
0.551781317649113,2082.24654233724
0.52332200145001,2082.25654233724
0.49281408728708,2082.26654233724
0.460861280383341,2082.27654233724
0.428517643520634,2082.28654233724
0.396916149230463,2082.29654233724
0.366298577026555,2082.30654233724
0.337783106671094,2082.31654233724
0.311758724763352,2082.32654233724
0.289032140773495,2082.33654233724
0.268827869052759,2082.34654233724
0.251336112673356,2082.35654233724
0.235433689242538,2082.36654233724
0.219890996498106,2082.37654233724
0.203515539520394,2082.38654233724
0.184076465021864,2082.39654233724
0.160985849463829,2082.40654233724
0.134825251469809,2082.41654233724
0.107741039382316,2082.42654233724
0.0818205122207351,2082.43654233724
0.0604115981506563,2082.44654233724
0.0447121337834144,2082.45654233724
0.0366452406337523,2082.46654233724
0.0372475804032734,2082.47654233724
0.0457090505086803,2082.48654233724
0.0620723337442684,2082.49654233724
0.0835974921835529,2082.50654233724
0.10810013216592,2082.51654233724
0.132829181148043,2082.52654233724
0.154618145307472,2082.53654233724
0.171367083444581,2082.54654233724
0.181087410120104,2082.55654233724
0.183398253535455,2082.56654233724
0.178894916967663,2082.57654233724
0.168224043740311,2082.58654233724
0.152412381203155,2082.59654233724
0.132867435372515,2082.60654233724
0.111207099472439,2082.61654233724
0.0884918546880544,2082.62654233724
0.0651912128454019,2082.63654233724
0.0420385124771796,2082.64654233724
0.020300409565527,2082.65654233724
-6.93828554157469e-05,2082.66654233724
-0.0186847660180989,2082.67654233724
-0.0356405779376034,2082.68654233724
-0.0521344506995579,2082.69654233724
-0.0679302530274899,2082.70654233724
-0.0833977322049871,2082.71654233724
-0.0980415202363979,2082.72654233724
-0.111882439080338,2082.73654233724
-0.124843015600422,2082.74654233724
-0.137269556541388,2082.75654233724
-0.149070029949667,2082.76654233724
-0.160700612695235,2082.77654233724
-0.172903414572785,2082.78654233724
-0.184862769054747,2082.79654233724
-0.197139662928721,2082.80654233724
-0.209792136102292,2082.81654233724
-0.221903016339564,2082.82654233724
-0.233995132565437,2082.83654233724
-0.24662392874287,2082.84654233724
-0.259025964314619,2082.85654233724
-0.271908114213803,2082.86654233724
-0.284980535700017,2082.87654233724
-0.298954944184765,2082.88654233724
-0.31288434276873,2082.89654233724
-0.32740790469638,2082.90654233724
-0.342007248592181,2082.91654233724
-0.356769228584987,2082.92654233724
-0.371548907923796,2082.93654233724
-0.386526703015793,2082.94654233724
-0.401051619948739,2082.95654233724
-0.414448328931403,2082.96654233724
-0.427147145674063,2082.97654233724
-0.43945344980282,2082.98654233724
-0.451165224592261,2082.99654233724
-0.462476703512613,2083.00654233724
-0.474354103330642,2083.01654233724
-0.486556470527056,2083.02654233724
-0.499311657191257,2083.03654233724
-0.511530060101376,2083.04654233724
-0.521074889353598,2083.05654233724
-0.524621571672338,2083.06654233724
-0.513243224352036,2083.07654233724
-0.474259329818706,2083.08654233724
-0.393436897217258,2083.09654233724
-0.264348907665229,2083.10654233724
-0.0951548308409662,2083.11654233724
0.0898347794496279,2083.12654233724
0.262784262577664,2083.13654233724
0.402605266333946,2083.14654233724
0.499069038179866,2083.15654233724
0.553973681224564,2083.16654233724
0.575199671841811,2083.17654233724
0.573244912001186,2083.18654233724
0.556890329938799,2083.19654233724
0.532041479178881,2083.20654233724
0.5029734860737,2083.21654233724
0.471162221873687,2083.22654233724
0.43733488079069,2083.23654233724
0.40242505187213,2083.24654233724
0.366783213316212,2083.25654233724
0.332049207515957,2083.26654233724
0.299544315235963,2083.27654233724
0.27047627560961,2083.28654233724
0.244645981096906,2083.29654233724
0.221239122485173,2083.30654233724
0.200641051057567,2083.31654233724
0.180932125240494,2083.32654233724
0.160682563620945,2083.33654233724
0.138489520942134,2083.34654233724
0.113939735839858,2083.35654233724
0.0868456167474835,2083.36654233724
0.0593366938998241,2083.37654233724
0.0335780214468264,2083.38654233724
0.0133562789299848,2083.39654233724
0.000871480733468981,2083.40654233724
-0.00231103032559088,2083.41654233724
0.00398992664447261,2083.42654233724
0.0193593266414565,2083.43654233724
0.0426808459897096,2083.44654233724
0.0711486282720959,2083.45654233724
0.101279456360331,2083.46654233724
0.129264751713285,2083.47654233724
0.153001978479336,2083.48654233724
0.169184738664172,2083.49654233724
0.177425533460681,2083.50654233724
0.178149562611769,2083.51654233724
0.171704246468342,2083.52654233724
0.159510064045051,2083.53654233724
0.142760557735506,2083.54654233724
0.122754911978563,2083.55654233724
0.100925886764091,2083.56654233724
0.0780556275322942,2083.57654233724
0.0554796538498241,2083.58654233724
0.0332496495440812,2083.59654233724
0.0119511811563184,2083.60654233724
-0.00782344532629923,2083.61654233724
-0.02561579907138,2083.62654233724
-0.0417571211454713,2083.63654233724
-0.0559774705138543,2083.64654233724
-0.0688906721315765,2083.65654233724
-0.0805263803426322,2083.66654233724
-0.0914869702197407,2083.67654233724
-0.102019437822521,2083.68654233724
-0.112809589251151,2083.69654233724
-0.123281687005913,2083.70654233724
-0.133858976829211,2083.71654233724
-0.144568515861784,2083.72654233724
-0.155472073691345,2083.73654233724
-0.166362337166294,2083.74654233724
-0.178068809906936,2083.75654233724
-0.189525969053363,2083.76654233724
-0.201516542903016,2083.77654233724
-0.213583256367595,2083.78654233724
-0.225676963172167,2083.79654233724
-0.238767211972607,2083.80654233724
-0.252387477522487,2083.81654233724
-0.266743628430494,2083.82654233724
-0.281266979768233,2083.83654233724
-0.295339300964247,2083.84654233724
-0.309145680167862,2083.85654233724
-0.32278623948845,2083.86654233724
-0.336571872340924,2083.87654233724
-0.350029145751405,2083.88654233724
-0.363305030781438,2083.89654233724
-0.376286896446974,2083.90654233724
-0.389422480225226,2083.91654233724
-0.402359290292866,2083.92654233724
-0.415069785777911,2083.93654233724
-0.427252082194786,2083.94654233724
-0.438577809449882,2083.95654233724
-0.449993847672186,2083.96654233724
-0.460854062530227,2083.97654233724
-0.471964932488371,2083.98654233724
-0.4833190179172,2083.99654233724
-0.494217556176232,2084.00654233724
-0.502469129497581,2084.01654233724
-0.503170394881637,2084.02654233724
-0.486619964364355,2084.03654233724
-0.437766776025564,2084.04654233724
-0.342035980575357,2084.05654233724
-0.196421352837977,2084.06654233724
-0.0158641115151573,2084.07654233724
0.171764382126562,2084.08654233724
0.33938820335187,2084.09654233724
0.468272705365794,2084.10654233724
0.553338999411635,2084.11654233724
0.598807010748387,2084.12654233724
0.614437933327902,2084.13654233724
0.610886622371528,2084.14654233724
0.596460844567737,2084.15654233724
0.576672396041401,2084.16654233724
0.554568377228686,2084.17654233724
0.531173191418524,2084.18654233724
0.506924021104306,2084.19654233724
0.483069627825184,2084.20654233724
0.459980367846988,2084.21654233724
0.438719617150813,2084.22654233724
0.42008660638263,2084.23654233724
0.404517487811879,2084.24654233724
0.392024092858625,2084.25654233724
0.38201502428763,2084.26654233724
0.374000314262308,2084.27654233724
0.366871336833847,2084.28654233724
0.360438428742713,2084.29654233724
0.353357047985983,2084.30654233724
0.344326354889279,2084.31654233724
0.33256426224239,2084.32654233724
0.316017463628063,2084.33654233724
0.296060241751532,2084.34654233724
0.273620256101967,2084.35654233724
0.251205461637846,2084.36654233724
0.231419898759448,2084.37654233724
0.216075060657636,2084.38654233724
0.207136372283989,2084.39654233724
0.203321489510269,2084.40654233724
0.204976279531495,2084.41654233724
0.210467115676827,2084.42654233724
0.218915354139894,2084.43654233724
0.22915103735856,2084.44654233724
0.240177677245144,2084.45654233724
0.250164025356509,2084.46654233724
0.258200538671532,2084.47654233724
0.262901500703257,2084.48654233724
0.264221528089843,2084.49654233724
0.26117918817748,2084.50654233724
0.254631786086787,2084.51654233724
0.244996973275721,2084.52654233724
0.232509965442598,2084.53654233724
0.218552930573122,2084.54654233724
0.2030782808416,2084.55654233724
0.186629226769918,2084.56654233724
0.16974312826313,2084.57654233724
0.152685278370396,2084.58654233724
0.136282420410607,2084.59654233724
0.119980477316694,2084.60654233724
0.103758699724151,2084.61654233724
0.0876424506369435,2084.62654233724
0.0715869190930141,2084.63654233724
0.0560001974380072,2084.64654233724
0.0400455849985055,2084.65654233724
0.0247427495457502,2084.66654233724
0.00981630675802993,2084.67654233724
-0.00512419436331063,2084.68654233724
-0.0191231309652047,2084.69654233724
-0.0333478975291636,2084.70654233724
-0.0464932127023272,2084.71654233724
-0.0600491987629018,2084.72654233724
-0.0734330787543795,2084.73654233724
-0.0865170975215621,2084.74654233724
-0.0994409546178651,2084.75654233724
-0.112325317508592,2084.76654233724
-0.125211071892923,2084.77654233724
-0.137912091425651,2084.78654233724
-0.150782035250286,2084.79654233724
-0.163597916798759,2084.80654233724
-0.176486486529662,2084.81654233724
-0.189226390625998,2084.82654233724
-0.202582675882464,2084.83654233724
-0.216458060590316,2084.84654233724
-0.230088110320975,2084.85654233724
-0.244448175203899,2084.86654233724
-0.258745762037122,2084.87654233724
-0.272841991285259,2084.88654233724
-0.286004576020297,2084.89654233724
-0.298927225156958,2084.90654233724
-0.310693897399426,2084.91654233724
-0.322122675727083,2084.92654233724
-0.333595350421931,2084.93654233724
-0.344808912324208,2084.94654233724
-0.355509239504876,2084.95654233724
-0.366013227999168,2084.96654233724
-0.375624451738035,2084.97654233724
-0.384541677041857,2084.98654233724
-0.392941377780281,2084.99654233724
-0.401061199727099,2085.00654233724
-0.410207976130274,2085.01654233724
-0.419883233912989,2085.02654233724
-0.430190461861106,2085.03654233724
-0.439135412172874,2085.04654233724
-0.442609740450498,2085.05654233724
-0.432643460847333,2085.06654233724
-0.395289986378676,2085.07654233724
-0.316616806747885,2085.08654233724
-0.189730745406167,2085.09654233724
-0.0251602063758376,2085.10654233724
0.153415173948826,2085.11654233724
0.319664437447877,2085.12654233724
0.453928695605777,2085.13654233724
0.547338941351121,2085.14654233724
0.602259547533666,2085.15654233724
0.6266797881774,2085.16654233724
0.630175045584457,2085.17654233724
0.6214649707182,2085.18654233724
0.605522945312665,2085.19654233724
0.587302855167334,2085.20654233724
0.567383196095248,2085.21654233724
0.547033505860623,2085.22654233724
0.52592881473618,2085.23654233724
0.504756776181126,2085.24654233724
0.484327661702416,2085.25654233724
0.465709997710863,2085.26654233724
0.449683509796768,2085.27654233724
0.435942695337384,2085.28654233724
0.425117043711878,2085.29654233724
0.416106834865779,2085.30654233724
0.408543363326747,2085.31654233724
0.401975066928643,2085.32654233724
0.395065817040755,2085.33654233724
0.386831268245629,2085.34654233724
0.376324270145746,2085.35654233724
0.363409196757747,2085.36654233724
0.347344440408591,2085.37654233724
0.328238046817807,2085.38654233724
0.308079933832831,2085.39654233724
0.289302560979441,2085.40654233724
0.273708524426642,2085.41654233724
0.262844235846487,2085.42654233724
0.257429181429806,2085.43654233724
0.256987406620972,2085.44654233724
0.260773110930709,2085.45654233724
0.267566350412512,2085.46654233724
0.276983759105342,2085.47654233724
0.287598955196763,2085.48654233724
0.297959186789607,2085.49654233724
0.306571306449736,2085.50654233724
0.312248620495447,2085.51654233724
0.314354768586959,2085.52654233724
0.312236230727609,2085.53654233724
0.306262138576036,2085.54654233724
0.297603050860413,2085.55654233724
0.286855437911326,2085.56654233724
0.274551056881999,2085.57654233724
0.261480693514974,2085.58654233724
0.24768623640811,2085.59654233724
0.232782854485775,2085.60654233724
0.217112615003215,2085.61654233724
0.200644784202174,2085.62654233724
0.183403994847835,2085.63654233724
0.166586439183719,2085.64654233724
0.149967376825883,2085.65654233724
0.134081155583258,2085.66654233724
0.118549208623121,2085.67654233724
0.103330482611333,2085.68654233724
0.088860389828035,2085.69654233724
0.0752463158818884,2085.70654233724
0.0614188397059665,2085.71654233724
0.0475802933838755,2085.72654233724
0.0335123728455817,2085.73654233724
0.0194264437778262,2085.74654233724
0.00590824897021938,2085.75654233724
-0.00761036960455596,2085.76654233724
-0.0212156845029488,2085.77654233724
-0.0351252643533889,2085.78654233724
-0.0488387650175105,2085.79654233724
-0.0631693119399717,2085.80654233724
-0.0776106486474658,2085.81654233724
-0.0919981641740622,2085.82654233724
-0.106055707502559,2085.83654233724
-0.119952833615513,2085.84654233724
-0.133228634125362,2085.85654233724
-0.146534786863908,2085.86654233724
-0.160311832241756,2085.87654233724
-0.174139959204375,2085.88654233724
-0.188577239699233,2085.89654233724
-0.202201372224397,2085.90654233724
-0.216444971978962,2085.91654233724
-0.229752138321224,2085.92654233724
-0.242896121050721,2085.93654233724
-0.255730796809781,2085.94654233724
-0.268734109573327,2085.95654233724
-0.282267890573071,2085.96654233724
-0.295651692163544,2085.97654233724
-0.308479599644318,2085.98654233724
-0.320605144666986,2085.99654233724
-0.332051967925936,2086.00654233724
-0.342357634460612,2086.01654233724
-0.352039488527018,2086.02654233724
-0.36118977541136,2086.03654233724
-0.369766313051377,2086.04654233724
-0.377850977391531,2086.05654233724
-0.385474332083898,2086.06654233724
-0.393329711197721,2086.07654233724
-0.401488793779058,2086.08654233724
-0.410467214579546,2086.09654233724
-0.420216563004315,2086.10654233724
-0.429979167723337,2086.11654233724
-0.43827111193277,2086.12654233724
-0.440571150907685,2086.13654233724
-0.428013323881121,2086.14654233724
-0.387912793228135,2086.15654233724
-0.306139929553293,2086.16654233724
-0.176883906103316,2086.17654233724
-0.0106620071096985,2086.18654233724
0.168519779008934,2086.19654233724
0.33478469943478,2086.20654233724
0.468142400420439,2086.21654233724
0.560578890951716,2086.22654233724
0.613695563352356,2086.23654233724
0.635691859291502,2086.24654233724
0.636626610703208,2086.25654233724
0.624062947990263,2086.26654233724
0.604639031853722,2086.27654233724
0.581174486811353,2086.28654233724
0.55596360925964,2086.29654233724
0.529537523538615,2086.30654233724
0.502899308493453,2086.31654233724
0.477176747199434,2086.32654233724
0.452361466930344,2086.33654233724
0.430777477754294,2086.34654233724
0.41188111774716,2086.35654233724
0.395907069362908,2086.36654233724
0.382081860613368,2086.37654233724
0.370545693476553,2086.38654233724
0.360616472265586,2086.39654233724
0.351579872020289,2086.40654233724
0.341468728881209,2086.41654233724
0.329280600072542,2086.42654233724
0.31356154490179,2086.43654233724
0.293949198990033,2086.44654233724
0.27123600998917,2086.45654233724
0.248021455285714,2086.46654233724
0.226544075149335,2086.47654233724
0.210360731610671,2086.48654233724
0.200977321098047,2086.49654233724
0.198954414761555,2086.50654233724
0.203866381494568,2086.51654233724
0.214612799319727,2086.52654233724
0.229649106257257,2086.53654233724
0.247047359993708,2086.54654233724
0.26467762474674,2086.55654233724
0.280612313521833,2086.56654233724
0.293051453423653,2086.57654233724
0.301088893153549,2086.58654233724
0.304113889343138,2086.59654233724
0.302078712089049,2086.60654233724
0.294817610450727,2086.61654233724
0.284088051442799,2086.62654233724
0.270174467150251,2086.63654233724
0.254255411049701,2086.64654233724
0.237225552645774,2086.65654233724
0.218694055418782,2086.66654233724
0.199830910150539,2086.67654233724
0.180208317487236,2086.68654233724
0.161587239764183,2086.69654233724
0.142645608846865,2086.70654233724
0.124939190828198,2086.71654233724
0.108469324213907,2086.72654233724
0.0932362689520604,2086.73654233724
0.0793108990722394,2086.74654233724
0.0656912434245606,2086.75654233724
0.051914063787838,2086.76654233724
0.0389759403699506,2086.77654233724
0.0259365085622328,2086.78654233724
0.0133009592859338,2086.79654233724
0.000646080433157481,2086.80654233724
-0.0122448288188213,2086.81654233724
-0.0248662451697619,2086.82654233724
-0.0370908522698609,2086.83654233724
-0.0493353560861349,2086.84654233724
-0.0611069219692854,2086.85654233724
-0.0728815090464754,2086.86654233724
-0.0846688748957636,2086.87654233724
-0.0968206015644686,2086.88654233724
-0.109068396538156,2086.89654233724
-0.122336360999911,2086.90654233724
-0.136346333040626,2086.91654233724
-0.150902757591881,2086.92654233724
-0.166100293057316,2086.93654233724
-0.181489494469166,2086.94654233724
-0.19648186306267,2086.95654233724
-0.210981426686943,2086.96654233724
-0.225086571846865,2086.97654233724
-0.238285841574588,2086.98654233724
-0.250397335100076,2086.99654233724
-0.261461533829373,2087.00654233724
-0.271982060931245,2087.01654233724
-0.281434338616192,2087.02654233724
-0.290365551965647,2087.03654233724
-0.299881723194906,2087.04654233724
-0.309487710405785,2087.05654233724
-0.319386145940938,2087.06654233724
-0.330467360946942,2087.07654233724
-0.341362113526751,2087.08654233724
-0.351182471037733,2087.09654233724
-0.356966778817334,2087.10654233724
-0.353020084494683,2087.11654233724
-0.328845437820394,2087.12654233724
-0.27099697166313,2087.13654233724
-0.170299696288562,2087.14654233724
-0.030383439118064,2087.15654233724
0.131152035954579,2087.16654233724
0.290114762155297,2087.17654233724
0.425332048479759,2087.18654233724
0.525121539895499,2087.19654233724
0.587205885844137,2087.20654233724
0.617696498565405,2087.21654233724
0.624189803422789,2087.22654233724
0.615502668572467,2087.23654233724
0.597838132249343,2087.24654233724
0.575396239220665,2087.25654233724
0.549935579337248,2087.26654233724
0.522546831106597,2087.27654233724
0.494298735560469,2087.28654233724
0.466214992496192,2087.29654233724
0.438890831892829,2087.30654233724
0.413244780972117,2087.31654233724
0.391344328471198,2087.32654233724
0.372532379814258,2087.33654233724
0.357029308013571,2087.34654233724
0.344528481572325,2087.35654233724
0.333154217193632,2087.36654233724
0.321000106806769,2087.37654233724
0.307083311870076,2087.38654233724
0.290154939320495,2087.39654233724
0.269411539062885,2087.40654233724
0.246483560020563,2087.41654233724
0.223454292101942,2087.42654233724
0.203054527334704,2087.43654233724
0.188059746215361,2087.44654233724
0.180155493459022,2087.45654233724
0.179872484500641,2087.46654233724
0.187438724443091,2087.47654233724
0.202063209259216,2087.48654233724
0.221667130318292,2087.49654233724
0.24402546595381,2087.50654233724
0.265582901570868,2087.51654233724
0.284399515143952,2087.52654233724
0.298392393476588,2087.53654233724
0.306310748833019,2087.54654233724
0.307704953116054,2087.55654233724
0.303078159692672,2087.56654233724
0.293561837823006,2087.57654233724
0.279755329842672,2087.58654233724
0.263028481239086,2087.59654233724
0.244416261846497,2087.60654233724
0.224168690678668,2087.61654233724
0.203918664096552,2087.62654233724
0.184326131534929,2087.63654233724
0.165476612461726,2087.64654233724
0.148032735955922,2087.65654233724
0.132606207640653,2087.66654233724
0.11845877044105,2087.67654233724
0.105734620860474,2087.68654233724
0.0937082390950963,2087.69654233724
0.0827038743067128,2087.70654233724
0.0719912384419052,2087.71654233724
0.0614718384229076,2087.72654233724
0.0510937110889225,2087.73654233724
0.0405188630900814,2087.74654233724
0.0292039218921242,2087.75654233724
0.0172239779865512,2087.76654233724
0.00512677972728962,2087.77654233724
-0.0073435865774369,2087.78654233724
-0.0199177072243266,2087.79654233724
-0.0325633802697322,2087.80654233724
-0.0457901053103024,2087.81654233724
-0.0589787375404141,2087.82654233724
-0.072100489008692,2087.83654233724
-0.0855126152456069,2087.84654233724
-0.0985363650551313,2087.85654233724
-0.111442753400949,2087.86654233724
-0.1245858336312,2087.87654233724
-0.138124814005694,2087.88654233724
-0.151960243133052,2087.89654233724
-0.166669976620353,2087.90654233724
-0.181768835594889,2087.91654233724
-0.19678396439905,2087.92654233724
-0.21149141711124,2087.93654233724
-0.22535374775423,2087.94654233724
-0.238285237487791,2087.95654233724
-0.250032231996691,2087.96654233724
-0.261013502659767,2087.97654233724
-0.271603306504945,2087.98654233724
-0.281379399881468,2087.99654233724
-0.290462555844663,2088.00654233724
-0.299839051977927,2088.01654233724
-0.309565346197017,2088.02654233724
-0.320096004684077,2088.03654233724
-0.331297435453898,2088.04654233724
-0.342914636878662,2088.05654233724
-0.352710567413455,2088.06654233724
-0.355345977596955,2088.07654233724
-0.342527977852384,2088.08654233724
-0.301263100744734,2088.09654233724
-0.218843412106621,2088.10654233724
-0.0927892715965428,2088.11654233724
0.0635940719516497,2088.12654233724
0.227910344243867,2088.13654233724
0.376417843574111,2088.14654233724
0.492849528904976,2088.15654233724
0.571809762519219,2088.16654233724
0.61623386867564,2088.17654233724
0.634239280555921,2088.18654233724
0.634153447377624,2088.19654233724
0.62295587041745,2088.20654233724
0.606696343613445,2088.21654233724
0.586731487321197,2088.22654233724
0.564663247617532,2088.23654233724
0.54182244523554,2088.24654233724
0.518875831736904,2088.25654233724
0.497256408838437,2088.26654233724
0.477707169315378,2088.27654233724
0.461500408896862,2088.28654233724
0.448791914569575,2088.29654233724
0.43878634717269,2088.30654233724
0.431501814665817,2088.31654233724
0.425973669082773,2088.32654233724
0.421459643532839,2088.33654233724
0.416978610087082,2088.34654233724
0.411088813267312,2088.35654233724
0.402521002870455,2088.36654233724
0.390308955653311,2088.37654233724
0.373967066150987,2088.38654233724
0.354843312740556,2088.39654233724
0.334060714179403,2088.40654233724
0.314124120418546,2088.41654233724
0.297456371249536,2088.42654233724
0.285654005735962,2088.43654233724
0.279890067881043,2088.44654233724
0.278912192814759,2088.45654233724
0.282850993408098,2088.46654233724
0.289471508306169,2088.47654233724
0.298833098654036,2088.48654233724
0.308800539476189,2088.49654233724
0.318158806774222,2088.50654233724
0.325969234260585,2088.51654233724
0.331466916611439,2088.52654233724
0.333996247162644,2088.53654233724
0.332373250918206,2088.54654233724
0.327196529122626,2088.55654233724
0.318747423603935,2088.56654233724
0.307997487138916,2088.57654233724
0.295124812188147,2088.58654233724
0.281026808746347,2088.59654233724
0.26639320255121,2088.60654233724
0.25147607825602,2088.61654233724
0.236384128861669,2088.62654233724
0.2204741119235,2088.63654233724
0.204970717723415,2088.64654233724
0.189605179489013,2088.65654233724
0.174584254601137,2088.66654233724
0.159121648314653,2088.67654233724
0.144007553443633,2088.68654233724
0.128963933626251,2088.69654233724
0.11470001648753,2088.70654233724
0.10146519634296,2088.71654233724
0.088257276399165,2088.72654233724
0.075921827932233,2088.73654233724
0.0628701490045285,2088.74654233724
0.0496670073084022,2088.75654233724
0.0361668343522464,2088.76654233724
0.0226119778670844,2088.77654233724
0.00920231514367515,2088.78654233724
-0.00384255352437787,2088.79654233724
-0.0166667918321366,2088.80654233724
-0.0299271503739309,2088.81654233724
-0.0429919583337674,2088.82654233724
-0.0557758757249379,2088.83654233724
-0.0689133751599063,2088.84654233724
-0.0822787013404591,2088.85654233724
-0.0955335720420777,2088.86654233724
-0.108869363747671,2088.87654233724
-0.122349055085731,2088.88654233724
-0.136444903969728,2088.89654233724
-0.149666648469461,2088.90654233724
-0.162394450124199,2088.91654233724
-0.175078595803734,2088.92654233724
-0.18756380200702,2088.93654233724
-0.200122099937352,2088.94654233724
-0.213090926630404,2088.95654233724
-0.226348662053687,2088.96654233724
-0.239569704809307,2088.97654233724
-0.251872973884125,2088.98654233724
-0.263814092763357,2088.99654233724
-0.275259484829806,2089.00654233724
-0.285692536601024,2089.01654233724
-0.296188404463454,2089.02654233724
-0.306039517061377,2089.03654233724
-0.315694140257227,2089.04654233724
-0.325044123522631,2089.05654233724
-0.333732455919451,2089.06654233724
-0.341759831828818,2089.07654233724
-0.349135453557682,2089.08654233724
-0.356032027723189,2089.09654233724
-0.363477207322363,2089.10654233724
-0.371998658293279,2089.11654233724
-0.381171520935941,2089.12654233724
-0.391012927242458,2089.13654233724
-0.398742108449257,2089.14654233724
-0.399480463473817,2089.15654233724
-0.383754793117841,2089.16654233724
-0.337328224139308,2089.17654233724
-0.249188442823446,2089.18654233724
-0.116895934151517,2089.19654233724
0.0434574631903515,2089.20654233724
0.208629381481898,2089.21654233724
0.355146028948227,2089.22654233724
0.468611771062441,2089.23654233724
0.544042717315825,2089.24654233724
0.585816312561002,2089.25654233724
0.601971555250155,2089.26654233724
0.600794940487716,2089.27654233724
0.58922620600827,2089.28654233724
0.571363365266468,2089.29654233724
0.55013054051794,2089.30654233724
0.52692799299058,2089.31654233724
0.503423387238377,2089.32654233724
0.480783340248001,2089.33654233724
0.459885202424442,2089.34654233724
0.441460732592424,2089.35654233724
0.425684566027326,2089.36654233724
0.412640782077084,2089.37654233724
0.402283093550726,2089.38654233724
0.394167720810466,2089.39654233724
0.387428932620397,2089.40654233724
0.382026042906894,2089.41654233724
0.376868741344349,2089.42654233724
0.370924589805229,2089.43654233724
0.363145568260313,2089.44654233724
0.351794355789225,2089.45654233724
0.336720432470456,2089.46654233724
0.317966137212435,2089.47654233724
0.297344467040039,2089.48654233724
0.277102847948794,2089.49654233724
0.25979791109798,2089.50654233724
0.246956265877641,2089.51654233724
0.239477318380076,2089.52654233724
0.236970646234999,2089.53654233724
0.238662625394435,2089.54654233724
0.243723989404548,2089.55654233724
0.251573330125327,2089.56654233724
0.260926874978188,2089.57654233724
0.269818292395853,2089.58654233724
0.278549029953537,2089.59654233724
0.284964936318076,2089.60654233724
0.288647551539535,2089.61654233724
0.288572942549433,2089.62654233724
0.285214311216634,2089.63654233724
0.278948148094778,2089.64654233724
0.270363102668578,2089.65654233724
0.259861382895183,2089.66654233724
0.248234766172969,2089.67654233724
0.23471538915764,2089.68654233724
0.219485441342429,2089.69654233724
0.20343154229845,2089.70654233724
0.186515544311214,2089.71654233724
0.169586977786266,2089.72654233724
0.152912857796946,2089.73654233724
0.13695788556381,2089.74654233724
0.121533283760408,2089.75654233724
0.10658015448201,2089.76654233724
0.0916954146705238,2089.77654233724
0.0771058942666054,2089.78654233724
0.0633061349785085,2089.79654233724
0.0490001094942636,2089.80654233724
0.0352210145705929,2089.81654233724
0.0213921992936632,2089.82654233724
0.00740905809811763,2089.83654233724
-0.00665843982975632,2089.84654233724
-0.0209415343349292,2089.85654233724
-0.0359894964876666,2089.86654233724
-0.0506863150511432,2089.87654233724
-0.065320505601346,2089.88654233724
-0.0796804385709169,2089.89654233724
-0.0941298421388349,2089.90654233724
-0.107836362978917,2089.91654233724
-0.121598651120608,2089.92654233724
-0.135669353269314,2089.93654233724
-0.150130418471817,2089.94654233724
-0.164689397418473,2089.95654233724
-0.178938564463457,2089.96654233724
-0.193020990927334,2089.97654233724
-0.207351251129857,2089.98654233724
-0.220622889925707,2089.99654233724
-0.233836526433427,2090.00654233724
-0.246971299881523,2090.01654233724
-0.259511344515846,2090.02654233724
-0.272688413629946,2090.03654233724
-0.285651185732802,2090.04654233724
-0.298532559292585,2090.05654233724
-0.311279829126068,2090.06654233724
-0.323270193971016,2090.07654233724
-0.335310723334565,2090.08654233724
-0.347357759640584,2090.09654233724
-0.358913010864588,2090.10654233724
-0.370192230710939,2090.11654233724
-0.380413949334667,2090.12654233724
-0.390097958543602,2090.13654233724
-0.399057678502824,2090.14654233724
-0.407658105892734,2090.15654233724
-0.416262782406043,2090.16654233724
-0.425583687060002,2090.17654233724
-0.435611729171965,2090.18654233724
-0.446039468204866,2090.19654233724
-0.456319614663981,2090.20654233724
-0.464561293264708,2090.21654233724
-0.466049425921699,2090.22654233724
-0.452222756726918,2090.23654233724
-0.408665938844512,2090.24654233724
-0.321868892473231,2090.25654233724
-0.188776179174414,2090.26654233724
-0.0214443623277762,2090.27654233724
0.153737096077765,2090.28654233724
0.311542740166461,2090.29654233724
0.434688099565645,2090.30654233724
0.516876129485746,2090.31654233724
0.561984400495172,2090.32654233724
0.578057823942523,2090.33654233724
0.574826123549377,2090.34654233724
0.560153297033176,2090.35654233724
0.539188590079629,2090.36654233724
0.51483697560253,2090.37654233724
0.488393829517592,2090.38654233724
0.46032062780033,2090.39654233724
0.432017563946428,2090.40654233724
0.404193355918945,2090.41654233724
0.378489632526794,2090.42654233724
0.354687027155384,2090.43654233724
0.334864617379306,2090.44654233724
0.318857074028455,2090.45654233724
0.305872828417246,2090.46654233724
0.296071602522085,2090.47654233724
0.287943138282374,2090.48654233724
0.279937491639018,2090.49654233724
0.269869381673735,2090.50654233724
0.256496272603858,2090.51654233724
0.238455173534671,2090.52654233724
0.216299002983683,2090.53654233724
0.191790942448633,2090.54654233724
0.16746033707129,2090.55654233724
0.146353055361849,2090.56654233724
0.131099146810015,2090.57654233724
0.122817712140805,2090.58654233724
0.122287362900181,2090.59654233724
0.129153071878201,2090.60654233724
0.141942450784529,2090.61654233724
0.159553655164317,2090.62654233724
0.179308380949868,2090.63654233724
0.198222399028627,2090.64654233724
0.214301651773862,2090.65654233724
0.225881580669136,2090.66654233724
0.231809353627012,2090.67654233724
0.232461747166377,2090.68654233724
0.227742453005277,2090.69654233724
0.218390067588492,2090.70654233724
0.2054658910731,2090.71654233724
0.189280314827071,2090.72654233724
0.171106755088873,2090.73654233724
0.15151001288463,2090.74654233724
0.131072789412769,2090.75654233724
0.11086845741358,2090.76654233724
0.0918785233870108,2090.77654233724
0.0738179578707027,2090.78654233724
0.0570343728703692,2090.79654233724
0.0417935235266738,2090.80654233724
0.0273738275978474,2090.81654233724
0.0133345575725429,2090.82654233724
-2.59883085389755e-06,2090.83654233724
-0.0133731533522213,2090.84654233724
-0.0267482884624059,2090.85654233724
-0.0397912658125834,2090.86654233724
-0.0530498488007963,2090.87654233724
-0.0663064410693853,2090.88654233724
-0.0793845925018124,2090.89654233724
-0.0922467477923923,2090.90654233724
-0.104472183136947,2090.91654233724
-0.116798329842793,2090.92654233724
-0.129188174168823,2090.93654233724
-0.141577279012075,2090.94654233724
-0.154116998184598,2090.95654233724
-0.166538090288123,2090.96654233724
-0.179709475098087,2090.97654233724
-0.192974234242195,2090.98654233724
-0.206247078020757,2090.99654233724
-0.219877893158722,2091.00654233724
-0.234326639542493,2091.01654233724
-0.24915040752439,2091.02654233724
-0.264211266426048,2091.03654233724
-0.279124099993493,2091.04654233724
-0.293937719930011,2091.05654233724
-0.308162963665674,2091.06654233724
-0.32181649949314,2091.07654233724
-0.335591061927432,2091.08654233724
-0.348315595302567,2091.09654233724
-0.360629793040886,2091.10654233724
-0.372262839325651,2091.11654233724
-0.383160701336194,2091.12654233724
-0.393555845606077,2091.13654233724
-0.403351847735081,2091.14654233724
-0.412013859018472,2091.15654233724
-0.420475017174545,2091.16654233724
-0.429097385765799,2091.17654233724
-0.438435994642478,2091.18654233724
-0.448000922908587,2091.19654233724
-0.458229645309206,2091.20654233724
-0.467217032659965,2091.21654233724
-0.472191543808352,2091.22654233724
-0.467122859808549,2091.23654233724
-0.439930283986277,2091.24654233724
-0.377073904211178,2091.25654233724
-0.268787449199372,2091.26654233724
-0.120076704237462,2091.27654233724
0.0489887477162674,2091.28654233724
0.213101455401595,2091.29654233724
0.350532273860874,2091.30654233724
0.450153677557743,2091.31654233724
0.510867096458597,2091.32654233724
0.538917868582749,2091.33654233724
0.543182081960259,2091.34654233724
0.532029651735784,2091.35654233724
0.511937338739413,2091.36654233724
0.486950323073091,2091.37654233724
0.459274914721501,2091.38654233724
0.430029597110561,2091.39654233724
0.400164528581172,2091.40654233724
0.370083466051563,2091.41654233724
0.340775364762567,2091.42654233724
0.313065827139542,2091.43654233724
0.288185652543523,2091.44654233724
0.266365831605543,2091.45654233724
0.248613012490437,2091.46654233724
0.233616705702879,2091.47654233724
0.220113724195049,2091.48654233724
0.206987944779264,2091.49654233724
0.191808730015951,2091.50654233724
0.173685362621811,2091.51654233724
0.151755706172277,2091.52654233724
0.127575286399034,2091.53654233724
0.102971318416832,2091.54654233724
0.0809266363708456,2091.55654233724
0.0639767207844058,2091.56654233724
0.0538100501466565,2091.57654233724
0.0528789387126839,2091.58654233724
0.060122145330842,2091.59654233724
0.0747963274784275,2091.60654233724
0.0954269550643283,2091.61654233724
0.119136312520567,2091.62654233724
0.143422467283469,2091.63654233724
0.165371035808252,2091.64654233724
0.181784742053705,2091.65654233724
0.192242225853108,2091.66654233724
0.195183846987001,2091.67654233724
0.191603480273233,2091.68654233724
0.182457113756308,2091.69654233724
0.168609770147427,2091.70654233724
0.151187789090809,2091.71654233724
0.131506179128303,2091.72654233724
0.110770317045175,2091.73654233724
0.089895933691566,2091.74654233724
0.0693450497934901,2091.75654233724
0.0496879239944185,2091.76654233724
0.0313265198219801,2091.77654233724
0.0144623755935551,2091.78654233724
-0.000754179622820904,2091.79654233724
-0.0141250919888841,2091.80654233724
-0.0262894030656049,2091.81654233724
-0.0372523246765101,2091.82654233724
-0.0475436674064642,2091.83654233724
-0.0578865909677034,2091.84654233724
-0.0677697046554012,2091.85654233724
-0.0779833829055977,2091.86654233724
-0.0884938993448321,2091.87654233724
-0.0990988205719654,2091.88654233724
-0.109974221257062,2091.89654233724
-0.120737553385365,2091.90654233724
-0.132627177056156,2091.91654233724
-0.144038122442954,2091.92654233724
-0.155869300510483,2091.93654233724
-0.168390348551202,2091.94654233724
-0.181768759665121,2091.95654233724
-0.195426778388191,2091.96654233724
-0.209204731614126,2091.97654233724
-0.223330116274437,2091.98654233724
-0.237859879891288,2091.99654233724
-0.252603400716296,2092.00654233724
-0.266829741302925,2092.01654233724
-0.281227496647852,2092.02654233724
-0.295336436566377,2092.03654233724
-0.309522972154225,2092.04654233724
-0.323824986825014,2092.05654233724
-0.337762942033023,2092.06654233724
-0.35158904096886,2092.07654233724
-0.364705290604159,2092.08654233724
-0.377020775235679,2092.09654233724
-0.388964082279147,2092.10654233724
-0.400181899779166,2092.11654233724
-0.410963206737297,2092.12654233724
-0.421740812164853,2092.13654233724
-0.432512116967227,2092.14654233724
-0.442942970688701,2092.15654233724
-0.453288657566544,2092.16654233724
-0.462726849639954,2092.17654233724
-0.472058221055637,2092.18654233724
-0.480328335392841,2092.19654233724
-0.4882309837851,2092.20654233724
-0.495620499826486,2092.21654233724
-0.502830676436406,2092.22654233724
-0.51075771019873,2092.23654233724
-0.518898185711683,2092.24654233724
-0.527577392099555,2092.25654233724
-0.534984485356417,2092.26654233724
-0.536881198111215,2092.27654233724
-0.525015770439543,2092.28654233724
-0.485604085778272,2092.29654233724
-0.403887649681192,2092.30654233724
-0.273397008948974,2092.31654233724
-0.104579894511146,2092.32654233724
0.0776498875218978,2092.33654233724
0.24541769150388,2092.34654233724
0.379708730363078,2092.35654233724
0.471340152196532,2092.36654233724
0.523910789391252,2092.37654233724
0.544970771444084,2092.38654233724
0.545329755945378,2092.39654233724
0.533166719217907,2092.40654233724
0.515051248527442,2092.41654233724
0.493530690222379,2092.42654233724
0.470292358946176,2092.43654233724
0.445371607860961,2092.44654233724
0.420503808083321,2092.45654233724
0.396517551586831,2092.46654233724
0.373552235976181,2092.47654233724
0.353866692300602,2092.48654233724
0.336628777194092,2092.49654233724
0.322514722261349,2092.50654233724
0.311856342941271,2092.51654233724
0.303102346602983,2092.52654233724
0.296049285083818,2092.53654233724
0.290350649961063,2092.54654233724
0.284151507225679,2092.55654233724
0.276377610433177,2092.56654233724
0.265812915061357,2092.57654233724
0.251887049978265,2092.58654233724
0.233462634544184,2092.59654233724
0.212471016387466,2092.60654233724
0.190258167636995,2092.61654233724
0.169102836966501,2092.62654233724
0.151850545187434,2092.63654233724
0.13998510117018,2092.64654233724
0.133874935651317,2092.65654233724
0.133231944913292,2092.66654233724
0.137885037466334,2092.67654233724
0.145404068741211,2092.68654233724
0.155142031602104,2092.69654233724
0.165503678527458,2092.70654233724
0.174653410020037,2092.71654233724
0.181496271164264,2092.72654233724
0.185225858225203,2092.73654233724
0.186072491633412,2092.74654233724
0.183532732639525,2092.75654233724
0.177756323361742,2092.76654233724
0.169273840174975,2092.77654233724
0.158284215108383,2092.78654233724
0.145987558757635,2092.79654233724
0.132285448627588,2092.80654233724
0.117787542478904,2092.81654233724
0.103203237489033,2092.82654233724
0.0875456490523642,2092.83654233724
0.0715013380993818,2092.84654233724
0.0548249590816864,2092.85654233724
0.0382016247656905,2092.86654233724
0.0221001221712246,2092.87654233724
0.00650441359623465,2092.88654233724
-0.0082312326331148,2092.89654233724
-0.0226168910848656,2092.90654233724
-0.0368967226041709,2092.91654233724
-0.0511162364793506,2092.92654233724
-0.0653432683437414,2092.93654233724
-0.0795031316321836,2092.94654233724
-0.0931885040148566,2092.95654233724
-0.106710170649702,2092.96654233724
-0.120294791858819,2092.97654233724
-0.134213197238,2092.98654233724
-0.14823756229884,2092.99654233724
-0.16200966265377,2093.00654233724
-0.175825208217703,2093.01654233724
-0.189415557190239,2093.02654233724
-0.20238144301691,2093.03654233724
-0.215629487863769,2093.04654233724
-0.228828629185568,2093.05654233724
-0.242039256850508,2093.06654233724
-0.255107758108365,2093.07654233724
-0.268266061423026,2093.08654233724
-0.281952425837834,2093.09654233724
-0.295923087109934,2093.10654233724
-0.310726009942135,2093.11654233724
-0.325570288240571,2093.12654233724
-0.340300839625362,2093.13654233724
-0.354648795192443,2093.14654233724
-0.36888077690567,2093.15654233724
-0.382214829459878,2093.16654233724
-0.395262160891279,2093.17654233724
-0.40824361627904,2093.18654233724
-0.420708234658566,2093.19654233724
-0.432784443864209,2093.20654233724
-0.444312797953993,2093.21654233724
-0.455736051225195,2093.22654233724
-0.466452187127449,2093.23654233724
-0.47660007104534,2093.24654233724
-0.486345675138616,2093.25654233724
-0.495472375781399,2093.26654233724
-0.503913244770619,2093.27654233724
-0.511941187949966,2093.28654233724
-0.520412484217524,2093.29654233724
-0.529085491022063,2093.30654233724
-0.538520679252064,2093.31654233724
-0.548249675336296,2093.32654233724
-0.556462991435829,2093.33654233724
-0.559825573043957,2093.34654233724
-0.551274482183073,2093.35654233724
-0.518466319904805,2093.36654233724
-0.445976899445604,2093.37654233724
-0.323220217639473,2093.38654233724
-0.157522205951888,2093.39654233724
0.0283576936907953,2093.40654233724
0.205719173375877,2093.41654233724
0.352032237699724,2093.42654233724
0.456185786765524,2093.43654233724
0.518623478399785,2093.44654233724
0.546749201041784,2093.45654233724
0.551144894820551,2093.46654233724
0.541089735262757,2093.47654233724
0.523004738986524,2093.48654233724
0.501154228776055,2093.49654233724
0.476895071527776,2093.50654233724
0.451527380593569,2093.51654233724
0.425178490017531,2093.52654233724
0.399325748739857,2093.53654233724
0.374391647953378,2093.54654233724
0.351355702564076,2093.55654233724
0.331128144610623,2093.56654233724
0.313695748316086,2093.57654233724
0.299393002078196,2093.58654233724
0.287460229618627,2093.59654233724
0.277733734222731,2093.60654233724
0.268919737439419,2093.61654233724
0.260126004474317,2093.62654233724
0.249785749799226,2093.63654233724
0.236750413231586,2093.64654233724
0.219363174163956,2093.65654233724
0.19766771574303,2093.66654233724
0.173049265239343,2093.67654233724
0.147138773105876,2093.68654233724
0.123389329654909,2093.69654233724
0.103798241279493,2093.70654233724
0.0896136734072467,2093.71654233724
0.0826852768868101,2093.72654233724
0.0817230136656793,2093.73654233724
0.0857593377125915,2093.74654233724
0.0942472200980115,2093.75654233724
0.105283631568662,2093.76654233724
0.117404605330348,2093.77654233724
0.129235174295643,2093.78654233724
0.139226391229513,2093.79654233724
0.14612490643726,2093.80654233724
0.149141392614596,2093.81654233724
0.148905550449375,2093.82654233724
0.144333181629236,2093.83654233724
0.136040921774835,2093.84654233724
0.124669158378849,2093.85654233724
0.11055258802123,2093.86654233724
0.0942080875140578,2093.87654233724
0.076327897740173,2093.88654233724
0.0578715001439993,2093.89654233724
0.0390013649756071,2093.90654233724
0.0203299853229592,2093.91654233724
0.00215345218689847,2093.92654233724
-0.0154061413057392,2093.93654233724
-0.0322932510284021,2093.94654233724
-0.0491479916417575,2093.95654233724
-0.0657301331615063,2093.96654233724
-0.0821108267007725,2093.97654233724
-0.0986409676518493,2093.98654233724
-0.114922251605223,2093.99654233724
-0.131271598653847,2094.00654233724
-0.147353534623793,2094.01654233724
-0.163347334345044,2094.02654233724
-0.17856382414676,2094.03654233724
-0.193523535864641,2094.04654233724
-0.208112951641899,2094.05654233724
-0.221977999096338,2094.06654233724
-0.235723004130757,2094.07654233724
-0.249497978789785,2094.08654233724
-0.263054746389886,2094.09654233724
-0.276605883500384,2094.10654233724
-0.290671708900163,2094.11654233724
-0.304654156960733,2094.12654233724
-0.318928795821183,2094.13654233724
-0.33358819329983,2094.14654233724
-0.348449346192395,2094.15654233724
-0.36317016401448,2094.16654233724
-0.377532798340042,2094.17654233724
-0.391491716806356,2094.18654233724
-0.40519143581045,2094.19654233724
-0.418447598245434,2094.20654233724
-0.431752642752659,2094.21654233724
-0.445223587979048,2094.22654233724
-0.459140344694472,2094.23654233724
-0.472690307578973,2094.24654233724
-0.486775225517104,2094.25654233724
-0.499843866067557,2094.26654233724
-0.512089307909605,2094.27654233724
-0.523632549938985,2094.28654233724
-0.534642094133964,2094.29654233724
-0.54532504676648,2094.30654233724
-0.555981697028395,2094.31654233724
-0.566267501359665,2094.32654233724
-0.577245372960064,2094.33654233724
-0.588188975167725,2094.34654233724
-0.597505528413807,2094.35654233724
-0.603030113356717,2094.36654233724
-0.597014410537782,2094.37654233724
-0.567153641917705,2094.38654233724
-0.497410016965707,2094.39654233724
-0.375175911867469,2094.40654233724
-0.204708816406405,2094.41654233724
-0.00768755334626938,2094.42654233724
0.184018465207773,2094.43654233724
0.34459795875185,2094.44654233724
0.459444144583839,2094.45654233724
0.527323113175136,2094.46654233724
0.556548031119927,2094.47654233724
0.558422875214264,2094.48654233724
0.543218193474634,2094.49654233724
0.51899254837795,2094.50654233724
0.489941086854605,2094.51654233724
0.457787474975248,2094.52654233724
0.423873936858442,2094.53654233724
0.388660153336048,2094.54654233724
0.352722225000336,2094.55654233724
0.317525200726713,2094.56654233724
0.283270137943174,2094.57654233724
0.252282806621286,2094.58654233724
0.223590935562892,2094.59654233724
0.198431210271333,2094.60654233724
0.176363650040384,2094.61654233724
0.156518012090185,2094.62654233724
0.138245966342578,2094.63654233724
0.11922261258279,2094.64654233724
0.0979573118111468,2094.65654233724
0.0730118314957369,2094.66654233724
0.0445928576603423,2094.67654233724
0.0147844885705762,2094.68654233724
-0.0138194197668192,2094.69654233724
-0.0377468423502851,2094.70654233724
-0.0550803257867863,2094.71654233724
-0.0629061564492038,2094.72654233724
-0.0604762923229658,2094.73654233724
-0.0474082986461048,2094.74654233724
-0.0245276166714384,2094.75654233724
0.00477134777003388,2094.76654233724
0.0380188818284279,2094.77654233724
0.070760572809098,2094.78654233724
0.0989677148810335,2094.79654233724
0.119909841169494,2094.80654233724
0.132209732589017,2094.81654233724
0.135022483842992,2094.82654233724
0.129355616205314,2094.83654233724
0.115885943194028,2094.84654233724
0.0968679953672394,2094.85654233724
0.0744088673678202,2094.86654233724
0.049126418836446,2094.87654233724
0.0231663335330028,2094.88654233724
-0.0032022051979198,2094.89654233724
-0.0288191658232573,2094.90654233724
-0.0523225636454263,2094.91654233724
-0.0739814041576351,2094.92654233724
-0.0931560684505711,2094.93654233724
-0.109987090766216,2094.94654233724
-0.124468884375758,2094.95654233724
-0.137003673998375,2094.96654233724
-0.148473544874086,2094.97654233724
-0.158814469821597,2094.98654233724
-0.168988553105237,2094.99654233724
-0.178813660608582,2095.00654233724
-0.187675657805447,2095.01654233724
-0.196149801087923,2095.02654233724
-0.20408387640406,2095.03654233724
-0.21200286656835,2095.04654233724
-0.219986208776414,2095.05654233724
-0.228266747977599,2095.06654233724
-0.236957864370623,2095.07654233724
-0.24666761449099,2095.08654233724
-0.256869581999703,2095.09654233724
-0.267267077068104,2095.10654233724
-0.278777997363141,2095.11654233724
-0.29120193405363,2095.12654233724
-0.303768386371821,2095.13654233724
-0.317199386685524,2095.14654233724
-0.330396408225617,2095.15654233724
-0.343886743330092,2095.16654233724
-0.357409391045212,2095.17654233724
-0.370909031040162,2095.18654233724
-0.385147698363149,2095.19654233724
-0.400027803529142,2095.20654233724
-0.415253025942095,2095.21654233724
-0.430958207279706,2095.22654233724
-0.446495366951635,2095.23654233724
-0.461868814801671,2095.24654233724
-0.474149444704769,2095.25654233724
-0.479565220689833,2095.26654233724
-0.469471700661656,2095.27654233724
-0.430423433417426,2095.28654233724
-0.347963937431649,2095.29654233724
-0.217452187484627,2095.30654233724
-0.0497331334844218,2095.31654233724
0.129514854177132,2095.32654233724
0.293592189235138,2095.33654233724
0.423340927396999,2095.34654233724
0.510626848390368,2095.35654233724
0.558457710404656,2095.36654233724
0.575742152980904,2095.37654233724
0.572717901331618,2095.38654233724
0.557038294921133,2095.39654233724
0.533698897355226,2095.40654233724
0.506352293315321,2095.41654233724
0.475782727950998,2095.42654233724
0.443341523757653,2095.43654233724
0.41047822108388,2095.44654233724
0.377715267574371,2095.45654233724
0.346515783942589,2095.46654233724
0.31737633533771,2095.47654233724
0.291347575202879,2095.48654233724
0.268730372985676,2095.49654233724
0.249530045891877,2095.50654233724
0.231817918590555,2095.51654233724
0.215347858101695,2095.52654233724
0.197631871248615,2095.53654233724
0.177169519249263,2095.54654233724
0.15322991799594,2095.55654233724
0.12648351029209,2095.56654233724
0.0989751275715021,2095.57654233724
0.0730207945513678,2095.58654233724
0.0520140139024667,2095.59654233724
0.0385049094199135,2095.60654233724
0.0343786802186102,2095.61654233724
0.0401508356933398,2095.62654233724
0.0544001473753438,2095.63654233724
0.0763779634529835,2095.64654233724
0.102526715301788,2095.65654233724
0.130975887933896,2095.66654233724
0.157813802774154,2095.67654233724
0.180859512639518,2095.68654233724
0.19668426246755,2095.69654233724
0.204500617472746,2095.70654233724
0.204866109927768,2095.71654233724
0.197984503574229,2095.72654233724
0.18495498154651,2095.73654233724
0.167122246399628,2095.74654233724
0.146013599201675,2095.75654233724
0.12292379471903,2095.76654233724
0.0997215303608593,2095.77654233724
0.0773743550818947,2095.78654233724
0.0563770168689155,2095.79654233724
0.0368150975888025,2095.80654233724
0.0197059714220351,2095.81654233724
0.00447000028542606,2095.82654233724
-0.00969957218606205,2095.83654233724
-0.0222802603324392,2095.84654233724
-0.0343501233650347,2095.85654233724
-0.045584976470708,2095.86654233724
-0.0561971841582374,2095.87654233724
-0.06669822293372,2095.88654233724
-0.0771858590635653,2095.89654233724
-0.0873892669274534,2095.90654233724
-0.0976595014202899,2095.91654233724
-0.108220257713595,2095.92654233724
-0.1188262708102,2095.93654233724
-0.129463576034781,2095.94654233724
-0.139930803721936,2095.95654233724
-0.151415424329051,2095.96654233724
-0.162528244005403,2095.97654233724
-0.174679796362812,2095.98654233724
-0.186966743338942,2095.99654233724
-0.199560624423813,2096.00654233724
-0.21256707283607,2096.01654233724
-0.226010165990515,2096.02654233724
-0.240291937683808,2096.03654233724
-0.254279913038331,2096.04654233724
-0.268505783202196,2096.05654233724
-0.28255230860042,2096.06654233724
-0.296228063583498,2096.07654233724
-0.309727017570628,2096.08654233724
-0.32237423171706,2096.09654233724
-0.334443588596099,2096.10654233724
-0.346486683148615,2096.11654233724
-0.357655865762772,2096.12654233724
-0.368603194167589,2096.13654233724
-0.379497336282217,2096.14654233724
-0.390332631029384,2096.15654233724
-0.401783743491407,2096.16654233724
-0.413199330642776,2096.17654233724
-0.424317225632642,2096.18654233724
-0.432716694261404,2096.19654233724
-0.434353561476145,2096.20654233724
-0.419741680961762,2096.21654233724
-0.374914321888516,2096.22654233724
-0.284508490550197,2096.23654233724
-0.145741410814596,2096.24654233724
0.0271331562457745,2096.25654233724
0.206754544394606,2096.26654233724
0.368058210719711,2096.27654233724
0.493116795888901,2096.28654233724
0.576220252113076,2096.29654233724
0.621989698205612,2096.30654233724
0.639416221470331,2096.31654233724
0.637947804253638,2096.32654233724
0.626069388292347,2096.33654233724
0.608025670959514,2096.34654233724
0.587015789078356,2096.35654233724
0.563901384262089,2096.36654233724
0.539507180731247,2096.37654233724
0.514983737562695,2096.38654233724
0.49178267215092,2096.39654233724
0.470065731254776,2096.40654233724
0.451156038893814,2096.41654233724
0.435631029728021,2096.42654233724
0.423293018800324,2096.43654233724
0.41404364245666,2096.44654233724
0.407346069722936,2096.45654233724
0.402370874805679,2096.46654233724
0.397876594657169,2096.47654233724
0.392820561400769,2096.48654233724
0.38523616356956,2096.49654233724
0.374743196298114,2096.50654233724
0.359881349374928,2096.51654233724
0.341612977046673,2096.52654233724
0.320752241165993,2096.53654233724
0.299738650058261,2096.54654233724
0.281228736618034,2096.55654233724
0.266965983650427,2096.56654233724
0.257615380757286,2096.57654233724
0.254175987714996,2096.58654233724
0.255471008157702,2096.59654233724
0.260624835342396,2096.60654233724
0.26849261813894,2096.61654233724
0.277638158157031,2096.62654233724
0.286516908359339,2096.63654233724
0.295016258068942,2096.64654233724
0.300678274290972,2096.65654233724
0.304130887710008,2096.66654233724
0.304099764793473,2096.67654233724
0.3010744388393,2096.68654233724
0.294964615200693,2096.69654233724
0.286143261333606,2096.70654233724
0.274383305610662,2096.71654233724
0.260958562697118,2096.72654233724
0.246364131438241,2096.73654233724
0.230439007535674,2096.74654233724
0.214022054070544,2096.75654233724
0.197471582871507,2096.76654233724
0.180588575777173,2096.77654233724
0.163466943451611,2096.78654233724
0.14604477483351,2096.79654233724
0.128995110545228,2096.80654233724
0.112247871881177,2096.81654233724
0.0962623690571153,2096.82654233724
0.0811298798199708,2096.83654233724
0.0669547392076738,2096.84654233724
0.053135818145112,2096.85654233724
0.0393922954605783,2096.86654233724
0.0255219617841492,2096.87654233724
0.0112393662126397,2096.88654233724
-0.00232114775548181,2096.89654233724
-0.0157194280467475,2096.90654233724
-0.0284492715083991,2096.91654233724
-0.0409740404355901,2096.92654233724
-0.053901627560956,2096.93654233724
-0.0668991876754238,2096.94654233724
-0.0804703817483659,2096.95654233724
-0.0941754357642006,2096.96654233724
-0.107792745465995,2096.97654233724
-0.121413692671932,2096.98654233724
-0.134835274694468,2096.99654233724
-0.14880105324097,2097.00654233724
-0.16290607288782,2097.01654233724
-0.176694623646828,2097.02654233724
-0.190799302423086,2097.03654233724
-0.20532487891297,2097.04654233724
-0.219841788342381,2097.05654233724
-0.234231385572939,2097.06654233724
-0.248863987705521,2097.07654233724
-0.262290348018372,2097.08654233724
-0.274759385738463,2097.09654233724
-0.286994171065723,2097.10654233724
-0.298098202610645,2097.11654233724
-0.309237190711941,2097.12654233724
-0.319731584993145,2097.13654233724
-0.329961418785631,2097.14654233724
-0.340781672527137,2097.15654233724
-0.351834588384148,2097.16654233724
-0.363845141380866,2097.17654233724
-0.375916363667455,2097.18654233724
-0.386394306099195,2097.19654233724
-0.390302344126104,2097.20654233724
-0.379526585465645,2097.21654233724
-0.339229230418828,2097.22654233724
-0.255634331541603,2097.23654233724
-0.124474593654195,2097.24654233724
0.0415166080849659,2097.25654233724
0.217898106244844,2097.26654233724
0.378877671553756,2097.27654233724
0.505481614272276,2097.28654233724
0.591500204566781,2097.29654233724
0.639949279508302,2097.30654233724
0.659009052657569,2097.31654233724
0.657847093946894,2097.32654233724
0.643679433579293,2097.33654233724
0.622400774444205,2097.34654233724
0.59722359383151,2097.35654233724
0.5693233285078,2097.36654233724
0.54091522217179,2097.37654233724
0.512283870742254,2097.38654233724
0.484575611583041,2097.39654233724
0.459245845485908,2097.40654233724
0.43607119477273,2097.41654233724
0.4158269687808,2097.42654233724
0.398684071154256,2097.43654233724
0.384265052442758,2097.44654233724
0.372607532432164,2097.45654233724
0.36332538730366,2097.46654233724
0.354816259082904,2097.47654233724
0.34556138091419,2097.48654233724
0.333154392353301,2097.49654233724
0.316551843994934,2097.50654233724
0.295643154440975,2097.51654233724
0.272069953277958,2097.52654233724
0.248397970327695,2097.53654233724
0.227428819264934,2097.54654233724
0.212048847448192,2097.55654233724
0.204047890352986,2097.56654233724
0.204286574659609,2097.57654233724
0.21299970063936,2097.58654233724
0.228473966485438,2097.59654233724
0.249475215248097,2097.60654233724
0.272390107345803,2097.61654233724
0.295063521491845,2097.62654233724
0.314625759167808,2097.63654233724
0.328433795208076,2097.64654233724
0.33594880721638,2097.65654233724
0.33689186567822,2097.66654233724
0.331984078961515,2097.67654233724
0.321882409923963,2097.68654233724
0.307524072590905,2097.69654233724
0.290588388962907,2097.70654233724
0.271443903043687,2097.71654233724
0.25173889939663,2097.72654233724
0.231715033715022,2097.73654233724
0.212440416370691,2097.74654233724
0.19383993251582,2097.75654233724
0.177252914640784,2097.76654233724
0.161571058002244,2097.77654233724
0.14707406145652,2097.78654233724
0.133753386990351,2097.79654233724
0.120672736717459,2097.80654233724
0.108518445283183,2097.81654233724
0.097014805469714,2097.82654233724
0.0855227477645402,2097.83654233724
0.0757130861851927,2097.84654233724
0.0658746796875077,2097.85654233724
0.057013174495291,2097.86654233724
0.0475552622789811,2097.87654233724
0.0382644117996462,2097.88654233724
0.0290858701057129,2097.89654233724
0.0192534380755525,2097.90654233724
0.0090699231070211,2097.91654233724
-0.00158136264502505,2097.92654233724
-0.0120547081594485,2097.93654233724
-0.0227973968777412,2097.94654233724
-0.0335092648184339,2097.95654233724
-0.0446725395507344,2097.96654233724
-0.0561347460436253,2097.97654233724
-0.0680523195402863,2097.98654233724
-0.0810911465781151,2097.99654233724
-0.0953618771564292,2098.00654233724
-0.110373667938354,2098.01654233724
-0.126033484374397,2098.02654233724
-0.141927031114978,2098.03654233724
-0.156520163995615,2098.04654233724
-0.167015162832014,2098.05654233724
-0.167213127844063,2098.06654233724
-0.147181906744169,2098.07654233724
-0.0949816433969401,2098.08654233724
-0.00434293884052972,2098.09654233724
0.117668882929297,2098.10654233724
0.255991090327429,2098.11654233724
0.389611695335013,2098.12654233724
0.501815752084007,2098.13654233724
0.584948806181636,2098.14654233724
0.638050443580979,2098.15654233724
0.665248615646772,2098.16654233724
0.672525871927647,2098.17654233724
0.666840360096385,2098.18654233724
0.652742929624473,2098.19654233724
0.633086958941031,2098.20654233724
0.610049212636132,2098.21654233724
0.584769354807826,2098.22654233724
0.558341897797299,2098.23654233724
0.531812420356926,2098.24654233724
0.506635117519918,2098.25654233724
0.484158631567999,2098.26654233724
0.464064497481798,2098.27654233724
0.447040189283178,2098.28654233724
0.43330362817527,2098.29654233724
0.421530047834937,2098.30654233724
0.410603267919434,2098.31654233724
0.398976313618378,2098.32654233724
0.384676962832237,2098.33654233724
0.366663566439686,2098.34654233724
0.34570491531761,2098.35654233724
0.323052894108781,2098.36654233724
0.301785619773317,2098.37654233724
0.28427972480208,2098.38654233724
0.273626154109529,2098.39654233724
0.270591003166717,2098.40654233724
0.275868349481948,2098.41654233724
0.288826206594259,2098.42654233724
0.307166132410658,2098.43654233724
0.329106728002191,2098.44654233724
0.35094878655327,2098.45654233724
0.370516265260386,2098.46654233724
0.386680516352986,2098.47654233724
0.396840395122307,2098.48654233724
0.400873327838699,2098.49654233724
0.39893857359383,2098.50654233724
0.39090149584107,2098.51654233724
0.378035799937139,2098.52654233724
0.361035067958323,2098.53654233724
0.341293343801524,2098.54654233724
0.320626196815274,2098.55654233724
0.300151183866969,2098.56654233724
0.280612220906203,2098.57654233724
0.262802030151667,2098.58654233724
0.247290396052194,2098.59654233724
0.232212209537646,2098.60654233724
0.219105206563808,2098.61654233724
0.207314995644666,2098.62654233724
0.196403050176584,2098.63654233724
0.18628695961498,2098.64654233724
0.176643199193347,2098.65654233724
0.167368765772983,2098.66654233724
0.157738853185296,2098.67654233724
0.148448510201599,2098.68654233724
0.138960267833868,2098.69654233724
0.1297115223051,2098.70654233724
0.120657420595541,2098.71654233724
0.111559034201806,2098.72654233724
0.102660783982601,2098.73654233724
0.0937098543062253,2098.74654233724
0.0849967378802645,2098.75654233724
0.0759602096871881,2098.76654233724
0.0663005575314278,2098.77654233724
0.05675903603252,2098.78654233724
0.0479077699773307,2098.79654233724
0.0391772903688964,2098.80654233724
0.0305447891045107,2098.81654233724
0.0220642906379001,2098.82654233724
0.0137812774584414,2098.83654233724
0.00496142891453998,2098.84654233724
-0.00435891651181039,2098.85654233724
-0.0147865976042961,2098.86654233724
-0.0265348944734787,2098.87654233724
-0.0401898408160886,2098.88654233724
-0.0552948254199879,2098.89654233724
-0.0708759218024048,2098.90654233724
-0.0853272719071342,2098.91654233724
-0.0935439032356051,2098.92654233724
-0.0878928544060311,2098.93654233724
-0.0554521779462796,2098.94654233724
0.0128343780278562,2098.95654233724
0.117186480488708,2098.96654233724
0.245376428302467,2098.97654233724
0.379040369969374,2098.98654233724
0.499108040097264,2098.99654233724
0.594277949355043,2099.00654233724
0.661427927595966,2099.01654233724
0.701851711900222,2099.02654233724
0.720618178746081,2099.03654233724
0.724326132233165,2099.04654233724
0.717481547145721,2099.05654233724
0.703913098851136,2099.06654233724
0.686365525286456,2099.07654233724
0.666641754987319,2099.08654233724
0.646355505015547,2099.09654233724
0.626944418654578,2099.10654233724
0.609048902787514,2099.11654233724
0.594114935462847,2099.12654233724
0.582210820073453,2099.13654233724
0.573702568691564,2099.14654233724
0.567952392633295,2099.15654233724
0.564358284840369,2099.16654233724
0.562699641804995,2099.17654233724
0.561244131159133,2099.18654233724
0.559677396922718,2099.19654233724
0.556230149041575,2099.20654233724
0.549640480436847,2099.21654233724
0.539132928037286,2099.22654233724
0.524008712174127,2099.23654233724
0.505025412986565,2099.24654233724
0.484287087463166,2099.25654233724
0.463968163624118,2099.26654233724
0.447138545805752,2099.27654233724
0.435118273938662,2099.28654233724
0.428768989385736,2099.29654233724
0.427979665853331,2099.30654233724
0.431477823787985,2099.31654233724
0.43767410649332,2099.32654233724
0.44550293545303,2099.33654233724
0.453848551610381,2099.34654233724
0.461400057712783,2099.35654233724
0.467205714494561,2099.36654233724
0.470816686728261,2099.37654233724
0.471251685943639,2099.38654233724
0.468570978510292,2099.39654233724
0.46296372836154,2099.40654233724
0.454315604044054,2099.41654233724
0.442818827291448,2099.42654233724
0.428914690267704,2099.43654233724
0.413966607012955,2099.44654233724
0.397364864852379,2099.45654233724
0.380719801591258,2099.46654233724
0.364317822443361,2099.47654233724
0.347524714157795,2099.48654233724
0.330305421954473,2099.49654233724
0.313712971452907,2099.50654233724
0.297326321915149,2099.51654233724
0.282085761937138,2099.52654233724
0.267194603866263,2099.53654233724
0.25283812467406,2099.54654233724
0.239381592727056,2099.55654233724
0.225977109001894,2099.56654233724
0.213709798261628,2099.57654233724
0.200835785888938,2099.58654233724
0.187924099191665,2099.59654233724
0.175659120994422,2099.60654233724
0.163170079446147,2099.61654233724
0.150122964544913,2099.62654233724
0.137395098853099,2099.63654233724
0.125015394023558,2099.64654233724
0.112983478017008,2099.65654233724
0.101846264735532,2099.66654233724
0.0903652420753018,2099.67654233724
0.0793079825713083,2099.68654233724
0.0682498164686858,2099.69654233724
0.0563495179619014,2099.70654233724
0.0443816497074878,2099.71654233724
0.0316776675978424,2099.72654233724
0.0187772134618031,2099.73654233724
0.00586492194082442,2099.74654233724
-0.00618743964009911,2099.75654233724
-0.0182606493189178,2099.76654233724
-0.0298938007235241,2099.77654233724
-0.0409499188792276,2099.78654233724
-0.0514474196179513,2099.79654233724
-0.0623764298148653,2099.80654233724
-0.0730775011445531,2099.81654233724
-0.0843095501967482,2099.82654233724
-0.096321345207915,2099.83654233724
-0.108506467936218,2099.84654233724
-0.120788711176528,2099.85654233724
-0.130351753200537,2099.86654233724
-0.133260387879613,2099.87654233724
-0.121338090514414,2099.88654233724
-0.0821967308047862,2099.89654233724
-0.0069203151015523,2099.90654233724
0.103267541061505,2099.91654233724
0.236115825641128,2099.92654233724
0.372123050518459,2099.93654233724
0.493661587964148,2099.94654233724
0.588913865948784,2099.95654233724
0.655096824979838,2099.96654233724
0.693799147792663,2099.97654233724
0.711211824099846,2099.98654233724
0.713818204854616,2099.99654233724
0.706446617007375,2100.00654233724
0.69272186383591,2100.01654233724
0.674737940149381,2100.02654233724
0.65409703116521,2100.03654233724
0.632356390170095,2100.04654233724
0.611107743403239,2100.05654233724
0.591523802428779,2100.06654233724
0.574542972054367,2100.07654233724
0.560575461159385,2100.08654233724
0.550391999407797,2100.09654233724
0.542693028071447,2100.10654233724
0.537268793676909,2100.11654233724
0.533808014153076,2100.12654233724
0.530827198394227,2100.13654233724
0.5273536523252,2100.14654233724
0.521964012075346,2100.15654233724
0.513017642237272,2100.16654233724
0.500009582150879,2100.17654233724
0.483162187481191,2100.18654233724
0.463961977003104,2100.19654233724
0.444353197607419,2100.20654233724
0.427522789443292,2100.21654233724
0.41498756721806,2100.22654233724
0.408019113241512,2100.23654233724
0.40613488361996,2100.24654233724
0.408708195267255,2100.25654233724
0.414656988348629,2100.26654233724
0.422063042821421,2100.27654233724
0.431048828918449,2100.28654233724
0.439890959327455,2100.29654233724
0.447197797987542,2100.30654233724
0.452594140301246,2100.31654233724
0.455216771470817,2100.32654233724
0.454473456048692,2100.33654233724
0.451040898213507,2100.34654233724
0.444434487060845,2100.35654233724
0.435410481761862,2100.36654233724
0.423837715919286,2100.37654233724
0.410217206105873,2100.38654233724
0.395806720956244,2100.39654233724
0.380243692430243,2100.40654233724
0.365183180259192,2100.41654233724
0.350058556952641,2100.42654233724
0.335255839711739,2100.43654233724
0.320842388290107,2100.44654233724
0.307037332487583,2100.45654233724
0.293682416395487,2100.46654233724
0.281157426343958,2100.47654233724
0.269187398045038,2100.48654233724
0.257041252322932,2100.49654233724
0.245156445757406,2100.50654233724
0.233089515098094,2100.51654233724
0.22118929427659,2100.52654233724
0.209604041632194,2100.53654233724
0.198106564322147,2100.54654233724
0.186454606172343,2100.55654233724
0.174713163858275,2100.56654233724
0.163250140311946,2100.57654233724
0.151347519262537,2100.58654233724
0.139346148828043,2100.59654233724
0.126784378454598,2100.60654233724
0.114411260788918,2100.61654233724
0.101821636829475,2100.62654233724
0.0892900552368727,2100.63654233724
0.0770756646278634,2100.64654233724
0.0648655486623899,2100.65654233724
0.0526058824139812,2100.66654233724
0.0404565326410697,2100.67654233724
0.0275504295816802,2100.68654233724
0.0146180558488792,2100.69654233724
0.00161479039052728,2100.70654233724
-0.0108404324018385,2100.71654233724
-0.0227593990294041,2100.72654233724
-0.0337973462535551,2100.73654233724
-0.0442744098590938,2100.74654233724
-0.0543328887175963,2100.75654233724
-0.0641383909807037,2100.76654233724
-0.0752881231233886,2100.77654233724
-0.0870348325205195,2100.78654233724
-0.0992375582921966,2100.79654233724
-0.112324863099862,2100.80654233724
-0.125704516742425,2100.81654233724
-0.137337755892261,2100.82654233724
-0.143862270024124,2100.83654233724
-0.137481004731161,2100.84654233724
-0.106933261820982,2100.85654233724
-0.0425147469973684,2100.86654233724
0.0577619244920274,2100.87654233724
0.183907247319498,2100.88654233724
0.318087085135326,2100.89654233724
0.441868482450727,2100.90654233724
0.542591179172927,2100.91654233724
0.614025227983905,2100.92654233724
0.65830826295026,2100.93654233724
0.680317740205187,2100.94654233724
0.68577142391022,2100.95654233724
0.67986094116721,2100.96654233724
0.66637627591744,2100.97654233724
0.648370885241099,2100.98654233724
0.628369100870885,2100.99654233724
0.607852753154082,2101.00654233724
0.588392244368914,2101.01654233724
0.570677747717612,2101.02654233724
0.555630627057949,2101.03654233724
0.542890288030484,2101.04654233724
0.533135794185962,2101.05654233724
0.525951255275832,2101.06654233724
0.521438667370254,2101.07654233724
0.518021878974592,2101.08654233724
0.514951746209273,2101.09654233724
0.51181546800692,2101.10654233724
0.506798337966299,2101.11654233724
0.498663441716642,2101.12654233724
0.486809275401321,2101.13654233724
0.470565416848765,2101.14654233724
0.451185121685401,2101.15654233724
0.43063215373911,2101.16654233724
0.410217053086624,2101.17654233724
0.393372941605331,2101.18654233724
0.38061085585253,2101.19654233724
0.373457801032585,2101.20654233724
0.371957756536662,2101.21654233724
0.37499966574915,2101.22654233724
0.381960668902365,2101.23654233724
0.390945662056409,2101.24654233724
0.400513807858291,2101.25654233724
0.409320461009966,2101.26654233724
0.416439675873729,2101.27654233724
0.420457580595809,2101.28654233724
0.421662567102524,2101.29654233724
0.419637937074821,2101.30654233724
0.414871026058399,2101.31654233724
0.407313560645475,2101.32654233724
0.397627942612098,2101.33654233724
0.385403604416141,2101.34654233724
0.371810454241948,2101.35654233724
0.356662351175108,2101.36654233724
0.340039499120825,2101.37654233724
0.323152561034323,2101.38654233724
0.306056898804266,2101.39654233724
0.289323786101527,2101.40654233724
0.272563478133675,2101.41654233724
0.256679948979575,2101.42654233724
0.240445893894284,2101.43654233724
0.224217756997137,2101.44654233724
0.207001586318796,2101.45654233724
0.189017546862104,2101.46654233724
0.17024668338772,2101.47654233724
0.151870705175982,2101.48654233724
0.135133123572223,2101.49654233724
0.12205191995177,2101.50654233724
0.116915930645897,2101.51654233724
0.125726815972918,2101.52654233724
0.15591420443214,2101.53654233724
0.210883402436595,2101.54654233724
0.288293772451014,2101.55654233724
0.379497460212656,2101.56654233724
0.471859618976016,2101.57654233724
0.553828526121668,2101.58654233724
0.618359143241416,2101.59654233724
0.663372252300274,2101.60654233724
0.689568364791065,2101.61654233724
0.700212690905838,2101.62654233724
0.698822695698355,2101.63654233724
0.688763156105594,2101.64654233724
0.672975176572415,2101.65654233724
0.6535046783865,2101.66654233724
0.632093823239047,2101.67654233724
0.610508788091675,2101.68654233724
0.590222893142118,2101.69654233724
0.571914828882632,2101.70654233724
0.556687388449161,2101.71654233724
0.544469063796266,2101.72654233724
0.53464092289561,2101.73654233724
0.526012819778767,2101.74654233724
0.517840645010905,2101.75654233724
0.507498586326641,2101.76654233724
0.493338974871085,2101.77654233724
0.474295257847111,2101.78654233724
0.450142292682451,2101.79654233724
0.42360224953346,2101.80654233724
0.39779283331261,2101.81654233724
0.3757555837534,2101.82654233724
0.359663704556313,2101.83654233724
0.351816124395911,2101.84654233724
0.352262510177737,2101.85654233724
0.360558396574219,2101.86654233724
0.374929302713815,2101.87654233724
0.393286787154827,2101.88654233724
0.412209418916666,2101.89654233724
0.429607154506024,2101.90654233724
0.443356016077109,2101.91654233724
0.451526982922342,2101.92654233724
0.453696755344129,2101.93654233724
0.450149106469937,2101.94654233724
0.441420286462281,2101.95654233724
0.428578170277457,2101.96654233724
0.412799841515216,2101.97654233724
0.394521113554658,2101.98654233724
0.374664549171359,2101.99654233724
0.354013696419392,2102.00654233724
0.333659454461438,2102.01654233724
0.313660983039372,2102.02654233724
0.294810074795394,2102.03654233724
0.277580941972549,2102.04654233724
0.262298050997569,2102.05654233724
0.248802144800681,2102.06654233724
0.236096061022489,2102.07654233724
0.22396717834275,2102.08654233724
0.212662819857437,2102.09654233724
0.201863720343833,2102.10654233724
0.190824080688335,2102.11654233724
0.180278541852183,2102.12654233724
0.169991668476906,2102.13654233724
0.159988960161595,2102.14654233724
0.149490587836265,2102.15654233724
0.139426364273896,2102.16654233724
0.129184773594786,2102.17654233724
0.118211193569499,2102.18654233724
0.106651668524728,2102.19654233724
0.0952190106130051,2102.20654233724
0.0832812956697429,2102.21654233724
0.0712990393408599,2102.22654233724
0.0583615512039651,2102.23654233724
0.0450629879549708,2102.24654233724
0.0305079229058223,2102.25654233724
0.0159907114925972,2102.26654233724
0.00210615454134575,2102.27654233724
-0.0117635676046662,2102.28654233724
-0.0259800660817274,2102.29654233724
-0.0399811079037089,2102.30654233724
-0.0545386717031014,2102.31654233724
-0.068998648766526,2102.32654233724
-0.0835011074841103,2102.33654233724
-0.0972066703176016,2102.34654233724
-0.110320353161194,2102.35654233724
-0.122869144558941,2102.36654233724
-0.134718718860493,2102.37654233724
-0.146955916380941,2102.38654233724
-0.159148816514985,2102.39654233724
-0.171534605737336,2102.40654233724
-0.184014000436435,2102.41654233724
-0.196182041990008,2102.42654233724
-0.20760730354778,2102.43654233724
-0.218445295605813,2102.44654233724
-0.228648215097667,2102.45654233724
-0.238479863905307,2102.46654233724
-0.247890499087187,2102.47654233724
-0.256291599894075,2102.48654233724
-0.264111652447348,2102.49654233724
-0.271699677558415,2102.50654233724
-0.279673320253399,2102.51654233724
-0.287158564014981,2102.52654233724
-0.295441837650648,2102.53654233724
-0.304410669173189,2102.54654233724
-0.314338867946923,2102.55654233724
-0.325553246838211,2102.56654233724
-0.336938260282953,2102.57654233724
-0.34609775376777,2102.58654233724
-0.34731247481591,2102.59654233724
-0.329102370383151,2102.60654233724
-0.277787801142203,2102.61654233724
-0.182717396120276,2102.62654233724
-0.0481831456061168,2102.63654233724
0.108163665192888,2102.64654233724
0.262387132670175,2102.65654233724
0.394572192101616,2102.66654233724
0.493905886417604,2102.67654233724
0.557815603119332,2102.68654233724
0.590873940642198,2102.69654233724
0.601139291861752,2102.70654233724
0.595540309026616,2102.71654233724
0.579787363967277,2102.72654233724
0.557987691880518,2102.73654233724
0.532834923357315,2102.74654233724
0.505854460304824,2102.75654233724
0.479269527507556,2102.76654233724
0.453891502461459,2102.77654233724
0.431049038793719,2102.78654233724
0.411175707534809,2102.79654233724
0.394685536887497,2102.80654233724
0.382357389209085,2102.81654233724
0.373713453965965,2102.82654233724
0.367717876611025,2102.83654233724
0.363715865500703,2102.84654233724
0.359521491005953,2102.85654233724
0.353840001671812,2102.86654233724
0.345390552049413,2102.87654233724
0.333403689325929,2102.88654233724
0.317713986346112,2102.89654233724
0.299308906024156,2102.90654233724
0.280453006373892,2102.91654233724
0.263604636668388,2102.92654233724
0.25089126089908,2102.93654233724
0.243987103729493,2102.94654233724
0.242822365779469,2102.95654233724
0.24690460218973,2102.96654233724
0.255433407612732,2102.97654233724
0.266115735743345,2102.98654233724
0.277609734438916,2102.99654233724
0.288015528258074,2103.00654233724
0.296624050567685,2103.01654233724
0.302616674062775,2103.02654233724
0.305437621457013,2103.03654233724
0.304846103588668,2103.04654233724
0.300421476901238,2103.05654233724
0.292450835996054,2103.06654233724
0.281312262150297,2103.07654233724
0.267827844649831,2103.08654233724
0.252842505402218,2103.09654233724
0.236587093229553,2103.10654233724
0.220432404469341,2103.11654233724
0.203988231630973,2103.12654233724
0.188038898674985,2103.13654233724
0.173009794809389,2103.14654233724
0.158976258531218,2103.15654233724
0.146188959673286,2103.16654233724
0.134116614761321,2103.17654233724
0.122672225978252,2103.18654233724
0.111718707543855,2103.19654233724
0.101051598202963,2103.20654233724
0.0901281827848303,2103.21654233724
0.0792476550380553,2103.22654233724
0.0680248539517597,2103.23654233724
0.0565842086685228,2103.24654233724
0.0449357352808974,2103.25654233724
0.0328977214907744,2103.26654233724
0.0204555335289022,2103.27654233724
0.00812684310312395,2103.28654233724
-0.00436090383945953,2103.29654233724
-0.0171412705751117,2103.30654233724
-0.0295931430357802,2103.31654233724
-0.0417915393888529,2103.32654233724
-0.0542818069124836,2103.33654233724
-0.0668157050863472,2103.34654233724
-0.0799356328776066,2103.35654233724
-0.0937899197683694,2103.36654233724
-0.10746370230539,2103.37654233724
-0.121478617399451,2103.38654233724
-0.134994293107823,2103.39654233724
-0.148230672722882,2103.40654233724
-0.160875180315348,2103.41654233724
-0.173683691249985,2103.42654233724
-0.186761386132586,2103.43654233724
-0.199532913260484,2103.44654233724
-0.212447318247828,2103.45654233724
-0.225186218111272,2103.46654233724
-0.237775659694288,2103.47654233724
-0.249407584646855,2103.48654233724
-0.260414563256238,2103.49654233724
-0.270740905136636,2103.50654233724
-0.281021071545491,2103.51654233724
-0.290839949736476,2103.52654233724
-0.300572438070609,2103.53654233724
-0.310124579623012,2103.54654233724
-0.31885027236171,2103.55654233724
-0.326855653198517,2103.56654233724
-0.333952262781575,2103.57654233724
-0.34081097545132,2103.58654233724
-0.347681007798284,2103.59654233724
-0.355434279698931,2103.60654233724
-0.36394197737717,2103.61654233724
-0.373041299884391,2103.62654233724
-0.379923002325569,2103.63654233724
-0.379395476599876,2103.64654233724
-0.361327352226298,2103.65654233724
-0.312002794873461,2103.66654233724
-0.222323975140731,2103.67654233724
-0.0955940686684422,2103.68654233724
0.0511287822096275,2103.69654233724
0.196044250812633,2103.70654233724
0.321155113795791,2103.71654233724
0.415118389459694,2103.72654233724
0.476153824347119,2103.73654233724
0.509383484710376,2103.74654233724
0.521302531341036,2103.75654233724
0.519055079317167,2103.76654233724
0.508025935055495,2103.77654233724
0.491717625368807,2103.78654233724
0.473218066856801,2103.79654233724
0.453772678376943,2103.80654233724
0.434139693406882,2103.81654233724
0.415332545768119,2103.82654233724
0.399125975905628,2103.83654233724
0.384658577188786,2103.84654233724
0.372382556232031,2103.85654233724
0.36254584168071,2103.86654233724
0.354966695946909,2103.87654233724
0.349543870127881,2103.88654233724
0.345785920725606,2103.89654233724
0.342521192327208,2103.90654233724
0.338723736057066,2103.91654233724
0.33305563020961,2103.92654233724
0.323638597080471,2103.93654233724
0.310233984563955,2103.94654233724
0.291645657137247,2103.95654233724
0.270140877613193,2103.96654233724
0.247511344231401,2103.97654233724
0.225879305955761,2103.98654233724
0.208454300352894,2103.99654233724
0.195945201612861,2104.00654233724
0.189037335445118,2104.01654233724
0.187589761225944,2104.02654233724
0.190864251336143,2104.03654233724
0.197214198670802,2104.04654233724
0.205048106102859,2104.05654233724
0.213140859804548,2104.06654233724
0.220205375333666,2104.07654233724
0.225882355599528,2104.08654233724
0.229874604409841,2104.09654233724
0.231794035064343,2104.10654233724
0.231103726888698,2104.11654233724
0.227713246548667,2104.12654233724
0.221202479101388,2104.13654233724
0.211817790601293,2104.14654233724
0.200300829958468,2104.15654233724
0.186229262536235,2104.16654233724
0.171158757786838,2104.17654233724
0.15504781687152,2104.18654233724
0.138729042362243,2104.19654233724
0.122564771198427,2104.20654233724
0.106696742011452,2104.21654233724
0.0912743919271201,2104.22654233724
0.0765511107170537,2104.23654233724
0.0613784048277435,2104.24654233724
0.0462565920921647,2104.25654233724
0.0307554552417726,2104.26654233724
0.0156502384999501,2104.27654233724
0.000340459498357909,2104.28654233724
-0.014324188443776,2104.29654233724
-0.0283249015882321,2104.30654233724
-0.0420200258980279,2104.31654233724
-0.0553802632469452,2104.32654233724
-0.0686525250977529,2104.33654233724
-0.082024501830197,2104.34654233724
-0.0951596207734107,2104.35654233724
-0.108543328608368,2104.36654233724
-0.121945033664149,2104.37654233724
-0.135856678395452,2104.38654233724
-0.14981956678708,2104.39654233724
-0.163942321414863,2104.40654233724
-0.179064330315111,2104.41654233724
-0.193624113519181,2104.42654233724
-0.208266349956935,2104.43654233724
-0.222897645954124,2104.44654233724
-0.237709614292478,2104.45654233724
-0.252269319924832,2104.46654233724
-0.266122503145879,2104.47654233724
-0.279902520319082,2104.48654233724
-0.293565944060248,2104.49654233724
-0.306870545278803,2104.50654233724
-0.319909988228774,2104.51654233724
-0.333656598405249,2104.52654233724
-0.34648183714441,2104.53654233724
-0.358852935501477,2104.54654233724
-0.371203047842288,2104.55654233724
-0.38252013029129,2104.56654233724
-0.39350541558316,2104.57654233724
-0.404259391165502,2104.58654233724
-0.414039434932485,2104.59654233724
-0.423452759782595,2104.60654233724
-0.431754114004817,2104.61654233724
-0.439882618909379,2104.62654233724
-0.449313765451986,2104.63654233724
-0.459561718876096,2104.64654233724
-0.470157935152403,2104.65654233724
-0.479399884300402,2104.66654233724
-0.483331910369348,2104.67654233724
-0.474871711087095,2104.68654233724
-0.441562719806507,2104.69654233724
-0.369436018848825,2104.70654233724
-0.253850875953284,2104.71654233724
-0.105693160010528,2104.72654233724
0.0529773743779257,2104.73654233724
0.198536309697348,2104.74654233724
0.314764087601112,2104.75654233724
0.394827757756356,2104.76654233724
0.440707985648468,2104.77654233724
0.459529234100081,2104.78654233724
0.459370736558915,2104.79654233724
0.44730394098025,2104.80654233724
0.428051500422279,2104.81654233724
0.405120346441849,2104.82654233724
0.380443995386118,2104.83654233724
0.35457999283372,2104.84654233724
0.329313069200108,2104.85654233724
0.305812986081128,2104.86654233724
0.284800966564649,2104.87654233724
0.266968909499483,2104.88654233724
0.252001223457579,2104.89654233724
0.240467694938723,2104.90654233724
0.230995411219794,2104.91654233724
0.223586094703665,2104.92654233724
0.217430297950926,2104.93654233724
0.211493916408063,2104.94654233724
0.204551543247277,2104.95654233724
0.195039526742409,2104.96654233724
0.181842881693089,2104.97654233724
0.164724365231421,2104.98654233724
0.14346436313307,2104.99654233724
0.120054850406339,2105.00654233724
0.097235470824925,2105.01654233724
0.0779893182012218,2105.02654233724
0.0633613019677594,2105.03654233724
0.05521574175447,2105.04654233724
0.0534052165780014,2105.05654233724
0.0573840665472484,2105.06654233724
0.0657797548521129,2105.07654233724
0.0768316942768692,2105.08654233724
0.0891130558890725,2105.09654233724
0.101288579505766,2105.10654233724
0.111529754200243,2105.11654233724
0.119109218296213,2105.12654233724
0.122823251624625,2105.13654233724
0.122396411200821,2105.14654233724
0.117251813174288,2105.15654233724
0.108768526213765,2105.16654233724
0.0965716863418607,2105.17654233724
0.0815014596088302,2105.18654233724
0.0643808360846776,2105.19654233724
0.0457252484241699,2105.20654233724
0.0265597248916845,2105.21654233724
0.00775889909739011,2105.22654233724
-0.010898291562447,2105.23654233724
-0.0286237999523045,2105.24654233724
-0.0457748981127986,2105.25654233724
-0.0620190103426837,2105.26654233724
-0.0777796774945099,2105.27654233724
-0.0925680755743688,2105.28654233724
-0.106441336762553,2105.29654233724
-0.120019060030894,2105.30654233724
-0.133512325771492,2105.31654233724
-0.146409022559871,2105.32654233724
-0.159271998110906,2105.33654233724
-0.172411694736379,2105.34654233724
-0.184818131321787,2105.35654233724
-0.196880467223115,2105.36654233724
-0.208785066528061,2105.37654233724
-0.220908585772347,2105.38654233724
-0.232527605397588,2105.39654233724
-0.244168182706336,2105.40654233724
-0.255468093802629,2105.41654233724
-0.266927721255146,2105.42654233724
-0.278262374964659,2105.43654233724
-0.289517643716266,2105.44654233724
-0.300524509563219,2105.45654233724
-0.311226166786947,2105.46654233724
-0.321584990419441,2105.47654233724
-0.331817999828583,2105.48654233724
-0.34206004837915,2105.49654233724
-0.351693387776686,2105.50654233724
-0.361721462116027,2105.51654233724
-0.3725859538602,2105.52654233724
-0.384863530703941,2105.53654233724
-0.399313873183969,2105.54654233724
-0.413779802590099,2105.55654233724
-0.427922284181975,2105.56654233724
-0.437595239469639,2105.57654233724
-0.436605248460654,2105.58654233724
-0.415393692585824,2105.59654233724
-0.360770725295843,2105.60654233724
-0.267613860408215,2105.61654233724
-0.140937957609386,2105.62654233724
0.00234651492249998,2105.63654233724
0.140135906109608,2105.64654233724
0.254810947603509,2105.65654233724
0.33743199164477,2105.66654233724
0.387257572982785,2105.67654233724
0.40922671574455,2105.68654233724
0.411166523540705,2105.69654233724
0.400061225484104,2105.70654233724
0.380985455801099,2105.71654233724
0.356991851124736,2105.72654233724
0.330342204505702,2105.73654233724
0.302748198665099,2105.74654233724
0.274513997627582,2105.75654233724
0.247667744258508,2105.76654233724
0.22215551039721,2105.77654233724
0.199235547065386,2105.78654233724
0.179566335095595,2105.79654233724
0.162995142184513,2105.80654233724
0.148841717536238,2105.81654233724
0.136028194818956,2105.82654233724
0.122661350622535,2105.83654233724
0.10770969597989,2105.84654233724
0.0899459724060896,2105.85654233724
0.0688105007876945,2105.86654233724
0.045077130752153,2105.87654233724
0.0204361276696811,2105.88654233724
-0.00245589720116646,2105.89654233724
-0.0215196547652514,2105.90654233724
-0.0344811376663956,2105.91654233724
-0.0389402274555768,2105.92654233724
-0.035123598328074,2105.93654233724
-0.024081030205491,2105.94654233724
-0.00662923580407053,2105.95654233724
0.0137283726761895,2105.96654233724
0.0352910300817157,2105.97654233724
0.0542080374492338,2105.98654233724
0.0692897328191042,2105.99654233724
0.0796283312108007,2106.00654233724
0.0829435552814294,2106.01654233724
0.0812897543336224,2106.02654233724
0.0735818323275317,2106.03654233724
0.0609668288935809,2106.04654233724
0.0443382626549924,2106.05654233724
0.0246377619709466,2106.06654233724
0.00388199078198584,2106.07654233724
-0.017075081311698,2106.08654233724
-0.0373715018051239,2106.09654233724
-0.0566229358637478,2106.10654233724
-0.0744056023142503,2106.11654233724
-0.0906973655410609,2106.12654233724
-0.105390124039549,2106.13654233724
-0.118600195626605,2106.14654233724
-0.130633516801473,2106.15654233724
-0.14158848773538,2106.16654233724
-0.151539548130888,2106.17654233724
-0.161695068077153,2106.18654233724
-0.171623881537939,2106.19654233724
-0.18142801137028,2106.20654233724
-0.191374980204257,2106.21654233724
-0.200903687053131,2106.22654233724
-0.211185281623475,2106.23654233724
-0.220951430562768,2106.24654233724
-0.231398976272569,2106.25654233724
-0.241848052821338,2106.26654233724
-0.252677169481572,2106.27654233724
-0.2637635597055,2106.28654233724
-0.275030956884486,2106.29654233724
-0.286771795905609,2106.30654233724
-0.299346835046326,2106.31654233724
-0.312301965945359,2106.32654233724
-0.325539350931548,2106.33654233724
-0.338917657686796,2106.34654233724
-0.353253573118568,2106.35654233724
-0.367734020407981,2106.36654233724
-0.382212422545976,2106.37654233724
-0.396662861333459,2106.38654233724
-0.410196195393183,2106.39654233724
-0.423171427713564,2106.40654233724
-0.435393599164235,2106.41654233724
-0.447000083764016,2106.42654233724
-0.458598947285811,2106.43654233724
-0.470139734245835,2106.44654233724
-0.482933881901489,2106.45654233724
-0.496141507523738,2106.46654233724
-0.509182037524332,2106.47654233724
-0.520863291117884,2106.48654233724
-0.526881914549749,2106.49654233724
-0.520380894920634,2106.50654233724
-0.489062914202158,2106.51654233724
-0.418784945463862,2106.52654233724
-0.303672119568867,2106.53654233724
-0.153914396854933,2106.54654233724
0.00860800442031011,2106.55654233724
0.158759644490014,2106.56654233724
0.279297583193529,2106.57654233724
0.362906068425185,2106.58654233724
0.411407288390864,2106.59654233724
0.431736602168746,2106.60654233724
0.433333514794135,2106.61654233724
0.423380861367063,2106.62654233724
0.407256966327238,2106.63654233724
0.388012728308405,2106.64654233724
0.367072493803685,2106.65654233724
0.345790660055669,2106.66654233724
0.325062771690412,2106.67654233724
0.305229991341842,2106.68654233724
0.287437862173585,2106.69654233724
0.272270791811414,2106.70654233724
0.259733458179858,2106.71654233724
0.249709567118045,2106.72654233724
0.241959413209202,2106.73654233724
0.235944790329152,2106.74654233724
0.230296047149961,2106.75654233724
0.224497961885604,2106.76654233724
0.217531187205577,2106.77654233724
0.207050597593961,2106.78654233724
0.193786535866202,2106.79654233724
0.176120171221059,2106.80654233724
0.155862379912101,2106.81654233724
0.134626005791932,2106.82654233724
0.114008396565444,2106.83654233724
0.0967948218837554,2106.84654233724
0.084144693970449,2106.85654233724
0.0770509023855242,2106.86654233724
0.0751573227182231,2106.87654233724
0.0777676634580141,2106.88654233724
0.0836940356983529,2106.89654233724
0.0917027378384752,2106.90654233724
0.100567221401826,2106.91654233724
0.108716941172133,2106.92654233724
0.115628417592976,2106.93654233724
0.120024733229879,2106.94654233724
0.121173028592617,2106.95654233724
0.119091488852416,2106.96654233724
0.113186666574573,2106.97654233724
0.105183360449866,2106.98654233724
0.0951680712097523,2106.99654233724
0.0834535650456059,2107.00654233724
0.0710237025822814,2107.01654233724
0.0568428923806898,2107.02654233724
0.0419170675809365,2107.03654233724
0.0267362996942641,2107.04654233724
0.0115689284907762,2107.05654233724
-0.0030503362994037,2107.06654233724
-0.0173823758123671,2107.07654233724
-0.0307537146382759,2107.08654233724
-0.0444153358159884,2107.09654233724
-0.058245483968914,2107.10654233724
-0.0719513449357213,2107.11654233724
-0.0854063855823149,2107.12654233724
-0.0989247783246285,2107.13654233724
-0.112052866135106,2107.14654233724
-0.124813289278252,2107.15654233724
-0.136995835137193,2107.16654233724
-0.149078802316177,2107.17654233724
-0.160942804191595,2107.18654233724
-0.173264530296812,2107.19654233724
-0.185636250210331,2107.20654233724
-0.198821794060669,2107.21654233724
-0.212143996832956,2107.22654233724
-0.225188132870451,2107.23654233724
-0.238602067498714,2107.24654233724
-0.251497842397711,2107.25654233724
-0.264516362405822,2107.26654233724
-0.277850266126114,2107.27654233724
-0.291013856587525,2107.28654233724
-0.30450317320873,2107.29654233724
-0.317814402653657,2107.30654233724
-0.330417353401617,2107.31654233724
-0.342830639285,2107.32654233724
-0.354489053260514,2107.33654233724
-0.36537571142698,2107.34654233724
-0.375334322263485,2107.35654233724
-0.385453554473134,2107.36654233724
-0.396290658842509,2107.37654233724
-0.408073155211568,2107.38654233724
-0.420412134877449,2107.39654233724
-0.433543453543712,2107.40654233724
-0.446574439968613,2107.41654233724
-0.457158864385603,2107.42654233724
-0.459943339421863,2107.43654233724
-0.444717149632903,2107.44654233724
-0.398080151379083,2107.45654233724
-0.30938469324675,2107.46654233724
-0.180834773640606,2107.47654233724
-0.0284201721726035,2107.48654233724
0.123759829105281,2107.49654233724
0.254927664120028,2107.50654233724
0.353055092674745,2107.51654233724
0.415682906607398,2107.52654233724
0.448116470597232,2107.53654233724
0.45765032988591,2107.54654233724
0.452029919068986,2107.55654233724
0.437918441922812,2107.56654233724
0.418467334435443,2107.57654233724
0.396836878097216,2107.58654233724
0.373823271266101,2107.59654233724
0.350969072100804,2107.60654233724
0.329852582106718,2107.61654233724
0.310619905544605,2107.62654233724
0.293632620747994,2107.63654233724
0.279657705225518,2107.64654233724
0.268136772528471,2107.65654233724
0.259256806965503,2107.66654233724
0.252711206326154,2107.67654233724
0.24775098333313,2107.68654233724
0.243675270809808,2107.69654233724
0.239444964697023,2107.70654233724
0.232973726823704,2107.71654233724
0.223570908881897,2107.72654233724
0.209357164987078,2107.73654233724
0.191275552679773,2107.74654233724
0.169775426549683,2107.75654233724
0.147743041466111,2107.76654233724
0.128050302729808,2107.77654233724
0.112350874726691,2107.78654233724
0.102300450224037,2107.79654233724
0.0974670631728823,2107.80654233724
0.0979691815225716,2107.81654233724
0.102412620801855,2107.82654233724
0.109301980205833,2107.83654233724
0.11760085235834,2107.84654233724
0.125657877549005,2107.85654233724
0.133187779160257,2107.86654233724
0.138304374726888,2107.87654233724
0.140894764183689,2107.88654233724
0.140838067849228,2107.89654233724
0.137358839716544,2107.90654233724
0.131581653682354,2107.91654233724
0.12404978087909,2107.92654233724
0.114681031096324,2107.93654233724
0.103820241207079,2107.94654233724
0.0915604045909891,2107.95654233724
0.0784673487754319,2107.96654233724
0.0644456289492153,2107.97654233724
0.0496967364640113,2107.98654233724
0.0348722040278772,2107.99654233724
0.0198124032529317,2108.00654233724
0.00546288398622443,2108.01654233724
-0.00871813298997817,2108.02654233724
-0.0228279542168281,2108.03654233724
-0.0366099195259946,2108.04654233724
-0.0504882973342306,2108.05654233724
-0.0638472269762844,2108.06654233724
-0.076815486787648,2108.07654233724
-0.0893881052494528,2108.08654233724
-0.101628663495009,2108.09654233724
-0.113351587261895,2108.10654233724
-0.12494166625316,2108.11654233724
-0.136282278490726,2108.12654233724
-0.147586373902396,2108.13654233724
-0.159445456273817,2108.14654233724
-0.171453687010581,2108.15654233724
-0.183860943228787,2108.16654233724
-0.195792767613948,2108.17654233724
-0.207917797586819,2108.18654233724
-0.21996094963907,2108.19654233724
-0.231855567108806,2108.20654233724
-0.244134587933578,2108.21654233724
-0.256772744281557,2108.22654233724
-0.269047719136435,2108.23654233724
-0.281069657360207,2108.24654233724
-0.292486628699911,2108.25654233724
-0.303534852833026,2108.26654233724
-0.314338247597455,2108.27654233724
-0.325204139863497,2108.28654233724
-0.336582536926106,2108.29654233724
-0.348638534333195,2108.30654233724
-0.362118279903992,2108.31654233724
-0.375499068612174,2108.32654233724
-0.388265851895097,2108.33654233724
-0.398005376935232,2108.34654233724
-0.399010634370645,2108.35654233724
-0.380966714230225,2108.36654233724
-0.33203548708105,2108.37654233724
-0.243883159687969,2108.38654233724
-0.119517428042165,2108.39654233724
0.0237423015969366,2108.40654233724
0.16468091852076,2108.41654233724
0.285126589283553,2108.42654233724
0.37431608241961,2108.43654233724
0.431185865901424,2108.44654233724
0.459856835937853,2108.45654233724
0.467655409397777,2108.46654233724
0.461457759104555,2108.47654233724
0.446598548698636,2108.48654233724
0.42627282795016,2108.49654233724
0.402965207191784,2108.50654233724
0.378033143890641,2108.51654233724
0.353908856437922,2108.52654233724
0.330535581909387,2108.53654233724
0.309760806024595,2108.54654233724
0.291767264873024,2108.55654233724
0.276640863283654,2108.56654233724
0.26497200875771,2108.57654233724
0.255645559506032,2108.58654233724
0.2482386333673,2108.59654233724
0.241542294848933,2108.60654233724
0.234721329004233,2108.61654233724
0.226188456397617,2108.62654233724
0.21490616209312,2108.63654233724
0.199487710235272,2108.64654233724
0.180706831828376,2108.65654233724
0.160184706291468,2108.66654233724
0.140425913057983,2108.67654233724
0.123108462909064,2108.68654233724
0.110466030798257,2108.69654233724
0.103599355138884,2108.70654233724
0.102399908627104,2108.71654233724
0.10589204776082,2108.72654233724
0.112769076470545,2108.73654233724
0.122134921977464,2108.74654233724
0.132342812596473,2108.75654233724
0.142313590128008,2108.76654233724
0.150854773799117,2108.77654233724
0.156629645354795,2108.78654233724
0.15921894537517,2108.79654233724
0.158641562055464,2108.80654233724
0.153978010053178,2108.81654233724
0.147017901455314,2108.82654233724
0.137230155369017,2108.83654233724
0.125184935581975,2108.84654233724
0.111555729414304,2108.85654233724
0.096829205345323,2108.86654233724
0.0821728237381527,2108.87654233724
0.0672108051336333,2108.88654233724
0.0521889052958347,2108.89654233724
0.0375952350226598,2108.90654233724
0.0231694575437277,2108.91654233724
0.00936090020538347,2108.92654233724
-0.0044958928828779,2108.93654233724
-0.0179357191323333,2108.94654233724
-0.030159222078813,2108.95654233724
-0.0423727422316952,2108.96654233724
-0.0540585293230735,2108.97654233724
-0.0658584436005223,2108.98654233724
-0.0777751319867854,2108.99654233724
-0.0895827036978984,2109.00654233724
-0.100978793088435,2109.01654233724
-0.112820285537166,2109.02654233724
-0.124802683607597,2109.03654233724
-0.137167883432368,2109.04654233724
-0.149756179910937,2109.05654233724
-0.162787954600126,2109.06654233724
-0.175758162458843,2109.07654233724
-0.189210666281181,2109.08654233724
-0.203035973836468,2109.09654233724
-0.21667219056134,2109.10654233724
-0.230559757573986,2109.11654233724
-0.244843443249567,2109.12654233724
-0.258477514870554,2109.13654233724
-0.27166874710615,2109.14654233724
-0.284504464694847,2109.15654233724
-0.296863654815605,2109.16654233724
-0.309435171423934,2109.17654233724
-0.32184234702669,2109.18654233724
-0.335104681087707,2109.19654233724
-0.348714246823456,2109.20654233724
-0.36284663912057,2109.21654233724
-0.377658361781258,2109.22654233724
-0.391378979002079,2109.23654233724
-0.402515993679568,2109.24654233724
-0.404727726509127,2109.25654233724
-0.389242278664338,2109.26654233724
-0.34291054123795,2109.27654233724
-0.256344369172921,2109.28654233724
-0.131806983001564,2109.29654233724
0.0150109401325247,2109.30654233724
0.161036345572891,2109.31654233724
0.286613179933271,2109.32654233724
0.380141180319934,2109.33654233724
0.439579175043269,2109.34654233724
0.468858891938108,2109.35654233724
0.476596809225451,2109.36654233724
0.469611527678089,2109.37654233724
0.45379861649075,2109.38654233724
0.432808207184845,2109.39654233724
0.40886500259007,2109.40654233724
0.383650089634382,2109.41654233724
0.358096200550643,2109.42654233724
0.333982110757874,2109.43654233724
0.311390190492808,2109.44654233724
0.291214356914605,2109.45654233724
0.273674826564148,2109.46654233724
0.25980940920127,2109.47654233724
0.248775959227914,2109.48654233724
0.239905674897364,2109.49654233724
0.232833228772768,2109.50654233724
0.226044854026553,2109.51654233724
0.218284521506085,2109.52654233724
0.207737431306699,2109.53654233724
0.193323196365759,2109.54654233724
0.174482195492849,2109.55654233724
0.152587455212271,2109.56654233724
0.130374652034082,2109.57654233724
0.110578818193334,2109.58654233724
0.095628940535285,2109.59654233724
0.0870037295782471,2109.60654233724
0.0854091697123798,2109.61654233724
0.0901646255237294,2109.62654233724
0.100253331664355,2109.63654233724
0.113608550442681,2109.64654233724
0.128730562165245,2109.65654233724
0.143354753924919,2109.66654233724
0.155777287293086,2109.67654233724
0.16445728774265,2109.68654233724
0.168469575972685,2109.69654233724
0.168244445197144,2109.70654233724
0.163281309984434,2109.71654233724
0.15400726476156,2109.72654233724
0.141891889952681,2109.73654233724
0.12707330240999,2109.74654233724
0.110236388302847,2109.75654233724
0.0926827260629172,2109.76654233724
0.074714410526848,2109.77654233724
0.0569258337755381,2109.78654233724
0.0392277929705191,2109.79654233724
0.0224596249675854,2109.80654233724
0.00627961116028352,2109.81654233724
-0.00953434725087822,2109.82654233724
-0.0247086261749797,2109.83654233724
-0.0394203466989264,2109.84654233724
-0.0534885955802835,2109.85654233724
-0.0668682077991579,2109.86654233724
-0.0809119636941996,2109.87654233724
-0.0938256493199888,2109.88654233724
-0.105993566118779,2109.89654233724
-0.118220198518261,2109.90654233724
-0.129845176302944,2109.91654233724
-0.141806753694468,2109.92654233724
-0.153133848728798,2109.93654233724
-0.164519838725282,2109.94654233724
-0.175781874004373,2109.95654233724
-0.186635293290944,2109.96654233724
-0.197314503029144,2109.97654233724
-0.207085333846365,2109.98654233724
-0.216755341090203,2109.99654233724
-0.226974602919099,2110.00654233724
-0.238094529187079,2110.01654233724
-0.251139724388421,2110.02654233724
-0.266225162145776,2110.03654233724
-0.283509138205936,2110.04654233724
-0.301865824950975,2110.05654233724
-0.320165993302626,2110.06654233724
-0.337248796877991,2110.07654233724
-0.350263403862037,2110.08654233724
-0.35324770363515,2110.09654233724
-0.337638954587207,2110.10654233724
-0.291213057204429,2110.11654233724
-0.206532896513733,2110.12654233724
-0.0872964877292767,2110.13654233724
0.0506555280490301,2110.14654233724
0.186210487917573,2110.15654233724
0.301598975628386,2110.16654233724
0.386324649668167,2110.17654233724
0.4391256105295,2110.18654233724
0.463844065795708,2110.19654233724
0.467555379579966,2110.20654233724
0.457832749021585,2110.21654233724
0.439203564065811,2110.22654233724
0.414655306024666,2110.23654233724
0.387454135570577,2110.24654233724
0.358596140926278,2110.25654233724
0.329645142365166,2110.26654233724
0.301468230616755,2110.27654233724
0.275286232197998,2110.28654233724
0.251215870814724,2110.29654233724
0.229972842769171,2110.30654233724
0.212045147112761,2110.31654233724
0.196377617507567,2110.32654233724
0.181990775839814,2110.33654233724
0.167744657303199,2110.34654233724
0.151501493773134,2110.35654233724
0.132420578727691,2110.36654233724
0.109542706472044,2110.37654233724
0.0849482521266254,2110.38654233724
0.05970106536566,2110.39654233724
0.0374182223971345,2110.40654233724
0.0210721433524511,2110.41654233724
0.0131671441510318,2110.42654233724
0.0152977873398722,2110.43654233724
0.0263296868078495,2110.44654233724
0.0455411402296815,2110.45654233724
0.0701861656384956,2110.46654233724
0.0968146174806149,2110.47654233724
0.122372074461516,2110.48654233724
0.144023129570052,2110.49654233724
0.160241767783471,2110.50654233724
0.169290647538989,2110.51654233724
0.170882298867615,2110.52654233724
0.165979532774415,2110.53654233724
0.154862818595494,2110.54654233724
0.138793769201042,2110.55654233724
0.118967606086655,2110.56654233724
0.0972673910710553,2110.57654233724
0.0744407998198415,2110.58654233724
0.0517580383980419,2110.59654233724
0.030205084217498,2110.60654233724
0.00956248882822541,2110.61654233724
-0.0084716203464004,2110.62654233724
-0.0248078382772577,2110.63654233724
-0.0390184701592878,2110.64654233724
-0.0516857080254661,2110.65654233724
-0.0627670063563334,2110.66654233724
-0.0723248723348669,2110.67654233724
-0.0812661437015504,2110.68654233724
-0.0898371213151193,2110.69654233724
-0.098621342116434,2110.70654233724
-0.108070265021158,2110.71654233724
-0.118050647681962,2110.72654233724
-0.128481829041198,2110.73654233724
-0.138847320056154,2110.74654233724
-0.149337884786813,2110.75654233724
-0.159526312285921,2110.76654233724
-0.168832119323757,2110.77654233724
-0.178386226761308,2110.78654233724
-0.187626240423749,2110.79654233724
-0.196859936818809,2110.80654233724
-0.206950980463759,2110.81654233724
-0.21831039586554,2110.82654233724
-0.230331821734785,2110.83654233724
-0.24389057525557,2110.84654233724
-0.258737047421278,2110.85654233724
-0.27450195126799,2110.86654233724
-0.291050227321363,2110.87654233724
-0.305911678444173,2110.88654233724
-0.31478537935983,2110.89654233724
-0.310626753009866,2110.90654233724
-0.281286747242618,2110.91654233724
-0.217110601669049,2110.92654233724
-0.116631874119397,2110.93654233724
0.0100602265342463,2110.94654233724
0.143077346881074,2110.95654233724
0.264532237931093,2110.96654233724
0.360409289158434,2110.97654233724
0.425884000660725,2110.98654233724
0.463538019813762,2110.99654233724
0.478397462646923,2111.00654233724
0.477562940576079,2111.01654233724
0.465770176399904,2111.02654233724
0.447928944360455,2111.03654233724
0.42631699480923,2111.04654233724
0.402406613524497,2111.05654233724
0.378215498048002,2111.06654233724
0.354900300676666,2111.07654233724
0.333882769390433,2111.08654233724
0.31474567361022,2111.09654233724
0.298503556596313,2111.10654233724
0.285513481110844,2111.11654233724
0.275474910773764,2111.12654233724
0.267678792401432,2111.13654233724
0.261516980900511,2111.14654233724
0.255587514408967,2111.15654233724
0.247707288783357,2111.16654233724
0.236819939938429,2111.17654233724
0.221287251955175,2111.18654233724
0.201497084913223,2111.19654233724
0.178424119554941,2111.20654233724
0.155044979278165,2111.21654233724
0.134443303426978,2111.22654233724
0.118967452240924,2111.23654233724
0.110210316372002,2111.24654233724
0.109056564579781,2111.25654233724
0.115430925122302,2111.26654233724
0.126906123866044,2111.27654233724
0.141981285869983,2111.28654233724
0.157843938144626,2111.29654233724
0.172833467085902,2111.30654233724
0.184945921921324,2111.31654233724
0.192892020080204,2111.32654233724
0.196201176911212,2111.33654233724
0.194627362727577,2111.34654233724
0.187671338166599,2111.35654233724
0.17690735509411,2111.36654233724
0.163364552023033,2111.37654233724
0.147440003391041,2111.38654233724
0.130618943822477,2111.39654233724
0.113344144618246,2111.40654233724
0.0966986234927101,2111.41654233724
0.0807236382196056,2111.42654233724
0.066135893776224,2111.43654233724
0.0515568069742832,2111.44654233724
0.0381181760903998,2111.45654233724
0.0257353213922796,2111.46654233724
0.0145622819980691,2111.47654233724
0.00477490320912701,2111.48654233724
-0.00490702150725083,2111.49654233724
-0.0138515924635157,2111.50654233724
-0.0231113879717886,2111.51654233724
-0.0322250251054257,2111.52654233724
-0.0416637422906802,2111.53654233724
-0.0511423573703724,2111.54654233724
-0.0606869446991213,2111.55654233724
-0.0705950722679813,2111.56654233724
-0.0805431379737635,2111.57654233724
-0.0906935970600191,2111.58654233724
-0.100477917501687,2111.59654233724
-0.110236677491673,2111.60654233724
-0.119330970842342,2111.61654233724
-0.128590158233079,2111.62654233724
-0.13755891397935,2111.63654233724
-0.147307100056628,2111.64654233724
-0.158486070458436,2111.65654233724
-0.17072687492408,2111.66654233724
-0.184502781868355,2111.67654233724
-0.199779871008585,2111.68654233724
-0.216587981868179,2111.69654233724
-0.233365598870415,2111.70654233724
-0.248151614503752,2111.71654233724
-0.255960631269524,2111.72654233724
-0.249286431883681,2111.73654233724
-0.216381322422549,2111.74654233724
-0.148777518088156,2111.75654233724
-0.046640936276457,2111.76654233724
0.0764598749887799,2111.77654233724
0.202254131539967,2111.78654233724
0.314374103520031,2111.79654233724
0.400473709731449,2111.80654233724
0.458089009612904,2111.81654233724
0.490212840236164,2111.82654233724
0.501712345303943,2111.83654233724
0.498780751700731,2111.84654233724
0.48655237583104,2111.85654233724
0.468648582940491,2111.86654233724
0.447860180455584,2111.87654233724
0.425996289898612,2111.88654233724
0.404445396019916,2111.89654233724
0.383871085283311,2111.90654233724
0.365951798383936,2111.91654233724
0.350639212324008,2111.92654233724
0.338073576203175,2111.93654233724
0.328366899145677,2111.94654233724
0.320944076069935,2111.95654233724
0.316038873328146,2111.96654233724
0.311680288697786,2111.97654233724
0.306636239179501,2111.98654233724
0.299524576119135,2111.99654233724
0.288692452769347,2112.00654233724
0.272797183644889,2112.01654233724
0.253072659860113,2112.02654233724
0.230145943695633,2112.03654233724
0.206483583075743,2112.04654233724
0.185063740798333,2112.05654233724
0.168295612292462,2112.06654233724
0.158147240761039,2112.07654233724
0.154104587357486,2112.08654233724
0.15723755671822,2112.09654233724
0.165248937972442,2112.10654233724
0.176896466166519,2112.11654233724
0.190270900622042,2112.12654233724
0.203485790585256,2112.13654233724
0.214839965274446,2112.14654233724
0.222781927711152,2112.15654233724
0.226886770635735,2112.16654233724
0.226440526834395,2112.17654233724
0.222189435847879,2112.18654233724
0.213737796979808,2112.19654233724
0.202726941318389,2112.20654233724
0.189318541372539,2112.21654233724
0.173934435804282,2112.22654233724
0.157418915072895,2112.23654233724
0.140924418778918,2112.24654233724
0.124895312232472,2112.25654233724
0.109811936830364,2112.26654233724
0.0956763611048228,2112.27654233724
0.0818735515933193,2112.28654233724
0.069561484171556,2112.29654233724
0.0575852396718678,2112.30654233724
0.0453935902469416,2112.31654233724
0.0338297069111561,2112.32654233724
0.0218753307285043,2112.33654233724
0.00988138623546071,2112.34654233724
-0.00232601624407991,2112.35654233724
-0.0150176890524218,2112.36654233724
-0.0273254275786992,2112.37654233724
-0.0395365441820852,2112.38654233724
-0.050733094608954,2112.39654233724
-0.0611803546260089,2112.40654233724
-0.0705008087468397,2112.41654233724
-0.079189777219002,2112.42654233724
-0.0878550594323068,2112.43654233724
-0.0970920135722047,2112.44654233724
-0.107674611990971,2112.45654233724
-0.120293841304482,2112.46654233724
-0.134416654194327,2112.47654233724
-0.150185262301097,2112.48654233724
-0.166105736484887,2112.49654233724
-0.180253734255487,2112.50654233724
-0.189121646652132,2112.51654233724
-0.185907066273659,2112.52654233724
-0.16188330911416,2112.53654233724
-0.107443951861557,2112.54654233724
-0.020308646408755,2112.55654233724
0.0897703007002734,2112.56654233724
0.208317291923156,2112.57654233724
0.318385860925763,2112.58654233724
0.407906790318576,2112.59654233724
0.471156389281355,2112.60654233724
0.508978431739061,2112.61654233724
0.525877211988845,2112.62654233724
0.526930133197686,2112.63654233724
0.517418500587877,2112.64654233724
0.501409827934839,2112.65654233724
0.482446451365631,2112.66654233724
0.462758987112798,2112.67654233724
0.443299719299044,2112.68654233724
0.425135965697094,2112.69654233724
0.409799376446516,2112.70654233724
0.397002292039077,2112.71654233724
0.386293793952971,2112.72654233724
0.378386612480376,2112.73654233724
0.372474423792252,2112.74654233724
0.367899250681253,2112.75654233724
0.36354064942959,2112.76654233724
0.359191096137713,2112.77654233724
0.353753427362993,2112.78654233724
0.344952521958808,2112.79654233724
0.332499910264969,2112.80654233724
0.31607341804519,2112.81654233724
0.296032367080642,2112.82654233724
0.275451483527294,2112.83654233724
0.256647404171651,2112.84654233724
0.241775126156468,2112.85654233724
0.231936879442846,2112.86654233724
0.22796353909592,2112.87654233724
0.22975647550827,2112.88654233724
0.236312583397854,2112.89654233724
0.245293678633819,2112.90654233724
0.255918743696138,2112.91654233724
0.265959707455616,2112.92654233724
0.274638955065369,2112.93654233724
0.280535150772231,2112.94654233724
0.282578858245811,2112.95654233724
0.281199116073309,2112.96654233724
0.275880754884391,2112.97654233724
0.267455476667451,2112.98654233724
0.256787189291651,2112.99654233724
0.243206771202345,2113.00654233724
0.228180709287486,2113.01654233724
0.212407822817133,2113.02654233724
0.195463249872836,2113.03654233724
0.179327094296819,2113.04654233724
0.163697899288576,2113.05654233724
0.14911388096298,2113.06654233724
0.13519785040661,2113.07654233724
0.122313407261908,2113.08654233724
0.109998042310305,2113.09654233724
0.0980687142456075,2113.10654233724
0.0859927781989119,2113.11654233724
0.0744548927547225,2113.12654233724
0.0630527336786034,2113.13654233724
0.0518996535924438,2113.14654233724
0.041156579070115,2113.15654233724
0.0299774086005182,2113.16654233724
0.0194019446418838,2113.17654233724
0.00817874424110515,2113.18654233724
-0.0030855156923454,2113.19654233724
-0.0134744629427507,2113.20654233724
-0.0242591630580981,2113.21654233724
-0.0346079928614825,2113.22654233724
-0.0450544422299371,2113.23654233724
-0.0558608355974529,2113.24654233724
-0.0669670825331102,2113.25654233724
-0.0788537140226915,2113.26654233724
-0.0923545313816735,2113.27654233724
-0.107213059925649,2113.28654233724
-0.123249009379847,2113.29654233724
-0.13834974787649,2113.30654233724
-0.151923205311626,2113.31654233724
-0.158760120185438,2113.32654233724
-0.150640956346765,2113.33654233724
-0.117259788772193,2113.34654233724
-0.0497600776925121,2113.35654233724
0.0495424652110553,2113.36654233724
0.167806719842372,2113.37654233724
0.288206823309631,2113.38654233724
0.393708169241528,2113.39654233724
0.47512644828924,2113.40654233724
0.529644610440922,2113.41654233724
0.559350750412085,2113.42654233724
0.570547593418231,2113.43654233724
0.56827403094434,2113.44654233724
0.557656838488648,2113.45654233724
0.542294416531701,2113.46654233724
0.524191835292238,2113.47654233724
0.505824199893907,2113.48654233724
0.488194565940461,2113.49654233724
0.472385753098597,2113.50654233724
0.458827500301258,2113.51654233724
0.448271307362607,2113.52654233724
0.440986878224466,2113.53654233724
0.436307451307901,2113.54654233724
0.433340201036234,2113.55654233724
0.431436561805668,2113.56654233724
0.429712573407935,2113.57654233724
0.42680460873926,2113.58654233724
0.422235916116847,2113.59654233724
0.414122724870672,2113.60654233724
0.401714001266205,2113.61654233724
0.384605910637452,2113.62654233724
0.363972880233476,2113.63654233724
0.341948992861522,2113.64654233724
0.321759832005165,2113.65654233724
0.304731126484062,2113.66654233724
0.29265253925395,2113.67654233724
0.285285498789241,2113.68654233724
0.283434319504522,2113.69654233724
0.285448774339882,2113.70654233724
0.290557338802622,2113.71654233724
0.297689612588064,2113.72654233724
0.305071578619143,2113.73654233724
0.311705680610201,2113.74654233724
0.316203905952835,2113.75654233724
0.318450353949006,2113.76654233724
0.317816550336635,2113.77654233724
0.314723977337789,2113.78654233724
0.309054134888417,2113.79654233724
0.301295653668148,2113.80654233724
0.29164484075762,2113.81654233724
0.27998440656162,2113.82654233724
0.266513340896864,2113.83654233724
0.252340602819001,2113.84654233724
0.236217177104289,2113.85654233724
0.219307778273868,2113.86654233724
0.202346200397937,2113.87654233724
0.185865370024593,2113.88654233724
0.169829268524284,2113.89654233724
0.154061885249302,2113.90654233724
0.138399142815684,2113.91654233724
0.123758495348701,2113.92654233724
0.109836711968628,2113.93654233724
0.0965793819283596,2113.94654233724
0.0838973020007761,2113.95654233724
0.0714640265185353,2113.96654233724
0.0592040253808327,2113.97654233724
0.0474567016707294,2113.98654233724
0.0358591820026034,2113.99654233724
0.0246853619734717,2114.00654233724
0.0146204794342788,2114.01654233724
0.00710408781080017,2114.02654233724
-4.3780475377375e-05,2114.03654233724
-0.00928274315456453,2114.04654233724
-0.0205576250153087,2114.05654233724
-0.0332513062947691,2114.06654233724
-0.0462838811124911,2114.07654233724
-0.0579656285008218,2114.08654233724
-0.0677537864466685,2114.09654233724
-0.0782707504596931,2114.10654233724
-0.0910795220192651,2114.11654233724
-0.107046636792284,2114.12654233724
-0.124227681221876,2114.13654233724
-0.139927928438016,2114.14654233724
-0.148999928843457,2114.15654233724
-0.142391590349111,2114.16654233724
-0.111867749424612,2114.17654233724
-0.05050054503148,2114.18654233724
0.0418764034932401,2114.19654233724
0.155996592561791,2114.20654233724
0.276104086751884,2114.21654233724
0.386325117405167,2114.22654233724
0.476428866931084,2114.23654233724
0.540426669597808,2114.24654233724
0.577303805089387,2114.25654233724
0.592056541726345,2114.26654233724
0.59103995291624,2114.27654233724
0.579918780192962,2114.28654233724
0.564730383876418,2114.29654233724
0.54958333127095,2114.30654233724
0.533779430239495,2114.31654233724
0.516797209371068,2114.32654233724
0.499200954879829,2114.33654233724
0.482193333737581,2114.34654233724
0.466924816972359,2114.35654233724
0.455644098352882,2114.36654233724
0.449877379694982,2114.37654233724
0.446951113712916,2114.38654233724
0.444307325603717,2114.39654233724
0.440334210544591,2114.40654233724
0.434873454826738,2114.41654233724
0.427270883841421,2114.42654233724
0.417674128771181,2114.43654233724
0.407009323180848,2114.44654233724
0.393145304485686,2114.45654233724
0.374549674979046,2114.46654233724
0.35234880987101,2114.47654233724
0.329975157643056,2114.48654233724
0.310992239762519,2114.49654233724
0.298161403929813,2114.50654233724
0.293579875814793,2114.51654233724
0.294831545483533,2114.52654233724
0.297925496837432,2114.53654233724
0.30170371424157,2114.54654233724
0.305523744945455,2114.55654233724
0.309058680074925,2114.56654233724
0.313984912037104,2114.57654233724
0.320127047268134,2114.58654233724
0.324811672150868,2114.59654233724
0.32557822002478,2114.60654233724
0.321892690815577,2114.61654233724
0.313944643404981,2114.62654233724
0.304103850352113,2114.63654233724
0.293164275411128,2114.64654233724
0.282608980361054,2114.65654233724
0.271098027680347,2114.66654233724
0.25717603928585,2114.67654233724
0.240207367472321,2114.68654233724
0.221106482239548,2114.69654233724
0.201922566565606,2114.70654233724
0.184147119280773,2114.71654233724
0.169623930894237,2114.72654233724
0.156198145894012,2114.73654233724
0.142092516012782,2114.74654233724
0.126089827892527,2114.75654233724
0.109541421943449,2114.76654233724
0.0933914906289879,2114.77654233724
0.0794418850788677,2114.78654233724
0.0684227981999015,2114.79654233724
0.0584814670606926,2114.80654233724
0.0471460078553786,2114.81654233724
0.0336608920246513,2114.82654233724
0.0180548792945843,2114.83654233724
0.00272277125429954,2114.84654233724
-0.0115319999699897,2114.85654233724
-0.022667207419425,2114.86654233724
-0.0323501312070592,2114.87654233724
-0.0433387808910263,2114.88654233724
-0.0562188266084014,2114.89654233724
-0.0700286063224317,2114.90654233724
-0.0846327285331783,2114.91654233724
-0.0978144960944278,2114.92654233724
-0.108428649174516,2114.93654233724
-0.1187125484399,2114.94654233724
-0.131683783970333,2114.95654233724
-0.148009616549965,2114.96654233724
-0.166238473687882,2114.97654233724
-0.18513125627723,2114.98654233724
-0.201745475144564,2114.99654233724
-0.21057050666294,2115.00654233724
-0.207246164079291,2115.01654233724
-0.184013941079842,2115.02654233724
-0.129885786152211,2115.03654233724
-0.0413013054106455,2115.04654233724
0.0747988789482863,2115.05654233724
0.203285343827641,2115.06654233724
0.326907253191724,2115.07654233724
0.428806854229545,2115.08654233724
0.500323922112865,2115.09654233724
0.542152807920304,2115.10654233724
0.559376366300485,2115.11654233724
0.55918630105997,2115.12654233724
0.549051478387698,2115.13654233724
0.534396861148574,2115.14654233724
0.516468267573744,2115.15654233724
0.495062323308499,2115.16654233724
0.471368275882419,2115.17654233724
0.447659243730867,2115.18654233724
0.425741451045386,2115.19654233724
0.408585319713586,2115.20654233724
0.397870211648998,2115.21654233724
0.390370560362865,2115.22654233724
0.384203865566717,2115.23654233724
0.378133533160981,2115.24654233724
0.371097871776834,2115.25654233724
0.36289655016861,2115.26654233724
0.353915660257136,2115.27654233724
0.343815938647564,2115.28654233724
0.329727942547939,2115.29654233724
0.30996544629895,2115.30654233724
0.285581597250086,2115.31654233724
0.259911333240727,2115.32654233724
0.237121596770881,2115.33654233724
0.221072296519701,2115.34654233724
0.214307697316325,2115.35654233724
0.214846696747029,2115.36654233724
0.220260571082346,2115.37654233724
0.228158242947299,2115.38654233724
0.237927671765885,2115.39654233724
0.248743031546083,2115.40654233724
0.260504784087984,2115.41654233724
0.272645868531413,2115.42654233724
0.282497748686271,2115.43654233724
0.28654088701972,2115.44654233724
0.283712320273285,2115.45654233724
0.27552419042962,2115.46654233724
0.263349716792765,2115.47654233724
0.24962952077363,2115.48654233724
0.23595727031455,2115.49654233724
0.221230276078635,2115.50654233724
0.204348524514611,2115.51654233724
0.185183786461684,2115.52654233724
0.164875431129302,2115.53654233724
0.145291105654967,2115.54654233724
0.128183338491889,2115.55654233724
0.114528679430051,2115.56654233724
0.102606951822289,2115.57654233724
0.0889893234678805,2115.58654233724
0.0738496716663289,2115.59654233724
0.0582581909475694,2115.60654233724
0.0429163669021785,2115.61654233724
0.0302360982966184,2115.62654233724
0.0200871348789704,2115.63654233724
0.0107090495970756,2115.64654233724
0.000137027139509927,2115.65654233724
-0.0127537059327043,2115.66654233724
-0.0263521274462815,2115.67654233724
-0.0397422288296762,2115.68654233724
-0.0506188208503224,2115.69654233724
-0.0589441448830792,2115.70654233724
-0.0664301425434156,2115.71654233724
-0.0761454066191681,2115.72654233724
-0.0888932305852867,2115.73654233724
-0.103895680299677,2115.74654233724
-0.120487676259927,2115.75654233724
-0.136900433526794,2115.76654233724
-0.151829066207344,2115.77654233724
-0.166795022423696,2115.78654233724
-0.183746633291559,2115.79654233724
