PPG,time
-0.00385180567262002,1864.76393452897
-0.0259102026263745,1864.77393452897
-0.0487846491200875,1864.78393452897
-0.0710524341522104,1864.79393452897
-0.0938146321901435,1864.80393452897
-0.116214645066086,1864.81393452897
-0.138570773523907,1864.82393452897
-0.160809155850209,1864.83393452897
-0.182529932365405,1864.84393452897
-0.203723185827828,1864.85393452897
-0.224073294118031,1864.86393452897
-0.243408492371263,1864.87393452897
-0.261673107641016,1864.88393452897
-0.27912336591874,1864.89393452897
-0.295839925648537,1864.90393452897
-0.312461121821528,1864.91393452897
-0.32856427656258,1864.92393452897
-0.344649019361857,1864.93393452897
-0.360282534558182,1864.94393452897
-0.375130871658371,1864.95393452897
-0.389786426674462,1864.96393452897
-0.403798728334553,1864.97393452897
-0.41749186030971,1864.98393452897
-0.430738706967116,1864.99393452897
-0.443645999118323,1865.00393452897
-0.457292171323801,1865.01393452897
-0.47150795532471,1865.02393452897
-0.486205287686982,1865.03393452897
-0.500764824888453,1865.04393452897
-0.513561076421399,1865.05393452897
-0.520083385030799,1865.06393452897
-0.513158558497903,1865.07393452897
-0.48410612667278,1865.08393452897
-0.425618926796908,1865.09393452897
-0.337228458620355,1865.10393452897
-0.223763089395436,1865.11393452897
-0.0946044626404164,1865.12393452897
0.0398159488539157,1865.13393452897
0.170623587601023,1865.14393452897
0.292052975780507,1865.15393452897
0.399537005869118,1865.16393452897
0.48969514544643,1865.17393452897
0.562043621717402,1865.18393452897
0.616199365467694,1865.19393452897
0.653901985450731,1865.20393452897
0.677165911048168,1865.21393452897
0.689089433176003,1865.22393452897
0.691982373884694,1865.23393452897
0.688171493892304,1865.24393452897
0.679807020143468,1865.25393452897
0.668258044584339,1865.26393452897
0.655539838979103,1865.27393452897
0.641484892094492,1865.28393452897
0.627291951268318,1865.29393452897
0.613667206460469,1865.30393452897
0.601299501915874,1865.31393452897
0.590811233171234,1865.32393452897
0.58114490334857,1865.33393452897
0.572101242873578,1865.34393452897
0.562490411274825,1865.35393452897
0.550347926054863,1865.36393452897
0.534546131870588,1865.37393452897
0.514314087608755,1865.38393452897
0.490104463177451,1865.39393452897
0.463368708860835,1865.40393452897
0.435991576435778,1865.41393452897
0.410208434103301,1865.42393452897
0.387071884383849,1865.43393452897
0.368159499424337,1865.44393452897
0.35408777508441,1865.45393452897
0.344882072924182,1865.46393452897
0.34051531543174,1865.47393452897
0.339903410365087,1865.48393452897
0.342506687520978,1865.49393452897
0.346797249434304,1865.50393452897
0.351966351716409,1865.51393452897
0.355818164993854,1865.52393452897
0.357737572516051,1865.53393452897
0.357291536984314,1865.54393452897
0.35402191775808,1865.55393452897
0.347717255366079,1865.56393452897
0.338493640595781,1865.57393452897
0.326509760234759,1865.58393452897
0.312207873547455,1865.59393452897
0.295516470718143,1865.60393452897
0.276863318639266,1865.61393452897
0.256709883717505,1865.62393452897
0.2352981589678,1865.63393452897
0.212807424531176,1865.64393452897
0.19041707093143,1865.65393452897
0.167586100277811,1865.66393452897
0.144712508670548,1865.67393452897
0.121755881106591,1865.68393452897
0.0992454767086017,1865.69393452897
0.0766542911112386,1865.70393452897
0.0541084710512864,1865.71393452897
0.0315595758963304,1865.72393452897
0.00897405992911002,1865.73393452897
-0.0133869613817791,1865.74393452897
-0.0352095808399904,1865.75393452897
-0.0570323390281931,1865.76393452897
-0.0782501672249032,1865.77393452897
-0.0988320373127607,1865.78393452897
-0.118091793326358,1865.79393452897
-0.1367926570736,1865.80393452897
-0.155007477724852,1865.81393452897
-0.172081023401906,1865.82393452897
-0.188889236059503,1865.83393452897
-0.205200170150227,1865.84393452897
-0.221327782034649,1865.85393452897
-0.237393972533086,1865.86393452897
-0.253827807094564,1865.87393452897
-0.269232278493371,1865.88393452897
-0.284650615592412,1865.89393452897
-0.299564319005194,1865.90393452897
-0.313921050526917,1865.91393452897
-0.328067478544188,1865.92393452897
-0.341234648361326,1865.93393452897
-0.354397879813815,1865.94393452897
-0.367195609882743,1865.95393452897
-0.37994134019543,1865.96393452897
-0.393481511177353,1865.97393452897
-0.407575933255354,1865.98393452897
-0.421684198399146,1865.99393452897
-0.434572104351977,1866.00393452897
-0.443487214090307,1866.01393452897
-0.44174224668023,1866.02393452897
-0.420940990399049,1866.03393452897
-0.373282937786642,1866.04393452897
-0.29639231034452,1866.05393452897
-0.193099881257282,1866.06393452897
-0.0714004304243601,1866.07393452897
0.0585191987070604,1866.08393452897
0.188427805135849,1866.09393452897
0.310628370043483,1866.10393452897
0.419504755134931,1866.11393452897
0.512016681098077,1866.12393452897
0.586566569050764,1866.13393452897
0.643947887975976,1866.14393452897
0.684779799355504,1866.15393452897
0.711031674946535,1866.16393452897
0.725047044599308,1866.17393452897
0.728943229510373,1866.18393452897
0.725367551786512,1866.19393452897
0.716305005381638,1866.20393452897
0.704696735174908,1866.21393452897
0.691881044767299,1866.22393452897
0.678642343701594,1866.23393452897
0.665938340431712,1866.24393452897
0.653999766524715,1866.25393452897
0.642836400127853,1866.26393452897
0.632660450956145,1866.27393452897
0.622832919094719,1866.28393452897
0.613238460855147,1866.29393452897
0.602083841426888,1866.30393452897
0.588587147699538,1866.31393452897
0.57133061182917,1866.32393452897
0.550230717692987,1866.33393452897
0.524702942985241,1866.34393452897
0.496900239611362,1866.35393452897
0.468411789811229,1866.36393452897
0.442120853316772,1866.37393452897
0.419921046613392,1866.38393452897
0.402766116681819,1866.39393452897
0.390452357139009,1866.40393452897
0.382584926931412,1866.41393452897
0.379499079143833,1866.42393452897
0.37993404408244,1866.43393452897
0.382707440827185,1866.44393452897
0.386848406020385,1866.45393452897
0.391488517046745,1866.46393452897
0.394257092706195,1866.47393452897
0.395332877209524,1866.48393452897
0.393893834352302,1866.49393452897
0.389464086985609,1866.50393452897
0.382837089849065,1866.51393452897
0.373741645122366,1866.52393452897
0.361602822853689,1866.53393452897
0.347083834115791,1866.54393452897
0.330171226954135,1866.55393452897
0.311571707800422,1866.56393452897
0.291441351439822,1866.57393452897
0.269915215504895,1866.58393452897
0.247734904797954,1866.59393452897
0.224958340303459,1866.60393452897
0.201576987138784,1866.61393452897
0.1780279265911,1866.62393452897
0.154679918137385,1866.63393452897
0.1311812608684,1866.64393452897
0.108055274663446,1866.65393452897
0.0859696418971577,1866.66393452897
0.0642632290766337,1866.67393452897
0.0417123822318145,1866.68393452897
0.0195919369542394,1866.69393452897
-0.00245300370388925,1866.70393452897
-0.0236376303928761,1866.71393452897
-0.0444826980910894,1866.72393452897
-0.0642104625005449,1866.73393452897
-0.0833632809612116,1866.74393452897
-0.101471525173135,1866.75393452897
-0.119365273189652,1866.76393452897
-0.136939517720944,1866.77393452897
-0.153602011257752,1866.78393452897
-0.170020596000354,1866.79393452897
-0.186131317119395,1866.80393452897
-0.201667979480421,1866.81393452897
-0.216740602913444,1866.82393452897
-0.231480353061461,1866.83393452897
-0.245382605111729,1866.84393452897
-0.258941812199079,1866.85393452897
-0.271825242597663,1866.86393452897
-0.284895558367098,1866.87393452897
-0.298320083509289,1866.88393452897
-0.312026441091657,1866.89393452897
-0.325890232418734,1866.90393452897
-0.340690226210199,1866.91393452897
-0.35543629741861,1866.92393452897
-0.370669863100979,1866.93393452897
-0.385215918576765,1866.94393452897
-0.396619000715373,1866.95393452897
-0.400295227874418,1866.96393452897
-0.389057543964179,1866.97393452897
-0.354570659135258,1866.98393452897
-0.2921757686703,1866.99393452897
-0.20135986480219,1867.00393452897
-0.0891812903668631,1867.01393452897
0.0361406578634188,1867.02393452897
0.164902016773869,1867.03393452897
0.289199225004708,1867.04393452897
0.402800000082783,1867.05393452897
0.500853808966684,1867.06393452897
0.580666982745262,1867.07393452897
0.641733572711852,1867.08393452897
0.685765013931214,1867.09393452897
0.714629739102716,1867.10393452897
0.729975896851461,1867.11393452897
0.735434896520195,1867.12393452897
0.732614276701546,1867.13393452897
0.724157039657146,1867.14393452897
0.712272244691849,1867.15393452897
0.698214488377179,1867.16393452897
0.683413179859691,1867.17393452897
0.669114030322698,1867.18393452897
0.656052086276605,1867.19393452897
0.644357134982553,1867.20393452897
0.633966128995447,1867.21393452897
0.624190445005527,1867.22393452897
0.61394913651421,1867.23393452897
0.603236407437828,1867.24393452897
0.590226810576887,1867.25393452897
0.572767156591101,1867.26393452897
0.551318779600904,1867.27393452897
0.525744772303376,1867.28393452897
0.497572963275638,1867.29393452897
0.469064635228224,1867.30393452897
0.442780313032361,1867.31393452897
0.420417619265837,1867.32393452897
0.403251651652345,1867.33393452897
0.391607126467773,1867.34393452897
0.384539961719972,1867.35393452897
0.381685456409497,1867.36393452897
0.381925123936365,1867.37393452897
0.384067776603322,1867.38393452897
0.387080052497487,1867.39393452897
0.390218525215146,1867.40393452897
0.392151227870519,1867.41393452897
0.392863647017444,1867.42393452897
0.39124609249066,1867.43393452897
0.38691927393794,1867.44393452897
0.379668541194373,1867.45393452897
0.369030952349287,1867.46393452897
0.35596840704035,1867.47393452897
0.340401058856027,1867.48393452897
0.322770766844593,1867.49393452897
0.304394649099467,1867.50393452897
0.284777975939502,1867.51393452897
0.264290670439284,1867.52393452897
0.242843916580214,1867.53393452897
0.220253676352196,1867.54393452897
0.197397884999646,1867.55393452897
0.174212962035738,1867.56393452897
0.15105730350151,1867.57393452897
0.128129341971522,1867.58393452897
0.105498113539577,1867.59393452897
0.0831193223376871,1867.60393452897
0.0610672113695883,1867.61393452897
0.0394871540575017,1867.62393452897
0.0178699189533839,1867.63393452897
-0.0032738788994948,1867.64393452897
-0.0238656875613649,1867.65393452897
-0.0442264386484034,1867.66393452897
-0.0636367722402553,1867.67393452897
-0.082497721995839,1867.68393452897
-0.100632629284113,1867.69393452897
-0.118369841173693,1867.70393452897
-0.136528119031999,1867.71393452897
-0.153824982687964,1867.72393452897
-0.17125204044266,1867.73393452897
-0.188675754499039,1867.74393452897
-0.205736292294719,1867.75393452897
-0.222260851291459,1867.76393452897
-0.238013945513744,1867.77393452897
-0.253196912170893,1867.78393452897
-0.267891366314291,1867.79393452897
-0.281412988915035,1867.80393452897
-0.294031901893129,1867.81393452897
-0.306738496572819,1867.82393452897
-0.319364910895045,1867.83393452897
-0.33293587809492,1867.84393452897
-0.347014632465857,1867.85393452897
-0.361584753055491,1867.86393452897
-0.376895071008168,1867.87393452897
-0.392376811563903,1867.88393452897
-0.407876508284943,1867.89393452897
-0.42090642381031,1867.90393452897
-0.428004072568184,1867.91393452897
-0.422262965821054,1867.92393452897
-0.396046366387959,1867.93393452897
-0.342591528022671,1867.94393452897
-0.260563868996276,1867.95393452897
-0.154870616991442,1867.96393452897
-0.0338604783105968,1867.97393452897
0.0934461941191407,1867.98393452897
0.218242920856376,1867.99393452897
0.33419651419666,1868.00393452897
0.436932424381912,1868.01393452897
0.522308681823922,1868.02393452897
0.589581656867815,1868.03393452897
0.638842865556707,1868.04393452897
0.671161415204967,1868.05393452897
0.68975834339457,1868.06393452897
0.697202518872142,1868.07393452897
0.69534669758664,1868.08393452897
0.686809285010563,1868.09393452897
0.673858524790841,1868.10393452897
0.658338133801963,1868.11393452897
0.642483996161167,1868.12393452897
0.62708951270326,1868.13393452897
0.611852192783826,1868.14393452897
0.597719517142472,1868.15393452897
0.584382286938558,1868.16393452897
0.57151086166858,1868.17393452897
0.559825527055973,1868.18393452897
0.5468625952183,1868.19393452897
0.531583847424749,1868.20393452897
0.513185060590945,1868.21393452897
0.490142226084791,1868.22393452897
0.463870613801458,1868.23393452897
0.436386520027558,1868.24393452897
0.409238692680088,1868.25393452897
0.384960885937382,1868.26393452897
0.364835731202416,1868.27393452897
0.349343039872592,1868.28393452897
0.338645094436166,1868.29393452897
0.333047486437109,1868.30393452897
0.332053804686733,1868.31393452897
0.334502562741699,1868.32393452897
0.339907067991992,1868.33393452897
0.346646789476689,1868.34393452897
0.35350785494726,1868.35393452897
0.35940678764065,1868.36393452897
0.363151864716674,1868.37393452897
0.364065991339771,1868.38393452897
0.361887050304389,1868.39393452897
0.356072058408186,1868.40393452897
0.346654642103395,1868.41393452897
0.334208309984992,1868.42393452897
0.318897532545874,1868.43393452897
0.301894010702285,1868.44393452897
0.283405975574868,1868.45393452897
0.264366494622519,1868.46393452897
0.243948788560647,1868.47393452897
0.222858922804901,1868.48393452897
0.200165956626119,1868.49393452897
0.176563183124252,1868.50393452897
0.151739180016673,1868.51393452897
0.126249228271334,1868.52393452897
0.101043347608874,1868.53393452897
0.0763961963910052,1868.54393452897
0.0518991628285313,1868.55393452897
0.0276324500313787,1868.56393452897
0.00380939057710819,1868.57393452897
-0.0194804105476186,1868.58393452897
-0.0418557436198555,1868.59393452897
-0.0630860938176315,1868.60393452897
-0.0831169812147777,1868.61393452897
-0.101938801392399,1868.62393452897
-0.120363594286293,1868.63393452897
-0.138121379211274,1868.64393452897
-0.154863916715425,1868.65393452897
-0.171283899676405,1868.66393452897
-0.186402165881865,1868.67393452897
-0.200364697853986,1868.68393452897
-0.213409471145811,1868.69393452897
-0.226223726138369,1868.70393452897
-0.239496578515412,1868.71393452897
-0.25265213578484,1868.72393452897
-0.266054052689461,1868.73393452897
-0.280196799555584,1868.74393452897
-0.295334228408712,1868.75393452897
-0.310666654601798,1868.76393452897
-0.326737402092769,1868.77393452897
-0.343355034214161,1868.78393452897
-0.359493617847167,1868.79393452897
-0.371899548638921,1868.80393452897
-0.375357081092523,1868.81393452897
-0.362307304609529,1868.82393452897
-0.324986081080853,1868.83393452897
-0.260437411338633,1868.84393452897
-0.170783477899428,1868.85393452897
-0.0623693395606702,1868.86393452897
0.0559897709044071,1868.87393452897
0.175171303202819,1868.88393452897
0.288392234063147,1868.89393452897
0.389599929124491,1868.90393452897
0.47529384562633,1868.91393452897
0.543382954065545,1868.92393452897
0.59373948682267,1868.93393452897
0.627478816005358,1868.94393452897
0.646080625700514,1868.95393452897
0.652735711514328,1868.96393452897
0.649302026952395,1868.97393452897
0.638684025331495,1868.98393452897
0.622921854856726,1868.99393452897
0.604112927509257,1869.00393452897
0.583847930700846,1869.01393452897
0.563583809729741,1869.02393452897
0.544445637094674,1869.03393452897
0.526412862349825,1869.04393452897
0.509861927721933,1869.05393452897
0.494603442618051,1869.06393452897
0.479387743440689,1869.07393452897
0.463018961461982,1869.08393452897
0.443230560356968,1869.09393452897
0.419986725964564,1869.10393452897
0.393127124330523,1869.11393452897
0.363317699460125,1869.12393452897
0.333896948983177,1869.13393452897
0.306654407649664,1869.14393452897
0.283280097826726,1869.15393452897
0.265225911146137,1869.16393452897
0.253121061643938,1869.17393452897
0.246652565020644,1869.18393452897
0.246613854499952,1869.19393452897
0.251135175589008,1869.20393452897
0.259949371811629,1869.21393452897
0.271270832113779,1869.22393452897
0.283742029634258,1869.23393452897
0.295563198357864,1869.24393452897
0.305467954974233,1869.25393452897
0.312643632378064,1869.26393452897
0.316037647690176,1869.27393452897
0.31514372990245,1869.28393452897
0.310522286672704,1869.29393452897
0.302208918484788,1869.30393452897
0.291234905176555,1869.31393452897
0.277122509296773,1869.32393452897
0.260515028314212,1869.33393452897
0.240983186142926,1869.34393452897
0.219770222536197,1869.35393452897
0.197647653814553,1869.36393452897
0.174195219696886,1869.37393452897
0.150115217110832,1869.38393452897
0.124781221410153,1869.39393452897
0.0994486448960658,1869.40393452897
0.0744620835066406,1869.41393452897
0.0494600885711495,1869.42393452897
0.0252992861686175,1869.43393452897
0.00142642428033102,1869.44393452897
-0.0214432521833962,1869.45393452897
-0.0435685894394934,1869.46393452897
-0.0645777398702985,1869.47393452897
-0.0845355750768736,1869.48393452897
-0.102917489411335,1869.49393452897
-0.120199241524962,1869.50393452897
-0.136062101977804,1869.51393452897
-0.150831685055159,1869.52393452897
-0.164624392621067,1869.53393452897
-0.177967999898239,1869.54393452897
-0.190775178904472,1869.55393452897
-0.204163994583567,1869.56393452897
-0.217962220948172,1869.57393452897
-0.23244534073496,1869.58393452897
-0.247425048104677,1869.59393452897
-0.26289970786255,1869.60393452897
-0.278781043672789,1869.61393452897
-0.294193742422702,1869.62393452897
-0.304928873736929,1869.63393452897
-0.305618268062693,1869.64393452897
-0.289495942564036,1869.65393452897
-0.247934608694653,1869.66393452897
-0.179564854952793,1869.67393452897
-0.0859992418938948,1869.68393452897
0.0260385167795544,1869.69393452897
0.146792975918359,1869.70393452897
0.268822009907424,1869.71393452897
0.383581051992141,1869.72393452897
0.48546806263978,1869.73393452897
0.570658901810163,1869.74393452897
0.637726897648886,1869.75393452897
0.686800315529992,1869.76393452897
0.718902934141138,1869.77393452897
0.736374633523391,1869.78393452897
0.741915956038016,1869.79393452897
0.737974611561435,1869.80393452897
0.727034927928986,1869.81393452897
0.712325576187952,1869.82393452897
0.695919375753357,1869.83393452897
0.67953902418583,1869.84393452897
0.664045749097938,1869.85393452897
0.650414719534128,1869.86393452897
0.638740631178852,1869.87393452897
0.62822211696867,1869.88393452897
0.618370261108676,1869.89393452897
0.608367102683348,1869.90393452897
0.596941134101767,1869.91393452897
0.582601484269342,1869.92393452897
0.564730900813276,1869.93393452897
0.542180970945491,1869.94393452897
0.51557984581786,1869.95393452897
0.486991075461121,1869.96393452897
0.457913224661028,1869.97393452897
0.430803276422361,1869.98393452897
0.407749809977068,1869.99393452897
0.388895842313796,1870.00393452897
0.374805250502024,1870.01393452897
0.365733936766332,1870.02393452897
0.361296077911598,1870.03393452897
0.360479934947715,1870.04393452897
0.362632651092546,1870.05393452897
0.367112942866858,1870.06393452897
0.371818627131994,1870.07393452897
0.375972352973194,1870.08393452897
0.377199124780558,1870.09393452897
0.375621035654602,1870.10393452897
0.370591164854705,1870.11393452897
0.362971984281007,1870.12393452897
0.352851245733952,1870.13393452897
0.339710279501331,1870.14393452897
0.324107008895809,1870.15393452897
0.306254028755966,1870.16393452897
0.286730278856729,1870.17393452897
0.266544000354646,1870.18393452897
0.244884190089648,1870.19393452897
0.222132891839707,1870.20393452897
0.198583788454941,1870.21393452897
0.174515203403747,1870.22393452897
0.149882456381367,1870.23393452897
0.124929561614033,1870.24393452897
0.100755626975303,1870.25393452897
0.0766110437500968,1870.26393452897
0.0526482294220855,1870.27393452897
0.0288815854981272,1870.28393452897
0.00533632614000863,1870.29393452897
-0.0180219936126134,1870.30393452897
-0.0407455213086741,1870.31393452897
-0.0625170956361333,1870.32393452897
-0.0834473513662355,1870.33393452897
-0.10335232832175,1870.34393452897
-0.122151747305489,1870.35393452897
-0.140583034084478,1870.36393452897
-0.157697754254585,1870.37393452897
-0.174219995739003,1870.38393452897
-0.18996632312943,1870.39393452897
-0.20422689853198,1870.40393452897
-0.21792850417213,1870.41393452897
-0.231232485475637,1870.42393452897
-0.244646082206566,1870.43393452897
-0.257885083198908,1870.44393452897
-0.271097699430053,1870.45393452897
-0.284921457598611,1870.46393452897
-0.299840542290433,1870.47393452897
-0.315791739982027,1870.48393452897
-0.332643823379477,1870.49393452897
-0.347918477348746,1870.50393452897
-0.35731415804542,1870.51393452897
-0.35343978142691,1870.52393452897
-0.327274540789872,1870.53393452897
-0.272813791696353,1870.54393452897
-0.188456244883296,1870.55393452897
-0.0795628661570242,1870.56393452897
0.0447400084706014,1870.57393452897
0.17492948869781,1870.58393452897
0.302785346498265,1870.59393452897
0.420431902699353,1870.60393452897
0.522102256552167,1870.61393452897
0.606200679392329,1870.62393452897
0.671522519776965,1870.63393452897
0.718759402888046,1870.64393452897
0.749788204450984,1870.65393452897
0.767145166229119,1870.66393452897
0.773440798761962,1870.67393452897
0.772109772724614,1870.68393452897
0.765145278158325,1870.69393452897
0.754642503177118,1870.70393452897
0.742790096218892,1870.71393452897
0.730580658619305,1870.72393452897
0.719430983742968,1870.73393452897
0.709814257673228,1870.74393452897
0.701475941237716,1870.75393452897
0.694252646122572,1870.76393452897
0.687660190578538,1870.77393452897
0.680677962484795,1870.78393452897
0.67255020255597,1870.79393452897
0.662204575344947,1870.80393452897
0.647720968032347,1870.81393452897
0.628568166206222,1870.82393452897
0.604130142029993,1870.83393452897
0.576180269414333,1870.84393452897
0.546042483640075,1870.85393452897
0.516199100023867,1870.86393452897
0.489383876277171,1870.87393452897
0.46697097772646,1870.88393452897
0.449441353224776,1870.89393452897
0.437166995013838,1870.90393452897
0.428941037319517,1870.91393452897
0.424127910939824,1870.92393452897
0.422598407658294,1870.93393452897
0.422763160447408,1870.94393452897
0.424690367981417,1870.95393452897
0.42691322724659,1870.96393452897
0.427084366967273,1870.97393452897
0.425245257219739,1870.98393452897
0.419909190393824,1870.99393452897
0.410778270198704,1871.00393452897
0.399191525822273,1871.01393452897
0.384804378636105,1871.02393452897
0.36833073213598,1871.03393452897
0.349778151419534,1871.04393452897
0.329984532504168,1871.05393452897
0.308834643117279,1871.06393452897
0.286335103851675,1871.07393452897
0.263676217634922,1871.08393452897
0.240709037125221,1871.09393452897
0.217195501867101,1871.10393452897
0.193550964424104,1871.11393452897
0.169980903815583,1871.12393452897
0.146477419627015,1871.13393452897
0.122685311729273,1871.14393452897
0.0995279896571186,1871.15393452897
0.0760132908982686,1871.16393452897
0.0525471862976424,1871.17393452897
0.029386228395403,1871.18393452897
0.00715823679119265,1871.19393452897
-0.0145233825395538,1871.20393452897
-0.0356219207926647,1871.21393452897
-0.0556930712001437,1871.22393452897
-0.0755420945935131,1871.23393452897
-0.0950193783211151,1871.24393452897
-0.1141388998358,1871.25393452897
-0.132208008562968,1871.26393452897
-0.149335625679465,1871.27393452897
-0.165887016663692,1871.28393452897
-0.181737806713435,1871.29393452897
-0.197593641609231,1871.30393452897
-0.212834571932827,1871.31393452897
-0.22798178185739,1871.32393452897
-0.242805298738317,1871.33393452897
-0.256994825306019,1871.34393452897
-0.271160365275503,1871.35393452897
-0.285573012153912,1871.36393452897
-0.299544293798663,1871.37393452897
-0.31354473460042,1871.38393452897
-0.3279627961188,1871.39393452897
-0.342516879417937,1871.40393452897
-0.357768825695655,1871.41393452897
-0.373304563657723,1871.42393452897
-0.388469128921981,1871.43393452897
-0.400399240132275,1871.44393452897
-0.40329023678612,1871.45393452897
-0.389213853482128,1871.46393452897
-0.349939364758884,1871.47393452897
-0.281226656470793,1871.48393452897
-0.184525248246974,1871.49393452897
-0.0663263036299745,1871.50393452897
0.0638241244995925,1871.51393452897
0.196310550959474,1871.52393452897
0.32324295481851,1871.53393452897
0.437340740339135,1871.54393452897
0.534122967056585,1871.55393452897
0.611683051390395,1871.56393452897
0.669524377316071,1871.57393452897
0.708878148704896,1871.58393452897
0.731861092155564,1871.59393452897
0.742041879914886,1871.60393452897
0.742360323479937,1871.61393452897
0.735691640651572,1871.62393452897
0.724496044489401,1871.63393452897
0.711071652260954,1871.64393452897
0.696737553940589,1871.65393452897
0.682598890563174,1871.66393452897
0.669752932845338,1871.67393452897
0.658075387036401,1871.68393452897
0.647321794179784,1871.69393452897
0.637884813127155,1871.70393452897
0.628517739952653,1871.71393452897
0.619243048904235,1871.72393452897
0.608792587025917,1871.73393452897
0.594932903702079,1871.74393452897
0.577257503572808,1871.75393452897
0.555159016691439,1871.76393452897
0.52894355269871,1871.77393452897
0.500261973719987,1871.78393452897
0.471593118045869,1871.79393452897
0.444854208534607,1871.80393452897
0.422075829599992,1871.81393452897
0.403973825579155,1871.82393452897
0.390722188479865,1871.83393452897
0.382073858077132,1871.84393452897
0.377558187073098,1871.85393452897
0.376626174368873,1871.86393452897
0.378101492032853,1871.87393452897
0.381236526575695,1871.88393452897
0.384234913439692,1871.89393452897
0.385900094316205,1871.90393452897
0.385604870780602,1871.91393452897
0.38235225034458,1871.92393452897
0.376922901847551,1871.93393452897
0.368491656177415,1871.94393452897
0.357344930838032,1871.95393452897
0.344120073347548,1871.96393452897
0.328287211235063,1871.97393452897
0.310033645495269,1871.98393452897
0.290002617284053,1871.99393452897
0.268560438729391,1872.00393452897
0.245810033691934,1872.01393452897
0.221838267719081,1872.02393452897
0.197033302911275,1872.03393452897
0.17147453615428,1872.04393452897
0.144788467625677,1872.05393452897
0.118344179107444,1872.06393452897
0.0927260319767255,1872.07393452897
0.0678880814969043,1872.08393452897
0.0436455069577701,1872.09393452897
0.0200142436771532,1872.10393452897
-0.00332111676674127,1872.11393452897
-0.0267523231109085,1872.12393452897
-0.049945899559782,1872.13393452897
-0.0722071462660651,1872.14393452897
-0.0932170714288529,1872.15393452897
-0.11243190123569,1872.16393452897
-0.130258589972676,1872.17393452897
-0.146894277086955,1872.18393452897
-0.162912184671851,1872.19393452897
-0.178408632442711,1872.20393452897
-0.193982713790221,1872.21393452897
-0.209109757259049,1872.22393452897
-0.223813429744713,1872.23393452897
-0.238439849457379,1872.24393452897
-0.2526692135672,1872.25393452897
-0.266157913216926,1872.26393452897
-0.279717320926891,1872.27393452897
-0.292933704876982,1872.28393452897
-0.306128114161946,1872.29393452897
-0.319792106201685,1872.30393452897
-0.334162679484133,1872.31393452897
-0.349065998689599,1872.32393452897
-0.364810870857372,1872.33393452897
-0.381281776178669,1872.34393452897
-0.39800820786122,1872.35393452897
-0.414397593180089,1872.36393452897
-0.425527433408405,1872.37393452897
-0.425807174148452,1872.38393452897
-0.406506551161224,1872.39393452897
-0.361034409427187,1872.40393452897
-0.286151130185202,1872.41393452897
-0.185780349059806,1872.42393452897
-0.0677408479374659,1872.43393452897
0.0582819373587908,1872.44393452897
0.183181526676449,1872.45393452897
0.299347076553121,1872.46393452897
0.400800379848272,1872.47393452897
0.48447737101577,1872.48393452897
0.549477110076038,1872.49393452897
0.595845340060805,1872.50393452897
0.625597071696587,1872.51393452897
0.641222698996319,1872.52393452897
0.644707992658675,1872.53393452897
0.638658156954676,1872.54393452897
0.626094394778632,1872.55393452897
0.608885394273845,1872.56393452897
0.589864259609199,1872.57393452897
0.570901464274359,1872.58393452897
0.553236957268775,1872.59393452897
0.536718311147647,1872.60393452897
0.521429604683262,1872.61393452897
0.50697511787003,1872.62393452897
0.493120621505156,1872.63393452897
0.479105873124749,1872.64393452897
0.46382466096269,1872.65393452897
0.44676278904351,1872.66393452897
0.42606683581432,1872.67393452897
0.401630086902951,1872.68393452897
0.374322370225743,1872.69393452897
0.346231869054026,1872.70393452897
0.31955829952412,1872.71393452897
0.29595805301964,1872.72393452897
0.277116473081356,1872.73393452897
0.264619411862559,1872.74393452897
0.257678278677414,1872.75393452897
0.256246626937212,1872.76393452897
0.259227022008101,1872.77393452897
0.26583049829034,1872.78393452897
0.275090729047719,1872.79393452897
0.285321324632728,1872.80393452897
0.293987374636804,1872.81393452897
0.300533539703042,1872.82393452897
0.30421945774557,1872.83393452897
0.304520525793179,1872.84393452897
0.301271370947507,1872.85393452897
0.294243878279456,1872.86393452897
0.284291922335725,1872.87393452897
0.271246295022866,1872.88393452897
0.255497745330444,1872.89393452897
0.237426437173821,1872.90393452897
0.216909911916192,1872.91393452897
0.195105304777001,1872.92393452897
0.171980540544732,1872.93393452897
0.147781808641894,1872.94393452897
0.122669865631015,1872.95393452897
0.0967096769375752,1872.96393452897
0.0705416281056593,1872.97393452897
0.0435801755081286,1872.98393452897
0.0173245205428934,1872.99393452897
-0.00811482577423109,1873.00393452897
-0.0328809507719824,1873.01393452897
-0.0564811002787843,1873.02393452897
-0.0790396138766524,1873.03393452897
-0.100338489952511,1873.04393452897
-0.119863449643635,1873.05393452897
-0.138136973596569,1873.06393452897
-0.154948263610209,1873.07393452897
-0.17068269042273,1873.08393452897
-0.185097673188635,1873.09393452897
-0.198492701284614,1873.10393452897
-0.210905556903177,1873.11393452897
-0.22299961050348,1873.12393452897
-0.234729435907893,1873.13393452897
-0.246000819240631,1873.14393452897
-0.256628880808745,1873.15393452897
-0.267677668315565,1873.16393452897
-0.279525248647255,1873.17393452897
-0.291895240585587,1873.18393452897
-0.30542912839011,1873.19393452897
-0.319846571032836,1873.20393452897
-0.335700185701699,1873.21393452897
-0.35261976250343,1873.22393452897
-0.368877841839154,1873.23393452897
-0.381195565069463,1873.24393452897
-0.383079972755495,1873.25393452897
-0.366364254719347,1873.26393452897
-0.324440162264886,1873.27393452897
-0.253835184180349,1873.28393452897
-0.158126622611227,1873.29393452897
-0.0438814021628295,1873.30393452897
0.0799908007607802,1873.31393452897
0.203945374190083,1873.32393452897
0.320241020951018,1873.33393452897
0.422887695321756,1873.34393452897
0.508108113154118,1873.35393452897
0.573799796220771,1873.36393452897
0.619680468220418,1873.37393452897
0.647931081886555,1873.38393452897
0.66060149310899,1873.39393452897
0.661489639363484,1873.40393452897
0.65347706108925,1873.41393452897
0.639295394916112,1873.42393452897
0.620915386682436,1873.43393452897
0.601116845214222,1873.44393452897
0.581613899249767,1873.45393452897
0.563092190586897,1873.46393452897
0.545690001342418,1873.47393452897
0.529636992168161,1873.48393452897
0.51497748699265,1873.49393452897
0.501625698234346,1873.50393452897
0.488286251391825,1873.51393452897
0.473363459906049,1873.52393452897
0.455460631732941,1873.53393452897
0.433766922912624,1873.54393452897
0.407686712767537,1873.55393452897
0.378635045798294,1873.56393452897
0.348309141732061,1873.57393452897
0.319789288267302,1873.58393452897
0.295822220762586,1873.59393452897
0.277809001788589,1873.60393452897
0.265947773291136,1873.61393452897
0.259968314988247,1873.62393452897
0.258871025585391,1873.63393452897
0.261726681853058,1873.64393452897
0.26760172355629,1873.65393452897
0.275132160505209,1873.66393452897
0.282940487976605,1873.67393452897
0.289535939771653,1873.68393452897
0.294047715226314,1873.69393452897
0.295391338508414,1873.70393452897
0.292603884078989,1873.71393452897
0.286448127607019,1873.72393452897
0.276661313962008,1873.73393452897
0.263819450681927,1873.74393452897
0.248348452339265,1873.75393452897
0.230772293910602,1873.76393452897
0.211106492154259,1873.77393452897
0.190531022918145,1873.78393452897
0.169466909848059,1873.79393452897
0.14790204183685,1873.80393452897
0.12546940377301,1873.81393452897
0.102755967835267,1873.82393452897
0.078933138788454,1873.83393452897
0.0542753291366818,1873.84393452897
0.0295930316105101,1873.85393452897
0.00533056785979231,1873.86393452897
-0.0191764796361672,1873.87393452897
-0.0432207657102522,1873.88393452897
-0.0671207801591357,1873.89393452897
-0.0904914742608649,1873.90393452897
-0.113032350003454,1873.91393452897
-0.134907134330034,1873.92393452897
-0.155658406251932,1873.93393452897
-0.175667227026996,1873.94393452897
-0.194954211782109,1873.95393452897
-0.213758332920509,1873.96393452897
-0.232193851125307,1873.97393452897
-0.250512125167856,1873.98393452897
-0.268539990176251,1873.99393452897
-0.284993870169059,1874.00393452897
-0.300313141695427,1874.01393452897
-0.314342521842043,1874.02393452897
-0.327895943205285,1874.03393452897
-0.340894391544585,1874.04393452897
-0.354472588987506,1874.05393452897
-0.36830381367394,1874.06393452897
-0.3823312821077,1874.07393452897
-0.397469044518007,1874.08393452897
-0.4132530234798,1874.09393452897
-0.430289451149594,1874.10393452897
-0.447441145794545,1874.11393452897
-0.46332872965553,1874.12393452897
-0.476305463631683,1874.13393452897
-0.480057967844254,1874.14393452897
-0.466352115867126,1874.15393452897
-0.42701071581198,1874.16393452897
-0.356985553857079,1874.17393452897
-0.25792931715812,1874.18393452897
-0.136555106631316,1874.19393452897
-0.00202222165419788,1874.20393452897
0.135489027699816,1874.21393452897
0.267654642607918,1874.22393452897
0.386861542334746,1874.23393452897
0.488796616648142,1874.24393452897
0.570529068247064,1874.25393452897
0.631986715604703,1874.26393452897
0.674121158118383,1874.27393452897
0.699539792197606,1874.28393452897
0.711179145834119,1874.29393452897
0.711935378472529,1874.30393452897
0.705046056446699,1874.31393452897
0.693547562195314,1874.32393452897
0.680466084468719,1874.33393452897
0.666963715608206,1874.34393452897
0.654374934664777,1874.35393452897
0.643459386428823,1874.36393452897
0.633673545619648,1874.37393452897
0.624732029122225,1874.38393452897
0.616183389928433,1874.39393452897
0.607828565667291,1874.40393452897
0.5994323430235,1874.41393452897
0.590183909766301,1874.42393452897
0.578649616741424,1874.43393452897
0.564318226771095,1874.44393452897
0.546181029784492,1874.45393452897
0.523422320796969,1874.46393452897
0.496810339254296,1874.47393452897
0.468147390588347,1874.48393452897
0.440289462705278,1874.49393452897
0.415056508713135,1874.50393452897
0.393984640235887,1874.51393452897
0.377319252137398,1874.52393452897
0.365134945501708,1874.53393452897
0.357385334332718,1874.54393452897
0.352682826243149,1874.55393452897
0.350294298654455,1874.56393452897
0.350470393585223,1874.57393452897
0.351057682470041,1874.58393452897
0.351713392770736,1874.59393452897
0.350890935435366,1874.60393452897
0.347545221569275,1874.61393452897
0.341446831667309,1874.62393452897
0.331338418879313,1874.63393452897
0.318331461103022,1874.64393452897
0.302857427198253,1874.65393452897
0.285517128939048,1874.66393452897
0.2669548454079,1874.67393452897
0.247128089074919,1874.68393452897
0.225532091624791,1874.69393452897
0.203044858028835,1874.70393452897
0.179665053754123,1874.71393452897
0.156180383947908,1874.72393452897
0.132247683450375,1874.73393452897
0.109208283928364,1874.74393452897
0.0858662089053258,1874.75393452897
0.0627611226503995,1874.76393452897
0.0389678741507661,1874.77393452897
0.0148990168748263,1874.78393452897
-0.00928247111593193,1874.79393452897
-0.033631757344135,1874.80393452897
-0.0573617499146727,1874.81393452897
-0.0806064365895677,1874.82393452897
-0.102732875758692,1874.83393452897
-0.124133172735915,1874.84393452897
-0.145207172663875,1874.85393452897
-0.165623263500611,1874.86393452897
-0.185096933299063,1874.87393452897
-0.204309857089623,1874.88393452897
-0.222614194869922,1874.89393452897
-0.23990930111203,1874.90393452897
-0.257020218345321,1874.91393452897
-0.273115745178933,1874.92393452897
-0.288631131235229,1874.93393452897
-0.303669698590372,1874.94393452897
-0.318481578045002,1874.95393452897
-0.333258104540221,1874.96393452897
-0.347714577299561,1874.97393452897
-0.36131014968835,1874.98393452897
-0.37409455795656,1874.99393452897
-0.385901693125351,1875.00393452897
-0.397399008751247,1875.01393452897
-0.409028177010005,1875.02393452897
-0.420698203427485,1875.03393452897
-0.433511706248094,1875.04393452897
-0.44714163999858,1875.05393452897
-0.460200872249536,1875.06393452897
-0.469943130917537,1875.07393452897
-0.469993578842322,1875.08393452897
-0.451749190967449,1875.09393452897
-0.407902159724608,1875.10393452897
-0.334258718761437,1875.11393452897
-0.233131863285462,1875.12393452897
-0.111745310091757,1875.13393452897
0.0204428407493841,1875.14393452897
0.153433846280849,1875.15393452897
0.278978925124762,1875.16393452897
0.390991142885298,1875.17393452897
0.486197855126911,1875.18393452897
0.561761901562391,1875.19393452897
0.618122822425387,1875.20393452897
0.655919485447109,1875.21393452897
0.677063797574931,1875.22393452897
0.684273453893003,1875.23393452897
0.681034600112646,1875.24393452897
0.670333700213971,1875.25393452897
0.655228478079463,1875.26393452897
0.63828095912301,1875.27393452897
0.621735353476631,1875.28393452897
0.606250846913958,1875.29393452897
0.592524597010535,1875.30393452897
0.580834331752201,1875.31393452897
0.570029331371538,1875.32393452897
0.559277509324509,1875.33393452897
0.548169074128523,1875.34393452897
0.536167963015693,1875.35393452897
0.52264618194691,1875.36393452897
0.506789064562666,1875.37393452897
0.487610054583045,1875.38393452897
0.464298422780585,1875.39393452897
0.437107840084127,1875.40393452897
0.407353894832558,1875.41393452897
0.377673889676947,1875.42393452897
0.350125776602095,1875.43393452897
0.326498713976987,1875.44393452897
0.30708644094538,1875.45393452897
0.292908937792274,1875.46393452897
0.283418284396616,1875.47393452897
0.278461111970888,1875.48393452897
0.277913985618155,1875.49393452897
0.28076094898519,1875.50393452897
0.284906239768368,1875.51393452897
0.288786886819487,1875.52393452897
0.291075345853766,1875.53393452897
0.291043391725168,1875.54393452897
0.287728892996952,1875.55393452897
0.280977050448705,1875.56393452897
0.270914282641515,1875.57393452897
0.257451934562158,1875.58393452897
0.241604314039114,1875.59393452897
0.223794871620049,1875.60393452897
0.204296631265054,1875.61393452897
0.183828798617548,1875.62393452897
0.161603817684731,1875.63393452897
0.138595024685125,1875.64393452897
0.114474978119878,1875.65393452897
0.0891987698275874,1875.66393452897
0.0636364713848294,1875.67393452897
0.037447956184116,1875.68393452897
0.0113603527275627,1875.69393452897
-0.0146547327117903,1875.70393452897
-0.0408274174512433,1875.71393452897
-0.0671631519648631,1875.72393452897
-0.0932921989378305,1875.73393452897
-0.119259563007101,1875.74393452897
-0.144590689869763,1875.75393452897
-0.169394297865485,1875.76393452897
-0.193024354697668,1875.77393452897
-0.215237905392814,1875.78393452897
-0.23674745196911,1875.79393452897
-0.256895136652904,1875.80393452897
-0.275982978981085,1875.81393452897
-0.293865025558757,1875.82393452897
-0.310726060502307,1875.83393452897
-0.326234603635168,1875.84393452897
-0.340908608400841,1875.85393452897
-0.355030022870823,1875.86393452897
-0.369002243154981,1875.87393452897
-0.382930584046551,1875.88393452897
-0.396720571835524,1875.89393452897
-0.410473673428075,1875.90393452897
-0.424143040149767,1875.91393452897
-0.438838365869107,1875.92393452897
-0.454945429203697,1875.93393452897
-0.471354605022299,1875.94393452897
-0.488602885020635,1875.95393452897
-0.50490621890815,1875.96393452897
-0.5172497475625,1875.97393452897
-0.5188561891251,1875.98393452897
-0.501929053317005,1875.99393452897
-0.459103695607688,1876.00393452897
-0.387790000655193,1876.01393452897
-0.291962771662989,1876.02393452897
-0.179208153980844,1876.03393452897
-0.0577120147552836,1876.04393452897
0.062600515442676,1876.05393452897
0.175457910527859,1876.06393452897
0.276420808992652,1876.07393452897
0.360402139781129,1876.08393452897
0.426715318522889,1876.09393452897
0.47492582340709,1876.10393452897
0.506024115323857,1876.11393452897
0.522438267582979,1876.12393452897
0.526688600476914,1876.13393452897
0.521132453022959,1876.14393452897
0.508958206162718,1876.15393452897
0.49174004485009,1876.16393452897
0.471731387280629,1876.17393452897
0.450519585390169,1876.18393452897
0.429849424517123,1876.19393452897
0.410916214514212,1876.20393452897
0.393244337329178,1876.21393452897
0.376883605201886,1876.22393452897
0.36182576411966,1876.23393452897
0.345949673849934,1876.24393452897
0.328749241283723,1876.25393452897
0.308081571291418,1876.26393452897
0.283863483999919,1876.27393452897
0.255927224089238,1876.28393452897
0.22625206998975,1876.29393452897
0.196488173390087,1876.30393452897
0.169276585712254,1876.31393452897
0.14627149112898,1876.32393452897
0.128786708587908,1876.33393452897
0.117205521379888,1876.34393452897
0.111631852994112,1876.35393452897
0.112313091397986,1876.36393452897
0.118279302844783,1876.37393452897
0.128639966349049,1876.38393452897
0.141283829977415,1876.39393452897
0.154512849405782,1876.40393452897
0.166281643071085,1876.41393452897
0.175360126048767,1876.42393452897
0.180927315392753,1876.43393452897
0.182847670016189,1876.44393452897
0.18065353677492,1876.45393452897
0.174523672852923,1876.46393452897
0.165049937007309,1876.47393452897
0.15195390474168,1876.48393452897
0.135780676906746,1876.49393452897
0.11687733905591,1876.50393452897
0.0954940436490937,1876.51393452897
0.0717492076254815,1876.52393452897
0.0464447011339877,1876.53393452897
0.0208077578974193,1876.54393452897
-0.0050511796609405,1876.55393452897
-0.0307907967781518,1876.56393452897
-0.0563065214900248,1876.57393452897
-0.081362565225407,1876.58393452897
-0.104859971712651,1876.59393452897
-0.127890453931558,1876.60393452897
-0.149207383566996,1876.61393452897
-0.168848156657238,1876.62393452897
-0.186596970752112,1876.63393452897
-0.202857686321048,1876.64393452897
-0.217257519725565,1876.65393452897
-0.230628389163612,1876.66393452897
-0.243782252785963,1876.67393452897
-0.256234307935872,1876.68393452897
-0.268437601586779,1876.69393452897
-0.281509628498056,1876.70393452897
-0.294933117022622,1876.71393452897
-0.309438061943418,1876.72393452897
-0.325057207307836,1876.73393452897
-0.341333064280625,1876.74393452897
-0.357544085340834,1876.75393452897
-0.372341829553263,1876.76393452897
-0.38337014731835,1876.77393452897
-0.385123155564056,1876.78393452897
-0.370654062205241,1876.79393452897
-0.333208349097253,1876.80393452897
-0.27081353384824,1876.81393452897
-0.185256924319546,1876.82393452897
-0.0829469151025067,1876.83393452897
0.0279460777283575,1876.84393452897
0.140182565821286,1876.85393452897
0.247262593357501,1876.86393452897
0.343320318495308,1876.87393452897
0.424516844959943,1876.88393452897
0.489025976044571,1876.89393452897
0.536050623809629,1876.90393452897
0.566013669548983,1876.91393452897
0.580944772167386,1876.92393452897
0.582911262070157,1876.93393452897
0.575204328724553,1876.94393452897
0.560826601460442,1876.95393452897
0.542831433705831,1876.96393452897
0.523009744411912,1876.97393452897
0.503396857558412,1876.98393452897
0.484863534953326,1876.99393452897
0.467700354393515,1877.00393452897
0.451863312810274,1877.01393452897
0.43760457176572,1877.02393452897
0.423456706017286,1877.03393452897
0.408127721163657,1877.04393452897
0.390817540423241,1877.05393452897
0.370446854434155,1877.06393452897
0.346610939006468,1877.07393452897
0.320004940518319,1877.08393452897
0.292920832598994,1877.09393452897
0.267993665756936,1877.10393452897
0.247020714751036,1877.11393452897
0.231679412556368,1877.12393452897
0.222242769786017,1877.13393452897
0.218960168201676,1877.14393452897
0.220940928601375,1877.15393452897
0.228078621754859,1877.16393452897
0.239154944448934,1877.17393452897
0.251957040414464,1877.18393452897
0.265072232236223,1877.19393452897
0.276972927700396,1877.20393452897
0.286891643429541,1877.21393452897
0.293683488536185,1877.22393452897
0.29656694006803,1877.23393452897
0.295031945848487,1877.24393452897
0.28876160426974,1877.25393452897
0.277697185043552,1877.26393452897
0.261971531107454,1877.27393452897
0.242641599324841,1877.28393452897
0.220141558134176,1877.29393452897
0.196632487205261,1877.30393452897
0.171640262942456,1877.31393452897
0.145621894108199,1877.32393452897
0.119146371979571,1877.33393452897
0.0922419850658362,1877.34393452897
0.0655147075292333,1877.35393452897
0.0387126611090142,1877.36393452897
0.0117360288876373,1877.37393452897
-0.0144974661182822,1877.38393452897
-0.0404211591141452,1877.39393452897
-0.0657234865096727,1877.40393452897
-0.0901753103638251,1877.41393452897
-0.112936796346329,1877.42393452897
-0.134010477610076,1877.43393452897
-0.15291397015601,1877.44393452897
-0.170264573146,1877.45393452897
-0.186892518834366,1877.46393452897
-0.203192251100018,1877.47393452897
-0.219372437455648,1877.48393452897
-0.235372054079826,1877.49393452897
-0.250988022011482,1877.50393452897
-0.266305747812453,1877.51393452897
-0.28184169975504,1877.52393452897
-0.297746556236704,1877.53393452897
-0.314147408590653,1877.54393452897
-0.32839732436615,1877.55393452897
-0.335994314247923,1877.56393452897
-0.329084962712607,1877.57393452897
-0.299867909728072,1877.58393452897
-0.242845141484091,1877.59393452897
-0.159301207315933,1877.60393452897
-0.0536941154805484,1877.61393452897
0.0659276729166597,1877.62393452897
0.19148521937196,1877.63393452897
0.314541651305579,1877.64393452897
0.428729552420472,1877.65393452897
0.528169262087834,1877.66393452897
0.609002457914865,1877.67393452897
0.671277817634132,1877.68393452897
0.714268410057632,1877.69393452897
0.740120762559746,1877.70393452897
0.75273707897729,1877.71393452897
0.75470116948174,1877.72393452897
0.749916220509351,1877.73393452897
0.740892541217455,1877.74393452897
0.730718276420881,1877.75393452897
0.720585401034039,1877.76393452897
0.71176176062845,1877.77393452897
0.704551431153599,1877.78393452897
0.698431671649251,1877.79393452897
0.69380307516594,1877.80393452897
0.690324451201288,1877.81393452897
0.686331636711395,1877.82393452897
0.681574186922483,1877.83393452897
0.674436951454441,1877.84393452897
0.664193150416305,1877.85393452897
0.648923225758722,1877.86393452897
0.628903425753354,1877.87393452897
0.603330902974859,1877.88393452897
0.574373180900212,1877.89393452897
0.544317194283316,1877.90393452897
0.515084651791199,1877.91393452897
0.488608372454845,1877.92393452897
0.465960184943881,1877.93393452897
0.447569492459465,1877.94393452897
0.434423030322226,1877.95393452897
0.425618661911113,1877.96393452897
0.421363450985186,1877.97393452897
0.419538677213184,1877.98393452897
0.419572872779148,1877.99393452897
0.419786684565784,1878.00393452897
0.419361940596705,1878.01393452897
0.41799954221309,1878.02393452897
0.414365566702321,1878.03393452897
0.408457003039416,1878.04393452897
0.399954418479532,1878.05393452897
0.388515827827837,1878.06393452897
0.374316490494728,1878.07393452897
0.357642446467713,1878.08393452897
0.338359778913789,1878.09393452897
0.317555389963611,1878.10393452897
0.295546480268187,1878.11393452897
0.27231784783805,1878.12393452897
0.248564853941887,1878.13393452897
0.224151577084317,1878.14393452897
0.19884438830974,1878.15393452897
0.173009619382914,1878.16393452897
0.147348131325879,1878.17393452897
0.122161737373737,1878.18393452897
0.0976502067685456,1878.19393452897
0.0735956931033153,1878.20393452897
0.0508311147523287,1878.21393452897
0.0285957013136002,1878.22393452897
0.00754689947314992,1878.23393452897
-0.0124563280006868,1878.24393452897
-0.031969546586513,1878.25393452897
-0.0508827728434757,1878.26393452897
-0.0694939950935624,1878.27393452897
-0.0875272813046377,1878.28393452897
-0.104490451913521,1878.29393452897
-0.12036882297525,1878.30393452897
-0.135801185137379,1878.31393452897
-0.15143706585464,1878.32393452897
-0.167253089254762,1878.33393452897
-0.183448122326911,1878.34393452897
-0.200128632004127,1878.35393452897
-0.217406120688343,1878.36393452897
-0.23485441426173,1878.37393452897
-0.251132023866237,1878.38393452897
-0.262590639899206,1878.39393452897
-0.262849126775788,1878.40393452897
-0.244546251029794,1878.41393452897
-0.201608615861066,1878.42393452897
-0.133767389044052,1878.43393452897
-0.0436480599978118,1878.44393452897
0.0620163411277104,1878.45393452897
0.175371296904548,1878.46393452897
0.289375722094527,1878.47393452897
0.395501866782515,1878.48393452897
0.488934193736255,1878.49393452897
0.565844226126392,1878.50393452897
0.624395279006947,1878.51393452897
0.665839173937446,1878.52393452897
0.690680575907747,1878.53393452897
0.702269969858231,1878.54393452897
0.704210819971845,1878.55393452897
0.699382530705733,1878.56393452897
0.690662027764241,1878.57393452897
0.680731259773925,1878.58393452897
0.671043749903049,1878.59393452897
0.662559050221232,1878.60393452897
0.654973592732937,1878.61393452897
0.648386218160204,1878.62393452897
0.642664155972263,1878.63393452897
0.636636406226179,1878.64393452897
0.630895511110427,1878.65393452897
0.624794165509628,1878.66393452897
0.617798612907844,1878.67393452897
0.607983960564853,1878.68393452897
0.594586516510338,1878.69393452897
0.576262008329222,1878.70393452897
0.553326877053548,1878.71393452897
0.526895472971478,1878.72393452897
0.498598272195785,1878.73393452897
0.470484882469533,1878.74393452897
0.444261736092024,1878.75393452897
0.420652331086374,1878.76393452897
0.401054203464781,1878.77393452897
0.385488416812258,1878.78393452897
0.374123384327019,1878.79393452897
0.366481541386788,1878.80393452897
0.361621507521725,1878.81393452897
0.358665271345979,1878.82393452897
0.356760744060666,1878.83393452897
0.354089060573375,1878.84393452897
0.350282506875177,1878.85393452897
0.343972131499501,1878.86393452897
0.335131841877806,1878.87393452897
0.323885427259029,1878.88393452897
0.310437345036903,1878.89393452897
0.295792518256463,1878.90393452897
0.279626651712743,1878.91393452897
0.261870425198725,1878.92393452897
0.242813834399603,1878.93393452897
0.222319846640771,1878.94393452897
0.201009121566823,1878.95393452897
0.179288879368009,1878.96393452897
0.157173748116511,1878.97393452897
0.134333382299753,1878.98393452897
0.111097002797082,1878.99393452897
0.0877100904891716,1879.00393452897
0.0638629458283803,1879.01393452897
0.0401261242122824,1879.02393452897
0.0173865009700246,1879.03393452897
-0.00486266617524094,1879.04393452897
-0.0261932877500993,1879.05393452897
-0.0469385393579062,1879.06393452897
-0.06713898518881,1879.07393452897
-0.0867920921415386,1879.08393452897
-0.106017156003695,1879.09393452897
-0.12460562410609,1879.10393452897
-0.142691419749408,1879.11393452897
-0.160529980621186,1879.12393452897
-0.178300009198415,1879.13393452897
-0.196115792260361,1879.14393452897
-0.213977315955987,1879.15393452897
-0.231419278566178,1879.16393452897
-0.248242989290171,1879.17393452897
-0.263690228543777,1879.18393452897
-0.279038809831728,1879.19393452897
-0.294552695487662,1879.20393452897
-0.309973825562462,1879.21393452897
-0.325954753226244,1879.22393452897
-0.341578912078654,1879.23393452897
-0.357002133696103,1879.24393452897
-0.372022433815116,1879.25393452897
-0.386892089831543,1879.26393452897
-0.401953677773026,1879.27393452897
-0.416410714926072,1879.28393452897
-0.430664740419644,1879.29393452897
-0.444902110948304,1879.30393452897
-0.458893152941387,1879.31393452897
-0.472645378695289,1879.32393452897
-0.486451730948914,1879.33393452897
-0.501088111937845,1879.34393452897
-0.516019158348491,1879.35393452897
-0.531556675825963,1879.36393452897
-0.547096497334232,1879.37393452897
-0.562349932146456,1879.38393452897
-0.576104969921151,1879.39393452897
-0.583984013319597,1879.40393452897
-0.580473092345638,1879.41393452897
-0.55873414783617,1879.42393452897
-0.515803896255662,1879.43393452897
-0.451022261720663,1879.44393452897
-0.369166728397143,1879.45393452897
-0.275364920994679,1879.46393452897
-0.175651732390592,1879.47393452897
-0.0762797262253388,1879.48393452897
0.0187464855553843,1879.49393452897
0.104579476563728,1879.50393452897
0.178661772186763,1879.51393452897
0.23931325175293,1879.52393452897
0.285675786557798,1879.53393452897
0.318853214748008,1879.54393452897
0.340324004724835,1879.55393452897
0.351173916379103,1879.56393452897
0.354736191130423,1879.57393452897
0.352607575991647,1879.58393452897
0.347591785632774,1879.59393452897
0.34090464049144,1879.60393452897
0.333692355376595,1879.61393452897
0.327451474746712,1879.62393452897
0.321592203174705,1879.63393452897
0.316263747226432,1879.64393452897
0.311493888186524,1879.65393452897
0.307271574653583,1879.66393452897
0.302780193580512,1879.67393452897
0.297208267548831,1879.68393452897
0.289180648526319,1879.69393452897
0.278083541295065,1879.70393452897
0.263412370116405,1879.71393452897
0.245573016278856,1879.72393452897
0.225597034497151,1879.73393452897
0.204927401179361,1879.74393452897
0.185654924216513,1879.75393452897
0.168636200710735,1879.76393452897
0.155057681496729,1879.77393452897
0.144927884608301,1879.78393452897
0.138071284889675,1879.79393452897
0.134431469280878,1879.80393452897
0.133001987122154,1879.81393452897
0.133047070818927,1879.82393452897
0.13436301538043,1879.83393452897
0.135720907500162,1879.84393452897
0.136297516006753,1879.85393452897
0.135481698337483,1879.86393452897
0.133171204318164,1879.87393452897
0.128907945566632,1879.88393452897
0.122220461495074,1879.89393452897
0.113797796869991,1879.90393452897
0.103400669806848,1879.91393452897
0.0910626772777908,1879.92393452897
0.0770413638425462,1879.93393452897
0.0613857348866351,1879.94393452897
0.0442912707960189,1879.95393452897
0.0266285572144615,1879.96393452897
0.00815516327998606,1879.97393452897
-0.00983437266572521,1879.98393452897
-0.0287597426296803,1879.99393452897
-0.0481504885788732,1880.00393452897
-0.067478994981627,1880.01393452897
-0.0871995369229852,1880.02393452897
-0.106640006442533,1880.03393452897
-0.126002000657316,1880.04393452897
-0.145513648747094,1880.05393452897
-0.164413549369026,1880.06393452897
-0.183120269345641,1880.07393452897
-0.20110387875078,1880.08393452897
-0.218261685752125,1880.09393452897
-0.235044853790948,1880.10393452897
-0.251614287320918,1880.11393452897
-0.267330653390386,1880.12393452897
-0.283004618925961,1880.13393452897
-0.29759849649569,1880.14393452897
-0.312269516027048,1880.15393452897
-0.326274690967766,1880.16393452897
-0.339996914105967,1880.17393452897
-0.353760494921282,1880.18393452897
-0.36720352937297,1880.19393452897
-0.380332748005419,1880.20393452897
-0.393437723293275,1880.21393452897
-0.406209929422489,1880.22393452897
-0.418615109745931,1880.23393452897
-0.431072103547372,1880.24393452897
-0.443074640766553,1880.25393452897
-0.455507758708078,1880.26393452897
-0.468067541161593,1880.27393452897
-0.48119167068562,1880.28393452897
-0.494819837161118,1880.29393452897
-0.508214751047326,1880.30393452897
-0.521730429643932,1880.31393452897
-0.535212206797084,1880.32393452897
-0.549267576767784,1880.33393452897
-0.56403217921446,1880.34393452897
-0.578952250415146,1880.35393452897
-0.593271649923199,1880.36393452897
-0.605024094937957,1880.37393452897
-0.60980096424055,1880.38393452897
-0.60213590446164,1880.39393452897
-0.577612434852893,1880.40393452897
-0.534661683122405,1880.41393452897
-0.474805813791361,1880.42393452897
-0.402284019978086,1880.43393452897
-0.321658329628482,1880.44393452897
-0.238257260412766,1880.45393452897
-0.156553355475704,1880.46393452897
-0.0804925931352612,1880.47393452897
-0.012974631632549,1880.48393452897
0.043806157428485,1880.49393452897
0.0889466923087606,1880.50393452897
0.123307660217721,1880.51393452897
0.147821165057896,1880.52393452897
0.163384950888834,1880.53393452897
0.171520609041558,1880.54393452897
0.173415602255264,1880.55393452897
0.170757230410906,1880.56393452897
0.165336937708032,1880.57393452897
0.158386172984925,1880.58393452897
0.150768414001914,1880.59393452897
0.143949389466097,1880.60393452897
0.137014158041244,1880.61393452897
0.131020950337612,1880.62393452897
0.125745127989796,1880.63393452897
0.119810329132598,1880.64393452897
0.111843548709604,1880.65393452897
0.101259170970826,1880.66393452897
0.0868883677666346,1880.67393452897
0.0707945486493369,1880.68393452897
0.0531647625963874,1880.69393452897
0.0362155031290007,1880.70393452897
0.0211540838473529,1880.71393452897
0.00863520045333142,1880.72393452897
0.000199959889646803,1880.73393452897
-0.00520683550440061,1880.74393452897
-0.00695271068570736,1880.75393452897
-0.00547326712854701,1880.76393452897
-0.00148000457175512,1880.77393452897
0.00447356588248828,1880.78393452897
0.0110982984947139,1880.79393452897
0.0178618434347679,1880.80393452897
0.0240039106767909,1880.81393452897
0.0280350288423286,1880.82393452897
0.0300681933063707,1880.83393452897
0.0296878266611659,1880.84393452897
0.0273153129216591,1880.85393452897
0.0226749912153429,1880.86393452897
0.0156998361622533,1880.87393452897
0.00678379630352498,1880.88393452897
-0.00419277724418874,1880.89393452897
-0.017424770347274,1880.90393452897
-0.0321249640667666,1880.91393452897
-0.0476813833419999,1880.92393452897
-0.0638654400120509,1880.93393452897
-0.080895162955845,1880.94393452897
-0.0977163580042882,1880.95393452897
-0.115168783258805,1880.96393452897
-0.133218557555395,1880.97393452897
-0.151208770559939,1880.98393452897
-0.169597350400084,1880.99393452897
-0.18783195137945,1881.00393452897
-0.205700798811733,1881.01393452897
-0.222685798424884,1881.02393452897
-0.239112066546808,1881.03393452897
-0.255019434007895,1881.04393452897
-0.270673209723979,1881.05393452897
-0.285273147028976,1881.06393452897
-0.29930107842413,1881.07393452897
-0.312231994038239,1881.08393452897
-0.324709330079467,1881.09393452897
-0.336672947786717,1881.10393452897
-0.347873621899441,1881.11393452897
-0.359240040140882,1881.12393452897
-0.369916986420593,1881.13393452897
-0.380763082087185,1881.14393452897
-0.39147934445351,1881.15393452897
-0.402435261936307,1881.16393452897
-0.413644417982104,1881.17393452897
-0.424748248985117,1881.18393452897
-0.437231664645829,1881.19393452897
-0.449831013749759,1881.20393452897
-0.463000456692765,1881.21393452897
-0.476246099301884,1881.22393452897
-0.488704816335769,1881.23393452897
-0.497808866366959,1881.24393452897
-0.500439088615415,1881.25393452897
-0.49193728575536,1881.26393452897
-0.46823544135597,1881.27393452897
-0.426168493495947,1881.28393452897
-0.366900643245758,1881.29393452897
-0.293667762315991,1881.30393452897
-0.210746193515117,1881.31393452897
-0.123605196029621,1881.32393452897
-0.0365147751810461,1881.33393452897
0.0459864487708804,1881.34393452897
0.120622995438336,1881.35393452897
0.185443879793759,1881.36393452897
0.239118087316996,1881.37393452897
0.280575110914387,1881.38393452897
0.310408490670176,1881.39393452897
0.329856376656955,1881.40393452897
0.340492589071546,1881.41393452897
0.345671648838657,1881.42393452897
0.34711628753438,1881.43393452897
0.345949719987694,1881.44393452897
0.344642624964455,1881.45393452897
0.343350819454714,1881.46393452897
0.342067602704222,1881.47393452897
0.340654491439301,1881.48393452897
0.340003179822126,1881.49393452897
0.339886342554425,1881.50393452897
0.339809833473534,1881.51393452897
0.339724277189802,1881.52393452897
0.337992306712641,1881.53393452897
0.333526471250644,1881.54393452897
0.326129010474451,1881.55393452897
0.31632663131655,1881.56393452897
0.304748181886202,1881.57393452897
0.29421547788168,1881.58393452897
0.284361701414285,1881.59393452897
0.277006198809676,1881.60393452897
0.27277515929537,1881.61393452897
0.270347282298114,1881.62393452897
0.270361729585625,1881.63393452897
0.271713477096477,1881.64393452897
0.27408649273826,1881.65393452897
0.277408432430107,1881.66393452897
0.280470372196465,1881.67393452897
0.283286109967677,1881.68393452897
0.283764359825054,1881.69393452897
0.281532795005083,1881.70393452897
0.276293364411634,1881.71393452897
0.267578302970293,1881.72393452897
0.256479221022158,1881.73393452897
0.242227630031259,1881.74393452897
0.225683340269035,1881.75393452897
0.208007024046592,1881.76393452897
0.189304008092095,1881.77393452897
0.170090555231981,1881.78393452897
0.150746598198841,1881.79393452897
0.130731796549218,1881.80393452897
0.110565156836077,1881.81393452897
0.0904171952600556,1881.82393452897
0.0700264383201335,1881.83393452897
0.0497727648646156,1881.84393452897
0.0293536221243794,1881.85393452897
0.00882750979531511,1881.86393452897
-0.011845019840323,1881.87393452897
-0.0324398900568558,1881.88393452897
-0.0531981943256837,1881.89393452897
-0.0727065074572045,1881.90393452897
-0.0923990994216774,1881.91393452897
-0.110711055351115,1881.92393452897
-0.128338485397384,1881.93393452897
-0.14565237870529,1881.94393452897
-0.16174361015145,1881.95393452897
-0.177378477279107,1881.96393452897
-0.192375518898687,1881.97393452897
-0.206712956622621,1881.98393452897
-0.220742438373518,1881.99393452897
-0.234942110846087,1882.00393452897
-0.248451550416179,1882.01393452897
-0.261736184774572,1882.02393452897
-0.274710504314188,1882.03393452897
-0.288055784575792,1882.04393452897
-0.301501786884054,1882.05393452897
-0.314969162303223,1882.06393452897
-0.328685727508007,1882.07393452897
-0.342143091009746,1882.08393452897
-0.355074192399931,1882.09393452897
-0.367118485167973,1882.10393452897
-0.37884406167491,1882.11393452897
-0.390744771579089,1882.12393452897
-0.402200669301435,1882.13393452897
-0.414396799631527,1882.14393452897
-0.426650425177553,1882.15393452897
-0.439352324651232,1882.16393452897
-0.451898265876326,1882.17393452897
-0.464515047323542,1882.18393452897
-0.477102748085702,1882.19393452897
-0.488452812750149,1882.20393452897
-0.495650803498981,1882.21393452897
-0.492972116429506,1882.22393452897
-0.474530367807033,1882.23393452897
-0.436908761058663,1882.24393452897
-0.377847146621978,1882.25393452897
-0.300925198722305,1882.26393452897
-0.209835893343875,1882.27393452897
-0.110705027355823,1882.28393452897
-0.00825256852185035,1882.29393452897
0.0925991793609888,1882.30393452897
0.18668058965075,1882.31393452897
0.271669965178547,1882.32393452897
0.34378044347589,1882.33393452897
0.401190007448163,1882.34393452897
0.443604436924391,1882.35393452897
0.471932656064107,1882.36393452897
0.488409530549465,1882.37393452897
0.496211127293211,1882.38393452897
0.497636897791349,1882.39393452897
0.495702671900485,1882.40393452897
0.492153106338286,1882.41393452897
0.488286483483577,1882.42393452897
0.48508149849809,1882.43393452897
0.482026599752101,1882.44393452897
0.479686544355462,1882.45393452897
0.478296386770092,1882.46393452897
0.477501126025879,1882.47393452897
0.477328274320812,1882.48393452897
0.476437904071465,1882.49393452897
0.473796678717929,1882.50393452897
0.467484563333639,1882.51393452897
0.456846063343714,1882.52393452897
0.442450060354195,1882.53393452897
0.424867321330244,1882.54393452897
0.405785382750489,1882.55393452897
0.387225976909472,1882.56393452897
0.370714933779353,1882.57393452897
0.356829197741824,1882.58393452897
0.345634751878129,1882.59393452897
0.336612544201247,1882.60393452897
0.330301036658232,1882.61393452897
0.326484547293061,1882.62393452897
0.324762146924843,1882.63393452897
0.32448798506475,1882.64393452897
0.32512199146243,1882.65393452897
0.325318274667363,1882.66393452897
0.325017514276318,1882.67393452897
0.323103349995737,1882.68393452897
0.319194146448673,1882.69393452897
0.31343066239438,1882.70393452897
0.305546905582049,1882.71393452897
0.295750282914071,1882.72393452897
0.283949434179108,1882.73393452897
0.27085789409867,1882.74393452897
0.256358435813859,1882.75393452897
0.239784983017235,1882.76393452897
0.221816854612431,1882.77393452897
0.202559729330201,1882.78393452897
0.181999648053073,1882.79393452897
0.161793627726619,1882.80393452897
0.141719330533269,1882.81393452897
0.122118165980612,1882.82393452897
0.102908376518584,1882.83393452897
0.0835583129848585,1882.84393452897
0.0643179013553242,1882.85393452897
0.0446833599244113,1882.86393452897
0.0251492642686115,1882.87393452897
0.00590672578559542,1882.88393452897
-0.0123326115504022,1882.89393452897
-0.0295217495641303,1882.90393452897
-0.0466450900668531,1882.91393452897
-0.0624587396743965,1882.92393452897
-0.0782750487924194,1882.93393452897
-0.093530219463523,1882.94393452897
-0.108255287342087,1882.95393452897
-0.123476749212112,1882.96393452897
-0.139152680393163,1882.97393452897
-0.154680596574967,1882.98393452897
-0.169275202474006,1882.99393452897
-0.183350809254965,1883.00393452897
-0.196433274234372,1883.01393452897
-0.209163782042568,1883.02393452897
-0.222057456656745,1883.03393452897
-0.235932998015612,1883.04393452897
-0.250518671464309,1883.05393452897
-0.265503984393911,1883.06393452897
-0.280664562795919,1883.07393452897
-0.295533614299654,1883.08393452897
-0.309281115908077,1883.09393452897
-0.322791089086193,1883.10393452897
-0.33638276579244,1883.11393452897
-0.349893794243961,1883.12393452897
-0.363302552735775,1883.13393452897
-0.376205948792806,1883.14393452897
-0.389092086276598,1883.15393452897
-0.40114825427275,1883.16393452897
-0.412908105089125,1883.17393452897
-0.425186543127079,1883.18393452897
-0.437202028022028,1883.19393452897
-0.449452376043179,1883.20393452897
-0.461683110096339,1883.21393452897
-0.473892673354518,1883.22393452897
-0.486525412237403,1883.23393452897
-0.499382005784088,1883.24393452897
-0.512743591291191,1883.25393452897
-0.526171552671999,1883.26393452897
-0.539620489377095,1883.27393452897
-0.551749421801316,1883.28393452897
-0.560184468009348,1883.29393452897
-0.559555927008369,1883.30393452897
-0.542861061134274,1883.31393452897
-0.504196493496241,1883.32393452897
-0.441720550606021,1883.33393452897
-0.357984578191671,1883.34393452897
-0.258090688372762,1883.35393452897
-0.148286753223327,1883.36393452897
-0.0345858459306885,1883.37393452897
0.0766110072433829,1883.38393452897
0.181264735589439,1883.39393452897
0.274571383325167,1883.40393452897
0.353724765927282,1883.41393452897
0.41706699909823,1883.42393452897
0.463653690277561,1883.43393452897
0.494721378766593,1883.44393452897
0.511795649941106,1883.45393452897
0.517860692906087,1883.46393452897
0.515404397007638,1883.47393452897
0.508414208893916,1883.48393452897
0.498813605945403,1883.49393452897
0.488586669562311,1883.50393452897
0.478662578683748,1883.51393452897
0.470153244600737,1883.52393452897
0.462414518652583,1883.53393452897
0.456030789723951,1883.54393452897
0.450609000373279,1883.55393452897
0.445777110084192,1883.56393452897
0.440801006030737,1883.57393452897
0.435007412859019,1883.58393452897
0.426823863824771,1883.59393452897
0.415155360647163,1883.60393452897
0.400091071752025,1883.61393452897
0.382068685005177,1883.62393452897
0.362449690362385,1883.63393452897
0.342849723104341,1883.64393452897
0.325514401713998,1883.65393452897
0.310917570306918,1883.66393452897
0.299511062661422,1883.67393452897
0.291905812459984,1883.68393452897
0.288049578793801,1883.69393452897
0.287014636297038,1883.70393452897
0.288657955412041,1883.71393452897
0.291872192284584,1883.72393452897
0.296115000023709,1883.73393452897
0.300110702151617,1883.74393452897
0.303012548988501,1883.75393452897
0.304672140789743,1883.76393452897
0.303781533130157,1883.77393452897
0.300187042254945,1883.78393452897
0.293855120996974,1883.79393452897
0.28538479457762,1883.80393452897
0.274007304113642,1883.81393452897
0.261052605650046,1883.82393452897
0.246634902697803,1883.83393452897
0.230621017898647,1883.84393452897
0.213313436435004,1883.85393452897
0.195179305819884,1883.86393452897
0.175451801841451,1883.87393452897
0.154749120961237,1883.88393452897
0.134013218202389,1883.89393452897
0.112594679078793,1883.90393452897
0.0913667948051504,1883.91393452897
0.0709571927391338,1883.92393452897
0.0508386679183703,1883.93393452897
0.0312349595646677,1883.94393452897
0.0117621168271605,1883.95393452897
-0.00726431054677061,1883.96393452897
-0.0259440493508912,1883.97393452897
-0.0443907093437114,1883.98393452897
-0.0624965553595306,1883.99393452897
-0.0804538545379556,1884.00393452897
-0.0971642490746316,1884.01393452897
-0.113082730336313,1884.02393452897
-0.128556590595104,1884.03393452897
-0.143585284294865,1884.04393452897
-0.157799283664068,1884.05393452897
-0.171406596179138,1884.06393452897
-0.185006311280028,1884.07393452897
-0.198434029825278,1884.08393452897
-0.212006847522375,1884.09393452897
-0.226115530654236,1884.10393452897
-0.239999297078961,1884.11393452897
-0.253852375047248,1884.12393452897
-0.267723272289124,1884.13393452897
-0.280989672849754,1884.14393452897
-0.294297811692023,1884.15393452897
-0.307812996612953,1884.16393452897
-0.321110437871452,1884.17393452897
-0.334209281381491,1884.18393452897
-0.346890650042633,1884.19393452897
-0.358946682713475,1884.20393452897
-0.370356366335253,1884.21393452897
-0.38205614348771,1884.22393452897
-0.394117045384927,1884.23393452897
-0.405664975834118,1884.24393452897
-0.416732346069147,1884.25393452897
-0.429143789769903,1884.26393452897
-0.441377725204423,1884.27393452897
-0.454547905310984,1884.28393452897
-0.468542262954827,1884.29393452897
-0.483238151405033,1884.30393452897
-0.498204596560624,1884.31393452897
-0.510467407845711,1884.32393452897
-0.516856377791745,1884.33393452897
-0.511436274334162,1884.34393452897
-0.487422999573161,1884.35393452897
-0.440646665163058,1884.36393452897
-0.370746181039292,1884.37393452897
-0.281186029627164,1884.38393452897
-0.178210616909401,1884.39393452897
-0.067603209816397,1884.40393452897
0.0440120048699199,1884.41393452897
0.150588666013085,1884.42393452897
0.247759642696312,1884.43393452897
0.330757790861871,1884.44393452897
0.396808803232492,1884.45393452897
0.445225838007202,1884.46393452897
0.476616648879275,1884.47393452897
0.492700498549855,1884.48393452897
0.496148992745741,1884.49393452897
0.490052170531696,1884.50393452897
0.47798738314524,1884.51393452897
0.461768698576237,1884.52393452897
0.44381923541152,1884.53393452897
0.425599671841585,1884.54393452897
0.407759315895435,1884.55393452897
0.390885667856373,1884.56393452897
0.375558300304992,1884.57393452897
0.361699367378032,1884.58393452897
0.34876371925378,1884.59393452897
0.336210130405826,1884.60393452897
0.3233685350361,1884.61393452897
0.308588320690771,1884.62393452897
0.290982928740312,1884.63393452897
0.271108640686319,1884.64393452897
0.249624159495697,1884.65393452897
0.227981776874529,1884.66393452897
0.208622973626878,1884.67393452897
0.193521303862865,1884.68393452897
0.182826043359735,1884.69393452897
0.176817268847955,1884.70393452897
0.175325995770086,1884.71393452897
0.178278667693084,1884.72393452897
0.184951646045479,1884.73393452897
0.194619242708329,1884.74393452897
0.205629891572925,1884.75393452897
0.216257757873774,1884.76393452897
0.225663962994775,1884.77393452897
0.232957271489374,1884.78393452897
0.237945868103342,1884.79393452897
0.239759385103811,1884.80393452897
0.238868048486085,1884.81393452897
0.234660220192671,1884.82393452897
0.226711619861973,1884.83393452897
0.215606684749305,1884.84393452897
0.201397646937595,1884.85393452897
0.185061786070203,1884.86393452897
0.166741836047055,1884.87393452897
0.146721558514681,1884.88393452897
0.125413924901596,1884.89393452897
0.103320193885442,1884.90393452897
0.0814078015509775,1884.91393452897
0.0593522490659002,1884.92393452897
0.0365891283244853,1884.93393452897
0.0136301919405249,1884.94393452897
-0.00902203428423044,1884.95393452897
-0.0314930221326949,1884.96393452897
-0.0531044367923564,1884.97393452897
-0.0732572924717271,1884.98393452897
-0.0932223910362852,1884.99393452897
-0.111408605665041,1885.00393452897
-0.128913666180914,1885.01393452897
-0.145403454186487,1885.02393452897
-0.160649150226019,1885.03393452897
-0.175072621314554,1885.04393452897
-0.188767983817749,1885.05393452897
-0.202505712933095,1885.06393452897
-0.215761525109449,1885.07393452897
-0.228170024295403,1885.08393452897
-0.240849080027365,1885.09393452897
-0.253090718189042,1885.10393452897
-0.264535762852104,1885.11393452897
-0.276145310767711,1885.12393452897
-0.287018565027125,1885.13393452897
-0.297903314170679,1885.14393452897
-0.308750909401897,1885.15393452897
-0.319839020989703,1885.16393452897
-0.331179412132194,1885.17393452897
-0.343056309193155,1885.18393452897
-0.355896246915915,1885.19393452897
-0.36897843329058,1885.20393452897
-0.38328651817663,1885.21393452897
-0.398325392690049,1885.22393452897
-0.412720731407734,1885.23393452897
-0.423130759965908,1885.24393452897
-0.424383475777382,1885.25393452897
-0.409848766910004,1885.26393452897
-0.373434689070826,1885.27393452897
-0.312778531653048,1885.28393452897
-0.229636690177839,1885.29393452897
-0.128574329333183,1885.30393452897
-0.0155479368548335,1885.31393452897
0.101628220179216,1885.32393452897
0.216264843823042,1885.33393452897
0.322213013400587,1885.34393452897
0.415037518507831,1885.35393452897
0.490124371461071,1885.36393452897
0.546749513755046,1885.37393452897
0.585008466697194,1885.38393452897
0.607044298635784,1885.39393452897
0.615212928901502,1885.40393452897
0.613313993229284,1885.41393452897
0.604504641746071,1885.42393452897
0.591187496077109,1885.43393452897
0.577055247999393,1885.44393452897
0.563449309949859,1885.45393452897
0.551821426669933,1885.46393452897
0.541998096674488,1885.47393452897
0.534968487762736,1885.48393452897
0.53026384379645,1885.49393452897
0.527922035862519,1885.50393452897
0.526632836058521,1885.51393452897
0.525276688380579,1885.52393452897
0.52180136689174,1885.53393452897
0.514954799179178,1885.54393452897
0.503929396302468,1885.55393452897
0.488681512808983,1885.56393452897
0.470900987272255,1885.57393452897
0.452256764188338,1885.58393452897
0.434857196398413,1885.59393452897
0.419918377990188,1885.60393452897
0.408090478118257,1885.61393452897
0.399934387318416,1885.62393452897
0.39550113415488,1885.63393452897
0.394048094208607,1885.64393452897
0.395104152640884,1885.65393452897
0.397541626146266,1885.66393452897
0.401185383338313,1885.67393452897
0.403843168069076,1885.68393452897
0.404903225378817,1885.69393452897
0.403220208698426,1885.70393452897
0.398056201578182,1885.71393452897
0.38866793209576,1885.72393452897
0.376574242647688,1885.73393452897
0.36127570815627,1885.74393452897
0.34320454738726,1885.75393452897
0.322969170692793,1885.76393452897
0.301230157751346,1885.77393452897
0.278632002312079,1885.78393452897
0.255867563952866,1885.79393452897
0.232326316732985,1885.80393452897
0.208623095166918,1885.81393452897
0.185000534622887,1885.82393452897
0.160807660910388,1885.83393452897
0.136807607072339,1885.84393452897
0.112379270283289,1885.85393452897
0.0885866700965825,1885.86393452897
0.0658124645957411,1885.87393452897
0.0428957701250128,1885.88393452897
0.0211524204427246,1885.89393452897
-0.000452519117301387,1885.90393452897
-0.0217636210721194,1885.91393452897
-0.042614631705877,1885.92393452897
-0.0629326089414676,1885.93393452897
-0.0824725992995918,1885.94393452897
-0.101360888001952,1885.95393452897
-0.119570528978733,1885.96393452897
-0.137706724437144,1885.97393452897
-0.155652113040517,1885.98393452897
-0.173337076426001,1885.99393452897
-0.190577224711745,1886.00393452897
-0.207026036671164,1886.01393452897
-0.22261072888672,1886.02393452897
-0.237740114907418,1886.03393452897
-0.252680546280208,1886.04393452897
-0.267097824098029,1886.05393452897
-0.281249278911937,1886.06393452897
-0.295335696286713,1886.07393452897
-0.309094857399835,1886.08393452897
-0.322397241675627,1886.09393452897
-0.33536659834093,1886.10393452897
-0.347128216983501,1886.11393452897
-0.358596233645834,1886.12393452897
-0.369659195828309,1886.13393452897
-0.381120290187049,1886.14393452897
-0.392999763188107,1886.15393452897
-0.405009669643111,1886.16393452897
-0.41723536040802,1886.17393452897
-0.429941034376279,1886.18393452897
-0.443236524718396,1886.19393452897
-0.457050713201344,1886.20393452897
-0.470359015128323,1886.21393452897
-0.480511648969986,1886.22393452897
-0.482450879861181,1886.23393452897
-0.468549481260811,1886.24393452897
-0.430811858839588,1886.25393452897
-0.365122990472267,1886.26393452897
-0.2733003449283,1886.27393452897
-0.159830800516696,1886.28393452897
-0.0325128683056135,1886.29393452897
0.0998388010555419,1886.30393452897
0.229784120406927,1886.31393452897
0.349913597418602,1886.32393452897
0.45451089659761,1886.33393452897
0.539565559534129,1886.34393452897
0.603436733790153,1886.35393452897
0.645964721065744,1886.36393452897
0.669588695947778,1886.37393452897
0.677738932175695,1886.38393452897
0.674096879095962,1886.39393452897
0.663392899225339,1886.40393452897
0.648561422845876,1886.41393452897
0.632715824227705,1886.42393452897
0.617328015529102,1886.43393452897
0.603302999580109,1886.44393452897
0.591253464454741,1886.45393452897
0.581404531274569,1886.46393452897
0.573458728196651,1886.47393452897
0.567323424753669,1886.48393452897
0.562307300946872,1886.49393452897
0.557979566417198,1886.50393452897
0.553528813732565,1886.51393452897
0.547126365025914,1886.52393452897
0.537258927835725,1886.53393452897
0.522896897578795,1886.54393452897
0.503363819627963,1886.55393452897
0.480267246112978,1886.56393452897
0.45563787328775,1886.57393452897
0.431923475174065,1886.58393452897
0.410428800744993,1886.59393452897
0.391959601699146,1886.60393452897
0.377651416318578,1886.61393452897
0.367936856618544,1886.62393452897
0.362709839523272,1886.63393452897
0.361684776300318,1886.64393452897
0.363430188248684,1886.65393452897
0.366644077185516,1886.66393452897
0.370302390750836,1886.67393452897
0.372665068870368,1886.68393452897
0.373100931232416,1886.69393452897
0.370733183674375,1886.70393452897
0.36656466235773,1886.71393452897
0.360009214360387,1886.72393452897
0.350610107128299,1886.73393452897
0.337572446859483,1886.74393452897
0.322783289472242,1886.75393452897
0.305465106392573,1886.76393452897
0.286780450746576,1886.77393452897
0.267155335759447,1886.78393452897
0.246203975057543,1886.79393452897
0.224484311096843,1886.80393452897
0.201664837082781,1886.81393452897
0.178946422981975,1886.82393452897
0.155848234640847,1886.83393452897
0.132991071139819,1886.84393452897
0.11037278141116,1886.85393452897
0.0885443924898152,1886.86393452897
0.0671734824302307,1886.87393452897
0.0459274515900079,1886.88393452897
0.0248060963251471,1886.89393452897
0.00295461583616027,1886.90393452897
-0.0190980549154367,1886.91393452897
-0.0404763120433501,1886.92393452897
-0.0612045308854834,1886.93393452897
-0.0811390909991906,1886.94393452897
-0.0996323442991395,1886.95393452897
-0.117213975982804,1886.96393452897
-0.134035050901178,1886.97393452897
-0.14982625837492,1886.98393452897
-0.164588244563906,1886.99393452897
-0.179363589099129,1887.00393452897
-0.193884134273874,1887.01393452897
-0.208572061261688,1887.02393452897
-0.224009404166627,1887.03393452897
-0.239375946648488,1887.04393452897
-0.254206317418779,1887.05393452897
-0.268821711381609,1887.06393452897
-0.283247251849606,1887.07393452897
-0.297618352702176,1887.08393452897
-0.312402253936709,1887.09393452897
-0.327601717082004,1887.10393452897
-0.342795445691433,1887.11393452897
-0.357703933591319,1887.12393452897
-0.372136952825645,1887.13393452897
-0.385913780200185,1887.14393452897
-0.399603168491216,1887.15393452897
-0.412287223146686,1887.16393452897
-0.424652134884777,1887.17393452897
-0.43640622413852,1887.18393452897
-0.448597924872059,1887.19393452897
-0.46090212831517,1887.20393452897
-0.473013081176721,1887.21393452897
-0.484857691236608,1887.22393452897
-0.496584734055011,1887.23393452897
-0.508108204453822,1887.24393452897
-0.519968105842896,1887.25393452897
-0.532296415993622,1887.26393452897
-0.54510920371261,1887.27393452897
-0.556749607621205,1887.28393452897
-0.562752777535947,1887.29393452897
-0.556157966708748,1887.30393452897
-0.528137192115784,1887.31393452897
-0.473321049337861,1887.32393452897
-0.389617915899201,1887.33393452897
-0.280745057701764,1887.34393452897
-0.15350857056609,1887.35393452897
-0.0163260541029662,1887.36393452897
0.121577347270629,1887.37393452897
0.252552925589609,1887.38393452897
0.369754266138991,1887.39393452897
0.468089225718307,1887.40393452897
0.545375091360636,1887.41393452897
0.600869916462117,1887.42393452897
0.636360291808306,1887.43393452897
0.654233020779045,1887.44393452897
0.657863431887713,1887.45393452897
0.651471367586243,1887.46393452897
0.638617417730871,1887.47393452897
0.62237031474418,1887.48393452897
0.605150893649369,1887.49393452897
0.588537609853968,1887.50393452897
0.573414246928384,1887.51393452897
0.559702788557023,1887.52393452897
0.547265669236778,1887.53393452897
0.535649040955881,1887.54393452897
0.524758231727841,1887.55393452897
0.514900362511256,1887.56393452897
0.505460454358817,1887.57393452897
0.496480622739873,1887.58393452897
0.486534298120193,1887.59393452897
0.47359145346356,1887.60393452897
0.457001797936072,1887.61393452897
0.436119382957109,1887.62393452897
0.413008031469542,1887.63393452897
0.389458509755084,1887.64393452897
0.367798502310568,1887.65393452897
0.349856799701526,1887.66393452897
0.336090752712941,1887.67393452897
0.326507233359314,1887.68393452897
0.320537766774362,1887.69393452897
0.31807624850575,1887.70393452897
0.318083054027371,1887.71393452897
0.320173415941082,1887.72393452897
0.323354955833727,1887.73393452897
0.325961014716322,1887.74393452897
0.327649970622689,1887.75393452897
0.327232284027722,1887.76393452897
0.325054971257766,1887.77393452897
0.32018083708826,1887.78393452897
0.312776196454834,1887.79393452897
0.302287145764147,1887.80393452897
0.289009997443573,1887.81393452897
0.274143511590634,1887.82393452897
0.257531583216049,1887.83393452897
0.239595629184987,1887.84393452897
0.219800803148397,1887.85393452897
0.198731652077544,1887.86393452897
0.176708924498807,1887.87393452897
0.15375049187009,1887.88393452897
0.130436602132015,1887.89393452897
0.106927957881434,1887.90393452897
0.0825843632841041,1887.91393452897
0.057882624489733,1887.92393452897
0.0333355742140386,1887.93393452897
0.00897658940285845,1887.94393452897
-0.0142713722061825,1887.95393452897
-0.0368525772521994,1887.96393452897
-0.0584874109034829,1887.97393452897
-0.0798829164055463,1887.98393452897
-0.101011323572952,1887.99393452897
-0.121881577477856,1888.00393452897
-0.142043620829764,1888.01393452897
-0.161264482322758,1888.02393452897
-0.179324511542725,1888.03393452897
-0.19671317549353,1888.04393452897
-0.213002952517551,1888.05393452897
-0.228398214455504,1888.06393452897
-0.243201805235091,1888.07393452897
-0.257803450243297,1888.08393452897
-0.271898663860365,1888.09393452897
-0.285568907446267,1888.10393452897
-0.299326708151857,1888.11393452897
-0.312879775138678,1888.12393452897
-0.325945443215707,1888.13393452897
-0.339363210943791,1888.14393452897
-0.353063877418448,1888.15393452897
-0.366484355544707,1888.16393452897
-0.379936320784887,1888.17393452897
-0.393323020036644,1888.18393452897
-0.40605885733425,1888.19393452897
-0.418412153373288,1888.20393452897
-0.430270939936984,1888.21393452897
-0.441551544134295,1888.22393452897
-0.452702698838028,1888.23393452897
-0.463978636859221,1888.24393452897
-0.475149246838673,1888.25393452897
-0.486741047227427,1888.26393452897
-0.498131292312078,1888.27393452897
-0.510230823700528,1888.28393452897
-0.523638804226437,1888.29393452897
-0.537272184242201,1888.30393452897
-0.550314201670633,1888.31393452897
-0.558959792031055,1888.32393452897
-0.55715595334016,1888.33393452897
-0.53716189597979,1888.34393452897
-0.492552860933512,1888.35393452897
-0.419491336771458,1888.36393452897
-0.319814827152265,1888.37393452897
-0.199762237647875,1888.38393452897
-0.0676179193735529,1888.39393452897
0.0677652582207778,1888.40393452897
0.197898830269783,1888.41393452897
0.316545784336946,1888.42393452897
0.418041107750647,1888.43393452897
0.499543906692185,1888.44393452897
0.560479491060809,1888.45393452897
0.60211920692186,1888.46393452897
0.626906581568147,1888.47393452897
0.637267835184246,1888.48393452897
0.636508007067026,1888.49393452897
0.626981856421591,1888.50393452897
0.611142008184293,1888.51393452897
0.591782009064676,1888.52393452897
0.570221341110076,1888.53393452897
0.548049116313546,1888.54393452897
0.525603652102656,1888.55393452897
0.503453186307828,1888.56393452897
0.482430341456673,1888.57393452897
0.461298487621312,1888.58393452897
0.440733991919658,1888.59393452897
0.419684546179291,1888.60393452897
0.397111651797977,1888.61393452897
0.372392644415634,1888.62393452897
0.344992797922043,1888.63393452897
0.315037311968876,1888.64393452897
0.284789911579176,1888.65393452897
0.256197327755816,1888.66393452897
0.231540619275942,1888.67393452897
0.212001755705891,1888.68393452897
0.19920278731457,1888.69393452897
0.192044188593741,1888.70393452897
0.190397831991943,1888.71393452897
0.193421102088026,1888.72393452897
0.200147916525181,1888.73393452897
0.209316843112404,1888.74393452897
0.21981970130712,1888.75393452897
0.229584903238525,1888.76393452897
0.237146590251603,1888.77393452897
0.242132123040908,1888.78393452897
0.243649149254224,1888.79393452897
0.241486121709583,1888.80393452897
0.235317499193419,1888.81393452897
0.225735745192342,1888.82393452897
0.213319664585496,1888.83393452897
0.198941878751554,1888.84393452897
0.182774543930142,1888.85393452897
0.165205234904635,1888.86393452897
0.146706891933365,1888.87393452897
0.126881320830378,1888.88393452897
0.106097854337884,1888.89393452897
0.0843591986907568,1888.90393452897
0.0616235930158548,1888.91393452897
0.0380472711946786,1888.92393452897
0.014601947709246,1888.93393452897
-0.00870515775130331,1888.94393452897
-0.0319475279293694,1888.95393452897
-0.0546008266729684,1888.96393452897
-0.0768350134637461,1888.97393452897
-0.0990397160477118,1888.98393452897
-0.121296879586103,1888.99393452897
-0.143191445139543,1889.00393452897
-0.164724562912514,1889.01393452897
-0.185024216086306,1889.02393452897
-0.204546763952251,1889.03393452897
-0.222705855765777,1889.04393452897
-0.240002708275676,1889.05393452897
-0.25667762415391,1889.06393452897
-0.272207458075872,1889.07393452897
-0.286902214866705,1889.08393452897
-0.301180026132196,1889.09393452897
-0.31470793322362,1889.10393452897
-0.328275654338585,1889.11393452897
-0.341691569957558,1889.12393452897
-0.354474859774539,1889.13393452897
-0.36753784801337,1889.14393452897
-0.380809585754133,1889.15393452897
-0.393932156427875,1889.16393452897
-0.407167313364607,1889.17393452897
-0.42013499485348,1889.18393452897
-0.43296390258941,1889.19393452897
-0.44553246933971,1889.20393452897
-0.458809528422068,1889.21393452897
-0.472210310476545,1889.22393452897
-0.48602470397055,1889.23393452897
-0.50068567773654,1889.24393452897
-0.51392681451937,1889.25393452897
-0.524601634549044,1889.26393452897
-0.526984380871705,1889.27393452897
-0.513687066633627,1889.28393452897
-0.476256026539293,1889.29393452897
-0.409436113040354,1889.30393452897
-0.313576521796935,1889.31393452897
-0.194219597061525,1889.32393452897
-0.0601764328724486,1889.33393452897
0.0794393660744257,1889.34393452897
0.215367222000434,1889.35393452897
0.341043669608464,1889.36393452897
0.450233523190905,1889.37393452897
0.539083476880539,1889.38393452897
0.606051464739944,1889.39393452897
0.652358551700626,1889.40393452897
0.679393959101562,1889.41393452897
0.691277222903589,1889.42393452897
0.690837610177318,1889.43393452897
0.681699944593742,1889.44393452897
0.666562346685007,1889.45393452897
0.649056967367206,1889.46393452897
0.631198615715352,1889.47393452897
0.613845963963059,1889.48393452897
0.598015358495569,1889.49393452897
0.583945845160261,1889.50393452897
0.571072934262584,1889.51393452897
0.559727957261968,1889.52393452897
0.549142023364939,1889.53393452897
0.539067692431532,1889.54393452897
0.529447799503251,1889.55393452897
0.519083171665099,1889.56393452897
0.506913417030018,1889.57393452897
0.491075540894019,1889.58393452897
0.471598903286379,1889.59393452897
0.448363688016022,1889.60393452897
0.423013847595201,1889.61393452897
0.398197307423142,1889.62393452897
0.374887313861132,1889.63393452897
0.354959027353754,1889.64393452897
0.339403385311763,1889.65393452897
0.328004107428679,1889.66393452897
0.32056311804548,1889.67393452897
0.316653162699301,1889.68393452897
0.316337077746028,1889.69393452897
0.319121568752037,1889.70393452897
0.323397022563973,1889.71393452897
0.32738348133507,1889.72393452897
0.330043381136328,1889.73393452897
0.330070414880514,1889.74393452897
0.327263371027225,1889.75393452897
0.32130334223939,1889.76393452897
0.312055154027206,1889.77393452897
0.300773147224728,1889.78393452897
0.287214017181294,1889.79393452897
0.271814701080516,1889.80393452897
0.254516517684625,1889.81393452897
0.235462684009416,1889.82393452897
0.214774549940695,1889.83393452897
0.193440259538804,1889.84393452897
0.171126977868815,1889.85393452897
0.147733682703978,1889.86393452897
0.123818642157176,1889.87393452897
0.0996330104943609,1889.88393452897
0.0756009270413263,1889.89393452897
0.0516310508298192,1889.90393452897
0.0277458432347848,1889.91393452897
0.00440180044718788,1889.92393452897
-0.0187407104117247,1889.93393452897
-0.0421703132205932,1889.94393452897
-0.0655557069750467,1889.95393452897
-0.0886710658626009,1889.96393452897
-0.110867610492852,1889.97393452897
-0.131596080816405,1889.98393452897
-0.151612302571303,1889.99393452897
-0.170664970122791,1890.00393452897
-0.189033409428951,1890.01393452897
-0.207471528424934,1890.02393452897
-0.22515650821544,1890.03393452897
-0.242742287710087,1890.04393452897
-0.260569273325388,1890.05393452897
-0.277599157602431,1890.06393452897
-0.294370023842647,1890.07393452897
-0.310196113642481,1890.08393452897
-0.325342540916811,1890.09393452897
-0.340202327344308,1890.10393452897
-0.355673245513889,1890.11393452897
-0.371619402324524,1890.12393452897
-0.387341071838917,1890.13393452897
-0.403392009882352,1890.14393452897
-0.419406687520267,1890.15393452897
-0.435390867954851,1890.16393452897
-0.450266639385633,1890.17393452897
-0.464954874974667,1890.18393452897
-0.478441260035355,1890.19393452897
-0.491321696109439,1890.20393452897
-0.503500172480714,1890.21393452897
-0.515571257451628,1890.22393452897
-0.527792105838968,1890.23393452897
-0.540872925283516,1890.24393452897
-0.555005214929287,1890.25393452897
-0.569934369735349,1890.26393452897
-0.584467442135799,1890.27393452897
-0.594448266487381,1890.28393452897
-0.594153245063491,1890.29393452897
-0.574401954189209,1890.30393452897
-0.527592672208829,1890.31393452897
-0.449524374870975,1890.32393452897
-0.342577586364894,1890.33393452897
-0.213828615619295,1890.34393452897
-0.0726026493075307,1890.35393452897
0.0712246900865207,1890.36393452897
0.208600751430054,1890.37393452897
0.33254242405897,1890.38393452897
0.437837204760725,1890.39393452897
0.521934910489669,1890.40393452897
0.584175404878757,1890.41393452897
0.625513507338489,1890.42393452897
0.648533390150081,1890.43393452897
0.656638711166549,1890.44393452897
0.65302979268777,1890.45393452897
0.641474995738571,1890.46393452897
0.625604653817356,1890.47393452897
0.607054419456492,1890.48393452897
0.587856913285352,1890.49393452897
0.569454035992221,1890.50393452897
0.552053727460415,1890.51393452897
0.535127526007752,1890.52393452897
0.519776657101381,1890.53393452897
0.505754943097678,1890.54393452897
0.492883930628473,1890.55393452897
0.481010257183966,1890.56393452897
0.469519873822337,1890.57393452897
0.457996234102418,1890.58393452897
0.444236426631472,1890.59393452897
0.426767206467192,1890.60393452897
0.405217725045228,1890.61393452897
0.380425622603255,1890.62393452897
0.353846550509731,1890.63393452897
0.327990815468123,1890.64393452897
0.304519066914645,1890.65393452897
0.285997060755584,1890.66393452897
0.272617832213117,1890.67393452897
0.264435835061676,1890.68393452897
0.260887747503293,1890.69393452897
0.260912019128359,1890.70393452897
0.264313612162931,1890.71393452897
0.269696469355231,1890.72393452897
0.275964209564516,1890.73393452897
0.282365135719529,1890.74393452897
0.285877972187343,1890.75393452897
0.287070067689688,1890.76393452897
0.284760839003169,1890.77393452897
0.279487940878141,1890.78393452897
0.271617363992024,1890.79393452897
0.26101977809677,1890.80393452897
0.24813574377587,1890.81393452897
0.232385920678623,1890.82393452897
0.214358068602364,1890.83393452897
0.19482534379547,1890.84393452897
0.173839003674902,1890.85393452897
0.152432884995177,1890.86393452897
0.129579031331444,1890.87393452897
0.106145136475826,1890.88393452897
0.0821304112771691,1890.89393452897
0.0578245393175552,1890.90393452897
0.0332385509667236,1890.91393452897
0.00958025918088165,1890.92393452897
-0.0142178453807435,1890.93393452897
-0.0381882210776655,1890.94393452897
-0.0623860778541742,1890.95393452897
-0.0864060694900548,1890.96393452897
-0.110075515535546,1890.97393452897
-0.132646855870615,1890.98393452897
-0.153601414711849,1890.99393452897
-0.17341521423811,1891.00393452897
-0.192325985413674,1891.01393452897
-0.211204665679806,1891.02393452897
-0.229234195013228,1891.03393452897
-0.246868704564151,1891.04393452897
-0.264167512188555,1891.05393452897
-0.280892213556093,1891.06393452897
-0.297736273688838,1891.07393452897
-0.313642023794293,1891.08393452897
-0.329561407021973,1891.09393452897
-0.345690923917867,1891.10393452897
-0.360940831135136,1891.11393452897
-0.376344279838478,1891.12393452897
-0.391208823331431,1891.13393452897
-0.405368962383674,1891.14393452897
-0.418696807603022,1891.15393452897
-0.431499974287683,1891.16393452897
-0.444187686937784,1891.17393452897
-0.45688114862448,1891.18393452897
-0.469658457704886,1891.19393452897
-0.483256497832499,1891.20393452897
-0.497868434873179,1891.21393452897
-0.513535851232712,1891.22393452897
-0.529446369402831,1891.23393452897
-0.545646197977606,1891.24393452897
-0.561071943102489,1891.25393452897
-0.574191987584676,1891.26393452897
-0.580876728108452,1891.27393452897
-0.573782035479652,1891.28393452897
-0.5446271619163,1891.29393452897
-0.486717465533222,1891.30393452897
-0.398913912304291,1891.31393452897
-0.286124386169911,1891.32393452897
-0.156656195312054,1891.33393452897
-0.0203259900585177,1891.34393452897
0.113134334789647,1891.35393452897
0.236459959859577,1891.36393452897
0.343957770487078,1891.37393452897
0.43243971431675,1891.38393452897
0.500198059573965,1891.39393452897
0.547801979368823,1891.40393452897
0.576837302396183,1891.41393452897
0.589757794849866,1891.42393452897
0.589728086940697,1891.43393452897
0.579217155029466,1891.44393452897
0.561498446671992,1891.45393452897
0.539499901109102,1891.46393452897
0.515447338990005,1891.47393452897
0.49096738888176,1891.48393452897
0.467015761347024,1891.49393452897
0.44414858369462,1891.50393452897
0.423792925886184,1891.51393452897
0.404921635448692,1891.52393452897
0.388029714732938,1891.53393452897
0.371786034596187,1891.54393452897
0.355728637100925,1891.55393452897
0.338196887961098,1891.56393452897
0.318090024431323,1891.57393452897
0.294712087016848,1891.58393452897
0.268961842747233,1891.59393452897
0.24199396753554,1891.60393452897
0.215309399839306,1891.61393452897
0.19210905363721,1891.62393452897
0.173930412704996,1891.63393452897
0.16137512196457,1891.64393452897
0.154577319090886,1891.65393452897
0.153447558048964,1891.66393452897
0.157622373897884,1891.67393452897
0.165675566430803,1891.68393452897
0.176585206152693,1891.69393452897
0.18908685861353,1891.70393452897
0.201933278846873,1891.71393452897
0.213268264898012,1891.72393452897
0.221936711649831,1891.73393452897
0.226970590157511,1891.74393452897
0.227664898772667,1891.75393452897
0.224161600370457,1891.76393452897
0.216970493899619,1891.77393452897
0.207300365756726,1891.78393452897
0.194553415750706,1891.79393452897
0.180120944442907,1891.80393452897
0.163316527021881,1891.81393452897
0.144260897687199,1891.82393452897
0.123733400081682,1891.83393452897
0.101743708516774,1891.84393452897
0.0786989746193322,1891.85393452897
0.0546812192792291,1891.86393452897
0.0305001309473436,1891.87393452897
0.0061474241333594,1891.88393452897
-0.0175079329418444,1891.89393452897
-0.0409479238115313,1891.90393452897
-0.0631060520229246,1891.91393452897
-0.085152445642897,1891.92393452897
-0.107143410761448,1891.93393452897
-0.128147292728014,1891.94393452897
-0.149062705190401,1891.95393452897
-0.169495722065298,1891.96393452897
-0.189461881526531,1891.97393452897
-0.208623248784557,1891.98393452897
-0.226843327862456,1891.99393452897
-0.243754888680895,1892.00393452897
-0.259161493831622,1892.01393452897
-0.273178211469476,1892.02393452897
-0.287063970453225,1892.03393452897
-0.300470268832635,1892.04393452897
-0.313731812801312,1892.05393452897
-0.32664209363543,1892.06393452897
-0.33930407505094,1892.07393452897
-0.352318947074896,1892.08393452897
-0.365427211923052,1892.09393452897
-0.378554623783302,1892.10393452897
-0.392252724487872,1892.11393452897
-0.405740244496351,1892.12393452897
-0.41954624431178,1892.13393452897
-0.434189187686447,1892.14393452897
-0.449194140100241,1892.15393452897
-0.464285975917409,1892.16393452897
-0.476956608614406,1892.17393452897
-0.481969491092166,1892.18393452897
-0.471089342375148,1892.19393452897
-0.436510852486526,1892.20393452897
-0.371952046872752,1892.21393452897
-0.278578869566458,1892.22393452897
-0.161526260744997,1892.23393452897
-0.0304890835104952,1892.24393452897
0.104550826811567,1892.25393452897
0.234400385629917,1892.26393452897
0.351608474042062,1892.27393452897
0.452119477045661,1892.28393452897
0.532505942005573,1892.29393452897
0.592114142571676,1892.30393452897
0.632433840311602,1892.31393452897
0.655536854764558,1892.32393452897
0.663463739166822,1892.33393452897
0.659976840712666,1892.34393452897
0.648458791241152,1892.35393452897
0.632069334562237,1892.36393452897
0.612723691659796,1892.37393452897
0.593257290207791,1892.38393452897
0.573826213477835,1892.39393452897
0.556334880524906,1892.40393452897
0.53992493967386,1892.41393452897
0.525236840205994,1892.42393452897
0.511980745268409,1892.43393452897
0.499442404062874,1892.44393452897
0.487715956059218,1892.45393452897
0.475462684720701,1892.46393452897
0.461230575273106,1892.47393452897
0.443999193407343,1892.48393452897
0.422774532223941,1892.49393452897
0.398316373954734,1892.50393452897
0.371387730427826,1892.51393452897
0.344363495794287,1892.52393452897
0.31994453247034,1892.53393452897
0.298836114072503,1892.54393452897
0.282108566693131,1892.55393452897
0.270717555739602,1892.56393452897
0.263533858498743,1892.57393452897
0.26083144380273,1892.58393452897
0.26193681104603,1892.59393452897
0.265443014730934,1892.60393452897
0.270948204932659,1892.61393452897
0.276903330806694,1892.62393452897
0.281857679874844,1892.63393452897
0.284594114477075,1892.64393452897
0.28447232812723,1892.65393452897
0.281011377667116,1892.66393452897
0.274463325049625,1892.67393452897
0.26467750610238,1892.68393452897
0.252509999000489,1892.69393452897
0.237660673926127,1892.70393452897
0.220819446203275,1892.71393452897
0.202251252895447,1892.72393452897
0.182711915669981,1892.73393452897
0.161907298170187,1892.74393452897
0.140311730785646,1892.75393452897
0.118343792764995,1892.76393452897
0.0956360260437972,1892.77393452897
0.0728841573528786,1892.78393452897
0.0496184747254227,1892.79393452897
0.0264924204579049,1892.80393452897
0.00308229053392999,1892.81393452897
-0.0194968826372468,1892.82393452897
-0.0422438028335979,1892.83393452897
-0.0647283828091067,1892.84393452897
-0.0873077632237468,1892.85393452897
-0.109850264754379,1892.86393452897
-0.131863285001147,1892.87393452897
-0.153953760587279,1892.88393452897
-0.175269291535339,1892.89393452897
-0.195688192156224,1892.90393452897
-0.214889039596441,1892.91393452897
-0.232842504080614,1892.92393452897
-0.250347744900354,1892.93393452897
-0.267228546056665,1892.94393452897
-0.284000580685394,1892.95393452897
-0.300896165342335,1892.96393452897
-0.317181162330005,1892.97393452897
-0.333367558940223,1892.98393452897
-0.349280753953119,1892.99393452897
-0.364916683615321,1893.00393452897
-0.380506225250202,1893.01393452897
-0.396257243716592,1893.02393452897
-0.411766843502109,1893.03393452897
-0.427514469992989,1893.04393452897
-0.443286015393396,1893.05393452897
-0.458099792533705,1893.06393452897
-0.471797106315995,1893.07393452897
-0.485367270052182,1893.08393452897
-0.49867561097256,1893.09393452897
-0.511587160441809,1893.10393452897
-0.52424481600867,1893.11393452897
-0.536364166557644,1893.12393452897
-0.548605550457866,1893.13393452897
-0.560887403236168,1893.14393452897
-0.573315375013816,1893.15393452897
-0.586475851686626,1893.16393452897
-0.600218882876806,1893.17393452897
-0.612929956128284,1893.18393452897
-0.6211771295921,1893.19393452897
-0.617858141488254,1893.20393452897
-0.594444786003997,1893.21393452897
-0.542389907014513,1893.22393452897
-0.457602362335679,1893.23393452897
-0.343509464973292,1893.24393452897
-0.208524247359155,1893.25393452897
-0.0627316588845541,1893.26393452897
0.0827155712473677,1893.27393452897
0.219295808540847,1893.28393452897
0.340558911624578,1893.29393452897
0.441906385653611,1893.30393452897
0.522277277829743,1893.31393452897
0.58111603246346,1893.32393452897
0.620481351498118,1893.33393452897
0.643243580246803,1893.34393452897
0.651619215827407,1893.35393452897
0.649109920366722,1893.36393452897
0.639193206156971,1893.37393452897
0.624131911736459,1893.38393452897
0.606168068160135,1893.39393452897
0.58770413923111,1893.40393452897
0.570390861436617,1893.41393452897
0.554758159382409,1893.42393452897
0.541189514378407,1893.43393452897
0.529031961695674,1893.44393452897
0.518624618613326,1893.45393452897
0.509145596430531,1893.46393452897
0.500312813253106,1893.47393452897
0.490655907797641,1893.48393452897
0.479534380182954,1893.49393452897
0.465270443553007,1893.50393452897
0.4465701611872,1893.51393452897
0.423900311062458,1893.52393452897
0.398743619769073,1893.53393452897
0.37249327590672,1893.54393452897
0.347102137739152,1893.55393452897
0.324388412421247,1893.56393452897
0.304794673444639,1893.57393452897
0.29023366495018,1893.58393452897
0.280334396141235,1893.59393452897
0.275554256671115,1893.60393452897
0.275206501639332,1893.61393452897
0.277862450956485,1893.62393452897
0.283024488852501,1893.63393452897
0.288695553894014,1893.64393452897
0.294310271960134,1893.65393452897
0.297753805098778,1893.66393452897
0.298537322619192,1893.67393452897
0.295998587737591,1893.68393452897
0.290468181070572,1893.69393452897
0.281699283428892,1893.70393452897
0.270340770416552,1893.71393452897
0.256951645073345,1893.72393452897
0.241206500995308,1893.73393452897
0.22337886561549,1893.74393452897
0.203653820551663,1893.75393452897
0.183283261449121,1893.76393452897
0.16201224700604,1893.77393452897
0.140636761027831,1893.78393452897
0.118964291915545,1893.79393452897
0.0975328002072853,1893.80393452897
0.0759859188621266,1893.81393452897
0.0531733802047336,1893.82393452897
0.0284982167709685,1893.83393452897
0.00334168839034966,1893.84393452897
-0.0219997578340188,1893.85393452897
-0.0464035092230507,1893.86393452897
-0.0686377201566747,1893.87393452897
-0.0888143323092522,1893.88393452897
-0.108230225243721,1893.89393452897
-0.129023500841419,1893.90393452897
-0.150175656165878,1893.91393452897
-0.171216305535915,1893.92393452897
-0.19154861212288,1893.93393452897
-0.20967798621561,1893.94393452897
-0.226070249488973,1893.95393452897
-0.242318488123336,1893.96393452897
-0.259424191109564,1893.97393452897
-0.276811612128345,1893.98393452897
-0.294298227333199,1893.99393452897
-0.311305268100683,1894.00393452897
-0.327112653565026,1894.01393452897
-0.341498140106175,1894.02393452897
-0.356545636142341,1894.03393452897
-0.372512045637512,1894.04393452897
-0.389069828320348,1894.05393452897
-0.405266593560557,1894.06393452897
-0.421088893131579,1894.07393452897
-0.435687547211659,1894.08393452897
-0.448961377641764,1894.09393452897
-0.462316335255397,1894.10393452897
-0.476549395993115,1894.11393452897
-0.491487372461596,1894.12393452897
-0.506257766600822,1894.13393452897
-0.519882222987743,1894.14393452897
-0.531889729781794,1894.15393452897
-0.542111684442216,1894.16393452897
-0.553303360853689,1894.17393452897
-0.565544500935798,1894.18393452897
-0.579060503631391,1894.19393452897
-0.593987583962685,1894.20393452897
-0.608807915938133,1894.21393452897
-0.621736605373664,1894.22393452897
-0.631632743942266,1894.23393452897
-0.634005341259377,1894.24393452897
-0.622371716999158,1894.25393452897
-0.586927786657613,1894.26393452897
-0.519992355642303,1894.27393452897
-0.421905082850866,1894.28393452897
-0.296925001001554,1894.29393452897
-0.155458901393425,1894.30393452897
-0.00934079671117909,1894.31393452897
0.130411753892957,1894.32393452897
0.257987206403041,1894.33393452897
0.367733424658814,1894.34393452897
0.457181387126999,1894.35393452897
0.527050308486596,1894.36393452897
0.577120619714931,1894.37393452897
0.609516462482766,1894.38393452897
0.625443789955678,1894.39393452897
0.628648251611585,1894.40393452897
0.621342714826232,1894.41393452897
0.608417221866985,1894.42393452897
0.592466064781968,1894.43393452897
0.575049113815556,1894.44393452897
0.557010661047947,1894.45393452897
0.538333896985857,1894.46393452897
0.519741063700832,1894.47393452897
0.502504608699558,1894.48393452897
0.487521093592092,1894.49393452897
0.474610040792162,1894.50393452897
0.463743135336174,1894.51393452897
0.452880207869869,1894.52393452897
0.440260628921003,1894.53393452897
0.425018602205372,1894.54393452897
0.406286181646338,1894.55393452897
0.383745115386724,1894.56393452897
0.359805388182141,1894.57393452897
0.335020839174055,1894.58393452897
0.310236298356822,1894.59393452897
0.287317579916971,1894.60393452897
0.267289670514208,1894.61393452897
0.251451031424516,1894.62393452897
0.240451603530559,1894.63393452897
0.235733549726645,1894.64393452897
0.236113138628475,1894.65393452897
0.239488522709986,1894.66393452897
0.24450415107051,1894.67393452897
0.249457247047012,1894.68393452897
0.253825816984247,1894.69393452897
0.257458383867821,1894.70393452897
0.260351801367785,1894.71393452897
0.26080588547385,1894.72393452897
0.258367522452979,1894.73393452897
0.251571057235664,1894.74393452897
0.241031969051055,1894.75393452897
0.227325927810144,1894.76393452897
0.211743527274465,1894.77393452897
0.195822416164021,1894.78393452897
0.179496315992043,1894.79393452897
0.161444645257304,1894.80393452897
0.140521707925947,1894.81393452897
0.118178011517914,1894.82393452897
0.0948371180137483,1894.83393452897
0.0704575471520733,1894.84393452897
0.0466476284684114,1894.85393452897
0.0232106626921296,1894.86393452897
-0.000326019772285102,1894.87393452897
-0.0247131590437176,1894.88393452897
-0.0493571470645336,1894.89393452897
-0.0732730010787563,1894.90393452897
-0.0968176867522241,1894.91393452897
-0.118146295933604,1894.92393452897
-0.138052089971909,1894.93393452897
-0.157484936838493,1894.94393452897
-0.177412849080684,1894.95393452897
-0.197825796476424,1894.96393452897
-0.217727302226639,1894.97393452897
-0.236891608674202,1894.98393452897
-0.253990331542855,1894.99393452897
-0.269841698714858,1895.00393452897
-0.285117079925021,1895.01393452897
-0.301804792566217,1895.02393452897
-0.318572552533871,1895.03393452897
-0.33547732739484,1895.04393452897
-0.352376960623958,1895.05393452897
-0.36767532287853,1895.06393452897
-0.382297737811982,1895.07393452897
-0.396799691725008,1895.08393452897
-0.413031095631298,1895.09393452897
-0.430206325620607,1895.10393452897
-0.447399908838972,1895.11393452897
-0.464235537780722,1895.12393452897
-0.479037149947694,1895.13393452897
-0.492413369146546,1895.14393452897
-0.505964972150351,1895.15393452897
-0.518961261206299,1895.16393452897
-0.532109510741741,1895.17393452897
-0.545270685648032,1895.18393452897
-0.55830012841495,1895.19393452897
-0.569904253014523,1895.20393452897
-0.580912411436881,1895.21393452897
-0.592175364168147,1895.22393452897
-0.604848673212911,1895.23393452897
-0.619139686816545,1895.24393452897
-0.634589236242044,1895.25393452897
-0.650738876403295,1895.26393452897
-0.6651117982023,1895.27393452897
-0.675983751016038,1895.28393452897
-0.679153419738204,1895.29393452897
-0.666125589473974,1895.30393452897
-0.62794401801526,1895.31393452897
-0.558377797699859,1895.32393452897
-0.457286966549369,1895.33393452897
-0.331257740126833,1895.34393452897
-0.191206395821174,1895.35393452897
-0.0489442351642699,1895.36393452897
0.0853458472565883,1895.37393452897
0.205274059006013,1895.38393452897
0.307960327920165,1895.39393452897
0.391916740470248,1895.40393452897
0.457126263843531,1895.41393452897
0.504215618099358,1895.42393452897
0.533491067218552,1895.43393452897
0.546426373138836,1895.44393452897
0.546442025733911,1895.45393452897
0.536363032134568,1895.46393452897
0.520429693760707,1895.47393452897
0.501011927451059,1895.48393452897
0.4802744399465,1895.49393452897
0.458290288165507,1895.50393452897
0.435675272934314,1895.51393452897
0.413362519715325,1895.52393452897
0.391781875215906,1895.53393452897
0.372168801576272,1895.54393452897
0.355014891023936,1895.55393452897
0.339706441103242,1895.56393452897
0.323768235775116,1895.57393452897
0.304965783344595,1895.58393452897
0.283027412587297,1895.59393452897
0.257879465085131,1895.60393452897
0.230315364376833,1895.61393452897
0.203221006261452,1895.62393452897
0.177867395606713,1895.63393452897
0.155356327449875,1895.64393452897
0.136325394471833,1895.65393452897
0.121920803884555,1895.66393452897
0.112905577239727,1895.67393452897
0.109524143223232,1895.68393452897
0.113122770077642,1895.69393452897
0.121412714858145,1895.70393452897
0.132647062643054,1895.71393452897
0.144143210500036,1895.72393452897
0.154975904727851,1895.73393452897
0.163892691134969,1895.74393452897
0.171026183688026,1895.75393452897
0.176444739133856,1895.76393452897
0.179612490169094,1895.77393452897
0.178759424736882,1895.78393452897
0.172968060948642,1895.79393452897
0.16333296010227,1895.80393452897
0.150274721550232,1895.81393452897
0.135005170814339,1895.82393452897
0.119247735178628,1895.83393452897
0.102825226559266,1895.84393452897
0.0849526367699125,1895.85393452897
0.0648666843478215,1895.86393452897
0.0427540267851518,1895.87393452897
0.018623622946748,1895.88393452897
-0.0058516289077022,1895.89393452897
-0.0311371600224294,1895.90393452897
-0.0559080561285985,1895.91393452897
-0.0811360430020458,1895.92393452897
-0.107398452541742,1895.93393452897
-0.133397049574427,1895.94393452897
-0.15827947845764,1895.95393452897
-0.182094818909492,1895.96393452897
-0.203196560595419,1895.97393452897
-0.222962479957113,1895.98393452897
-0.242500189376784,1895.99393452897
-0.262119030257397,1896.00393452897
-0.28132402395313,1896.01393452897
-0.29976235091317,1896.02393452897
-0.31694014586858,1896.03393452897
-0.331958694482471,1896.04393452897
-0.345837060519146,1896.05393452897
-0.359026049785654,1896.06393452897
-0.372766603871579,1896.07393452897
-0.387106966511239,1896.08393452897
-0.401374353198784,1896.09393452897
-0.415547148467056,1896.10393452897
-0.428232862514628,1896.11393452897
-0.440334062370304,1896.12393452897
-0.452951120849637,1896.13393452897
-0.466568796942643,1896.14393452897
-0.480313344808868,1896.15393452897
-0.49445297608906,1896.16393452897
-0.507331765967679,1896.17393452897
-0.519176825240431,1896.18393452897
-0.530235828213451,1896.19393452897
-0.541721055932247,1896.20393452897
-0.554702166138103,1896.21393452897
-0.569094178336675,1896.22393452897
-0.584648515051458,1896.23393452897
-0.599617161118924,1896.24393452897
-0.610128179950196,1896.25393452897
-0.612149418000102,1896.26393452897
-0.597882277874409,1896.27393452897
-0.5586982858774,1896.28393452897
-0.490225075912515,1896.29393452897
-0.392828803578951,1896.30393452897
-0.2731829242505,1896.31393452897
-0.1392910840972,1896.32393452897
-0.00333864123161469,1896.33393452897
0.125095476469953,1896.34393452897
0.239773163065908,1896.35393452897
0.337242199514031,1896.36393452897
0.415794978530512,1896.37393452897
0.475765091451074,1896.38393452897
0.519416310215196,1896.39393452897
0.546828123413954,1896.40393452897
0.559027911129257,1896.41393452897
0.557879198935078,1896.42393452897
0.546592209179427,1896.43393452897
0.528161137039849,1896.44393452897
0.50623197520463,1896.45393452897
0.48299124033359,1896.46393452897
0.460074471460475,1896.47393452897
0.437111956062396,1896.48393452897
0.414234066691075,1896.49393452897
0.391904808002109,1896.50393452897
0.370758045013226,1896.51393452897
0.350760994339701,1896.52393452897
0.332359108953724,1896.53393452897
0.313476299244536,1896.54393452897
0.291468977410679,1896.55393452897
0.266109324735297,1896.56393452897
0.236832559436528,1896.57393452897
0.205866489243434,1896.58393452897
0.17597847494866,1896.59393452897
0.150004727361898,1896.60393452897
0.129526130974265,1896.61393452897
0.113958731161533,1896.62393452897
0.1039810120088,1896.63393452897
0.0992335128595612,1896.64393452897
0.0994074146464718,1896.65393452897
0.104457400409286,1896.66393452897
0.114032368895491,1896.67393452897
0.125460971601466,1896.68393452897
0.13683178045654,1896.69393452897
0.14643709302524,1896.70393452897
0.153350006252265,1896.71393452897
0.157950094963815,1896.72393452897
0.158968688090086,1896.73393452897
0.156504730435001,1896.74393452897
0.150873360992499,1896.75393452897
0.141852229865719,1896.76393452897
0.13015040428391,1896.77393452897
0.116368324775256,1896.78393452897
0.100963828735033,1896.79393452897
0.0861287112256807,1896.80393452897
0.0721416960317207,1896.81393452897
0.0549643172066065,1896.82393452897
0.0338733962873195,1896.83393452897
0.00934503485279406,1896.84393452897
-0.0160383534639715,1896.85393452897
-0.0411104502722076,1896.86393452897
-0.0633852917294349,1896.87393452897
-0.0830023037431618,1896.88393452897
-0.102809686512477,1896.89393452897
-0.1246608685657,1896.90393452897
-0.14875879177675,1896.91393452897
-0.173271411131026,1896.92393452897
-0.19845069062481,1896.93393452897
-0.220368958467186,1896.94393452897
-0.239534725451129,1896.95393452897
-0.258908207722847,1896.96393452897
-0.278637297167685,1896.97393452897
-0.299083056600538,1896.98393452897
-0.31977980155389,1896.99393452897
-0.340006046778154,1897.00393452897
-0.356957472437801,1897.01393452897
-0.370878088502896,1897.02393452897
-0.385789023027079,1897.03393452897
-0.402063438568804,1897.04393452897
-0.419798941741598,1897.05393452897
-0.437337789763569,1897.06393452897
-0.454036297362022,1897.07393452897
-0.467772391302716,1897.08393452897
-0.478491867211047,1897.09393452897
-0.489626112739886,1897.10393452897
-0.502907270292784,1897.11393452897
-0.518271174413301,1897.12393452897
-0.533829696100168,1897.13393452897
-0.549437953574645,1897.14393452897
-0.562624571503387,1897.15393452897
-0.573242849538284,1897.16393452897
-0.584647777333707,1897.17393452897
-0.597742142236715,1897.18393452897
-0.609411606037529,1897.19393452897
-0.61322600926746,1897.20393452897
-0.598931647913935,1897.21393452897
-0.555114832090776,1897.22393452897
-0.47641738518103,1897.23393452897
-0.367653000664389,1897.24393452897
-0.237423135348384,1897.25393452897
-0.0961929770553005,1897.26393452897
0.045489704749396,1897.27393452897
0.180019211789254,1897.28393452897
0.303374032312335,1897.29393452897
0.410592701614642,1897.30393452897
0.498338295921588,1897.31393452897
0.564215278969549,1897.32393452897
0.609339612270738,1897.33393452897
0.6370548285557,1897.34393452897
0.650623099310566,1897.35393452897
0.655443694386032,1897.36393452897
0.653302465000705,1897.37393452897
0.644510344816074,1897.38393452897
0.629964679529856,1897.39393452897
0.612470367573453,1897.40393452897
0.59408950223168,1897.41393452897
0.576981185266834,1897.42393452897
0.563813254228369,1897.43393452897
0.554392306857832,1897.44393452897
0.545268091522625,1897.45393452897
0.534646140769359,1897.46393452897
0.522387887093012,1897.47393452897
0.509081180832102,1897.48393452897
0.494586584585343,1897.49393452897
0.480810247842751,1897.50393452897
0.465592319288689,1897.51393452897
0.446163318234541,1897.52393452897
0.421197886299538,1897.53393452897
0.392673270955688,1897.54393452897
0.364268547861278,1897.55393452897
0.337995531243074,1897.56393452897
0.318119929319486,1897.57393452897
0.304381623408695,1897.58393452897
0.294042016569536,1897.59393452897
0.286735851236272,1897.60393452897
0.280938418571359,1897.61393452897
0.278822868198238,1897.62393452897
0.279549612595014,1897.63393452897
0.284192461125358,1897.64393452897
0.29223434461558,1897.65393452897
0.298719455129491,1897.66393452897
0.300787654206022,1897.67393452897
0.298734758413976,1897.68393452897
0.293158076285161,1897.69393452897
0.284577787978473,1897.70393452897
0.275960751839597,1897.71393452897
0.267042091645614,1897.72393452897
0.255592395065497,1897.73393452897
0.239411654000028,1897.74393452897
0.219967324051992,1897.75393452897
0.198106366013804,1897.76393452897
0.175344150398894,1897.77393452897
0.152036110763781,1897.78393452897
0.12873481085422,1897.79393452897
0.107511943498342,1897.80393452897
0.0878263102569566,1897.81393452897
0.0667263707639286,1897.82393452897
0.0427098370892282,1897.83393452897
0.0169738926242077,1897.84393452897
-0.00881053759669126,1897.85393452897
-0.0341331885278575,1897.86393452897
-0.0565010000350306,1897.87393452897
-0.0763112005648293,1897.88393452897
-0.0956386650397447,1897.89393452897
-0.116078804881397,1897.90393452897
-0.138007248299251,1897.91393452897
-0.160219030415376,1897.92393452897
-0.181740037384138,1897.93393452897
-0.200346821677927,1897.94393452897
-0.216698580487144,1897.95393452897
-0.23308078786816,1897.96393452897
-0.250941690913858,1897.97393452897
-0.270272951131725,1897.98393452897
-0.289632424678832,1897.99393452897
-0.308598367685074,1898.00393452897
-0.323891130809585,1898.01393452897
-0.335888770144876,1898.02393452897
-0.348655227828524,1898.03393452897
-0.363017468512738,1898.04393452897
-0.379438029217682,1898.05393452897
-0.39575866224948,1898.06393452897
-0.411688183466023,1898.07393452897
-0.424890340124043,1898.08393452897
-0.435307981451399,1898.09393452897
-0.446096705981585,1898.10393452897
-0.458620207413879,1898.11393452897
-0.473454636672126,1898.12393452897
-0.489881751927606,1898.13393452897
-0.507148925178452,1898.14393452897
-0.521324945719249,1898.15393452897
-0.530777275937757,1898.16393452897
-0.532229656283125,1898.17393452897
-0.519613289395379,1898.18393452897
-0.483635691733425,1898.19393452897
-0.41735052745782,1898.20393452897
-0.320661973931796,1898.21393452897
-0.197647654868768,1898.22393452897
-0.0586238073867607,1898.23393452897
0.0832904343958068,1898.24393452897
0.216824959467818,1898.25393452897
0.336556085411311,1898.26393452897
0.438776893038768,1898.27393452897
0.522329030075595,1898.28393452897
0.589199578639174,1898.29393452897
0.639531460752353,1898.30393452897
0.672439000083565,1898.31393452897
0.688505370538446,1898.32393452897
0.69088179234929,1898.33393452897
0.683915783901709,1898.34393452897
0.670719613337994,1898.35393452897
0.656493895367866,1898.36393452897
0.642875687683503,1898.37393452897
0.628663860261147,1898.38393452897
0.612166252666595,1898.39393452897
0.594873040263124,1898.40393452897
0.57823903567528,1898.41393452897
0.562089976246321,1898.42393452897
0.54938392305281,1898.43393452897
0.538535070943839,1898.44393452897
0.527281851081127,1898.45393452897
0.513034890847881,1898.46393452897
0.495260584147846,1898.47393452897
0.473791964165406,1898.48393452897
0.449219021875045,1898.49393452897
0.423983530281106,1898.50393452897
0.399914639468547,1898.51393452897
0.376027224680222,1898.52393452897
0.352062734276705,1898.53393452897
0.330024560661162,1898.54393452897
0.31159898433932,1898.55393452897
0.298216260026768,1898.56393452897
0.291962862193611,1898.57393452897
0.292104656061727,1898.58393452897
0.29536863425278,1898.59393452897
0.2992620905033,1898.60393452897
0.303126866364466,1898.61393452897
