PPG,time
0.177536216470403,2394.23127234706
0.349131091068653,2394.24127234706
0.301838364519669,2394.25127234706
0.317080749494013,2394.26127234706
0.29349194668673,2394.27127234706
0.291714002793419,2394.28127234706
0.275161282597087,2394.29127234706
0.266344567204413,2394.30127234706
0.251925999595256,2394.31127234706
0.239758828971562,2394.32127234706
0.225478635607986,2394.33127234706
0.211254320349151,2394.34127234706
0.197016764581941,2394.35127234706
0.18343717543103,2394.36127234706
0.170967874165639,2394.37127234706
0.159766057454452,2394.38127234706
0.151036185742818,2394.39127234706
0.144382184244084,2394.40127234706
0.14040992116165,2394.41127234706
0.139057796476631,2394.42127234706
0.140161920738696,2394.43127234706
0.143545460977272,2394.44127234706
0.147844334802636,2394.45127234706
0.152151560673459,2394.46127234706
0.156338358712146,2394.47127234706
0.159130552570129,2394.48127234706
0.160757218299292,2394.49127234706
0.1614418473237,2394.50127234706
0.161387433894524,2394.51127234706
0.160483429358415,2394.52127234706
0.157807326854034,2394.53127234706
0.15418253134621,2394.54127234706
0.149568558768162,2394.55127234706
0.144230033442631,2394.56127234706
0.138251380141669,2394.57127234706
0.132123181691421,2394.58127234706
0.125997109044716,2394.59127234706
0.11922231173971,2394.60127234706
0.112337526588901,2394.61127234706
0.105562912741556,2394.62127234706
0.0989666292592582,2394.63127234706
0.0921582115562153,2394.64127234706
0.0855072567469107,2394.65127234706
0.0784942619908816,2394.66127234706
0.0701717820982831,2394.67127234706
0.0620142567030695,2394.68127234706
0.052834987849748,2394.69127234706
0.0442809688218443,2394.70127234706
0.0363395051155753,2394.71127234706
0.0281768925890057,2394.72127234706
0.0205375712512723,2394.73127234706
0.0133621908978383,2394.74127234706
0.00578866129946871,2394.75127234706
-0.00181308658450586,2394.76127234706
-0.00900263740698513,2394.77127234706
-0.0162361260194468,2394.78127234706
-0.0233643495970148,2394.79127234706
-0.0300679413825222,2394.80127234706
-0.0361296330443966,2394.81127234706
-0.0422437287436181,2394.82127234706
-0.0479298623717259,2394.83127234706
-0.0537599390456874,2394.84127234706
-0.0596395365435807,2394.85127234706
-0.065348302442392,2394.86127234706
-0.0716382274332665,2394.87127234706
-0.0788596246582212,2394.88127234706
-0.0856631031839542,2394.89127234706
-0.0920910840072147,2394.90127234706
-0.0964572453918112,2394.91127234706
-0.0970086269749807,2394.92127234706
-0.0910092487310026,2394.93127234706
-0.0753211693571255,2394.94127234706
-0.0493902252739207,2394.95127234706
-0.0143266321392677,2394.96127234706
0.0287819067472738,2394.97127234706
0.0765372136208357,2394.98127234706
0.126079237113171,2394.99127234706
0.175195720157921,2395.00127234706
0.221183965566124,2395.01127234706
0.262539626537365,2395.02127234706
0.297201688930489,2395.03127234706
0.325185812763708,2395.04127234706
0.345361080770266,2395.05127234706
0.358931353300411,2395.06127234706
0.365872842147492,2395.07127234706
0.367157468486482,2395.08127234706
0.364166568359546,2395.09127234706
0.357845044515981,2395.10127234706
0.349123878597369,2395.11127234706
0.339102442139318,2395.12127234706
0.329059668834665,2395.13127234706
0.318455145715198,2395.14127234706
0.307684874721158,2395.15127234706
0.295921236088587,2395.16127234706
0.283261210645554,2395.17127234706
0.269704961861108,2395.18127234706
0.255751066711222,2395.19127234706
0.241790370559525,2395.20127234706
0.228480984235968,2395.21127234706
0.217190671429053,2395.22127234706
0.207748394063984,2395.23127234706
0.201210049673201,2395.24127234706
0.197405219650421,2395.25127234706
0.1961552051254,2395.26127234706
0.196902112542794,2395.27127234706
0.199169554066803,2395.28127234706
0.203069399888679,2395.29127234706
0.207785037602775,2395.30127234706
0.212668824158443,2395.31127234706
0.217350151665984,2395.32127234706
0.221176602436461,2395.33127234706
0.224170296436811,2395.34127234706
0.226811205106379,2395.35127234706
0.227660621179976,2395.36127234706
0.227457959952869,2395.37127234706
0.225597282188485,2395.38127234706
0.222412406528365,2395.39127234706
0.218131365840296,2395.40127234706
0.213053509820741,2395.41127234706
0.207758421176178,2395.42127234706
0.201485811876038,2395.43127234706
0.194593935960739,2395.44127234706
0.187558067521507,2395.45127234706
0.180769583079349,2395.46127234706
0.174243354219824,2395.47127234706
0.168090934923635,2395.48127234706
0.162035810150602,2395.49127234706
0.155913508965286,2395.50127234706
0.149252009407467,2395.51127234706
0.142611242566121,2395.52127234706
0.135506838053425,2395.53127234706
0.128660178133524,2395.54127234706
0.121152914224513,2395.55127234706
0.114149428702444,2395.56127234706
0.107115252892684,2395.57127234706
0.09995435367052,2395.58127234706
0.0929164517120957,2395.59127234706
0.0856215026495701,2395.60127234706
0.078134429464861,2395.61127234706
0.0701091740990426,2395.62127234706
0.0625419960271312,2395.63127234706
0.0551174121984793,2395.64127234706
0.0484022011807149,2395.65127234706
0.0418111121024759,2395.66127234706
0.0352565256844652,2395.67127234706
0.0283477875039739,2395.68127234706
0.0212368203109583,2395.69127234706
0.0132574805894165,2395.70127234706
0.00628033041453482,2395.71127234706
0.00146867971673411,2395.72127234706
0.000811493644242295,2395.73127234706
0.00764020300001175,2395.74127234706
0.0250094773804805,2395.75127234706
0.0539643236043261,2395.76127234706
0.0944630888380479,2395.77127234706
0.144258921003573,2395.78127234706
0.200675711481629,2395.79127234706
0.259581970578877,2395.80127234706
0.318559360153906,2395.81127234706
0.374195143620683,2395.82127234706
0.424506756617485,2395.83127234706
0.468362717176741,2395.84127234706
0.504309782603889,2395.85127234706
0.532593034071095,2395.86127234706
0.552712702633315,2395.87127234706
0.565080389591034,2395.88127234706
0.57153759803197,2395.89127234706
0.572250556723355,2395.90127234706
0.569359362948939,2395.91127234706
0.562986154697443,2395.92127234706
0.554399066402892,2395.93127234706
0.544304709626475,2395.94127234706
0.533509190860419,2395.95127234706
0.522026744544305,2395.96127234706
0.51069671486998,2395.97127234706
0.498941900572321,2395.98127234706
0.487055637278546,2395.99127234706
0.474608048795614,2396.00127234706
0.461208620221137,2396.01127234706
0.448146825543024,2396.02127234706
0.436251189928268,2396.03127234706
0.426100537989568,2396.04127234706
0.417433510794442,2396.05127234706
0.410956365480536,2396.06127234706
0.406994772186894,2396.07127234706
0.404969303831693,2396.08127234706
0.405318063564227,2396.09127234706
0.407659492018895,2396.10127234706
0.412030571355502,2396.11127234706
0.417340818750227,2396.12127234706
0.422516221782262,2396.13127234706
0.426930109010505,2396.14127234706
0.430433930838671,2396.15127234706
0.432458744645046,2396.16127234706
0.433867648523503,2396.17127234706
0.433984352885616,2396.18127234706
0.431987576573012,2396.19127234706
0.428768554518919,2396.20127234706
0.42388919218914,2396.21127234706
0.417994498344923,2396.22127234706
0.411465631910219,2396.23127234706
0.404342235673279,2396.24127234706
0.397022788267811,2396.25127234706
0.389391535838545,2396.26127234706
0.381188215543004,2396.27127234706
0.372620516224836,2396.28127234706
0.364320450490195,2396.29127234706
0.356331743723019,2396.30127234706
0.34838906905565,2396.31127234706
0.339987339642873,2396.32127234706
0.33138797418729,2396.33127234706
0.323073187745903,2396.34127234706
0.315044085214513,2396.35127234706
0.307001322244709,2396.36127234706
0.299753983956269,2396.37127234706
0.292020777045313,2396.38127234706
0.284110231960392,2396.39127234706
0.276513398714277,2396.40127234706
0.268444903506312,2396.41127234706
0.260021327958638,2396.42127234706
0.251549111178544,2396.43127234706
0.242675958057267,2396.44127234706
0.233398683181147,2396.45127234706
0.224439179678926,2396.46127234706
0.215964296906168,2396.47127234706
0.207539198948812,2396.48127234706
0.199057807052483,2396.49127234706
0.190510071869549,2396.50127234706
0.182037995543089,2396.51127234706
0.173951309819586,2396.52127234706
0.169390413826405,2396.53127234706
0.170661869644205,2396.54127234706
0.181551711881766,2396.55127234706
0.203971749453314,2396.56127234706
0.238876376420548,2396.57127234706
0.28556110741443,2396.58127234706
0.341627969587411,2396.59127234706
0.40411589254853,2396.60127234706
0.469395758544945,2396.61127234706
0.533783788544774,2396.62127234706
0.593569818242387,2396.63127234706
0.646302751053324,2396.64127234706
0.689734108926772,2396.65127234706
0.724369963812872,2396.66127234706
0.7495424257641,2396.67127234706
0.766451584329802,2396.68127234706
0.776599376797163,2396.69127234706
0.780071004505532,2396.70127234706
0.778607436195317,2396.71127234706
0.773043418895653,2396.72127234706
0.763993035241237,2396.73127234706
0.752612400137675,2396.74127234706
0.740392330640598,2396.75127234706
0.727539884903968,2396.76127234706
0.714091846436511,2396.77127234706
0.700466338204446,2396.78127234706
0.686745919239099,2396.79127234706
0.673081373183149,2396.80127234706
0.659039858018447,2396.81127234706
0.644640553472569,2396.82127234706
0.630280949634867,2396.83127234706
0.617562015229717,2396.84127234706
0.606338374103469,2396.85127234706
0.597116269243006,2396.86127234706
0.590443078773783,2396.87127234706
0.585474541918793,2396.88127234706
0.582787517783917,2396.89127234706
0.581967247277918,2396.90127234706
0.583289142234469,2396.91127234706
0.586427704970654,2396.92127234706
0.58983399215799,2396.93127234706
0.593128758373688,2396.94127234706
0.595866265800182,2396.95127234706
0.597017282449613,2396.96127234706
0.596674101673021,2396.97127234706
0.595236727814662,2396.98127234706
0.592324242076226,2396.99127234706
0.588430984405253,2397.00127234706
0.583693567007067,2397.01127234706
0.577592099072635,2397.02127234706
0.570486986552344,2397.03127234706
0.562307983954616,2397.04127234706
0.553646987782541,2397.05127234706
0.543935857594283,2397.06127234706
0.533863958441108,2397.07127234706
0.52398741977627,2397.08127234706
0.513853591356509,2397.09127234706
0.503841093564109,2397.10127234706
0.493703674806157,2397.11127234706
0.483553933930583,2397.12127234706
0.473724875015507,2397.13127234706
0.463525050427472,2397.14127234706
0.453266613993351,2397.15127234706
0.443025316277176,2397.16127234706
0.432945875909188,2397.17127234706
0.422552582542197,2397.18127234706
0.411944159995355,2397.19127234706
0.401777368272579,2397.20127234706
0.391465919045592,2397.21127234706
0.38155693889879,2397.22127234706
0.37180657256797,2397.23127234706
0.361749073946876,2397.24127234706
0.352085616578779,2397.25127234706
0.342446993058811,2397.26127234706
0.33257702739207,2397.27127234706
0.322390265012797,2397.28127234706
0.311607641439735,2397.29127234706
0.30080602658686,2397.30127234706
0.290184514795524,2397.31127234706
0.279554207501122,2397.32127234706
0.269900472317383,2397.33127234706
0.263143012387208,2397.34127234706
0.260881482505655,2397.35127234706
0.267327626357194,2397.36127234706
0.285401838961157,2397.37127234706
0.317314545599575,2397.38127234706
0.362729127512375,2397.39127234706
0.419694705834166,2397.40127234706
0.484934670265685,2397.41127234706
0.554427521811659,2397.42127234706
0.623872533854631,2397.43127234706
0.689401430045699,2397.44127234706
0.748145761229364,2397.45127234706
0.797752285508682,2397.46127234706
0.837322550384403,2397.47127234706
0.867080584437603,2397.48127234706
0.887000514365608,2397.49127234706
0.898926387207722,2397.50127234706
0.903934004342536,2397.51127234706
0.90289075737096,2397.52127234706
0.897018592890527,2397.53127234706
0.88780504830195,2397.54127234706
0.876179319394625,2397.55127234706
0.863645851893787,2397.56127234706
0.850334999895327,2397.57127234706
0.836246457208604,2397.58127234706
0.821258483322922,2397.59127234706
0.805266066381491,2397.60127234706
0.788521068528973,2397.61127234706
0.771145963700941,2397.62127234706
0.75341106208422,2397.63127234706
0.736621990652487,2397.64127234706
0.721038575594568,2397.65127234706
0.707245835063909,2397.66127234706
0.695586845662479,2397.67127234706
0.686397645739283,2397.68127234706
0.679602860305227,2397.69127234706
0.675503971091438,2397.70127234706
0.672799056915967,2397.71127234706
0.672503518295717,2397.72127234706
0.674224538965211,2397.73127234706
0.676344821043565,2397.74127234706
0.678849339130906,2397.75127234706
0.680980492157609,2397.76127234706
0.682543420750173,2397.77127234706
0.682971417740154,2397.78127234706
0.682360677819425,2397.79127234706
0.680593338642587,2397.80127234706
0.677643180950306,2397.81127234706
0.67299369788636,2397.82127234706
0.66618511952631,2397.83127234706
0.65822824132174,2397.84127234706
0.648818124950289,2397.85127234706
0.638347043839015,2397.86127234706
0.626705668453679,2397.87127234706
0.614409008665581,2397.88127234706
0.601749394688658,2397.89127234706
0.58903893624482,2397.90127234706
0.577045548191142,2397.91127234706
0.565385345342832,2397.92127234706
0.553984611921875,2397.93127234706
0.542289739981968,2397.94127234706
0.530767110564911,2397.95127234706
0.519154089970318,2397.96127234706
0.507590893684742,2397.97127234706
0.496209488883408,2397.98127234706
0.484570037353221,2397.99127234706
0.472802432261443,2398.00127234706
0.461649551479241,2398.01127234706
0.450462690880248,2398.02127234706
0.438846144732747,2398.03127234706
0.4271482939527,2398.04127234706
0.415778947810505,2398.05127234706
0.40479104645163,2398.06127234706
0.394059734249775,2398.07127234706
0.383403142824856,2398.08127234706
0.372530032256451,2398.09127234706
0.361471201103386,2398.10127234706
0.35033049070443,2398.11127234706
0.339556662393345,2398.12127234706
0.329138234250912,2398.13127234706
0.318985438398874,2398.14127234706
0.309034339640364,2398.15127234706
0.298584628820263,2398.16127234706
0.28969677010302,2398.17127234706
0.284256945005819,2398.18127234706
0.284737506600456,2398.19127234706
0.2962164553548,2398.20127234706
0.32063858268579,2398.21127234706
0.359450515943753,2398.22127234706
0.412284797692795,2398.23127234706
0.476872891916873,2398.24127234706
0.549980761776878,2398.25127234706
0.626441479768165,2398.26127234706
0.702005757993177,2398.27127234706
0.772133762776227,2398.28127234706
0.833136878024861,2398.29127234706
0.882630575164512,2398.30127234706
0.919984228926505,2398.31127234706
0.945888377950872,2398.32127234706
0.960890061033297,2398.33127234706
0.966660534299114,2398.34127234706
0.965399693866899,2398.35127234706
0.958482751614023,2398.36127234706
0.948153565508792,2398.37127234706
0.93474939018662,2398.38127234706
0.919103161060949,2398.39127234706
0.902157981019197,2398.40127234706
0.884220585481721,2398.41127234706
0.86577123949056,2398.42127234706
0.846364181250301,2398.43127234706
0.826859337981244,2398.44127234706
0.806640202111544,2398.45127234706
0.786878008998978,2398.46127234706
0.767908943133824,2398.47127234706
0.749920685563128,2398.48127234706
0.734393688254487,2398.49127234706
0.720897260291306,2398.50127234706
0.710807051311878,2398.51127234706
0.703651070678662,2398.52127234706
0.699772576667165,2398.53127234706
0.69925830588779,2398.54127234706
0.700833499822063,2398.55127234706
0.704353909926548,2398.56127234706
0.708728143310608,2398.57127234706
0.713301924826003,2398.58127234706
0.717643291498436,2398.59127234706
0.720958211666277,2398.60127234706
0.723122839513396,2398.61127234706
0.723143864114469,2398.62127234706
0.721400341574237,2398.63127234706
0.717956375077097,2398.64127234706
0.713029990725471,2398.65127234706
0.706381442186504,2398.66127234706
0.697950544552765,2398.67127234706
0.688026164092223,2398.68127234706
0.676504184499395,2398.69127234706
0.664489175513453,2398.70127234706
0.651356024613202,2398.71127234706
0.638282448861879,2398.72127234706
0.625108294350004,2398.73127234706
0.611841629636181,2398.74127234706
0.598655670513619,2398.75127234706
0.585384172366018,2398.76127234706
0.572500551670612,2398.77127234706
0.560356179885603,2398.78127234706
0.548974072598788,2398.79127234706
0.537164809637432,2398.80127234706
0.525724893952976,2398.81127234706
0.514479658221135,2398.82127234706
0.503158215984849,2398.83127234706
0.491961841380289,2398.84127234706
0.480454766796409,2398.85127234706
0.468863554049562,2398.86127234706
0.457392749736178,2398.87127234706
0.445800962552769,2398.88127234706
0.434598007060757,2398.89127234706
0.423457590896668,2398.90127234706
0.411980776341705,2398.91127234706
0.401002873366214,2398.92127234706
0.390199056415657,2398.93127234706
0.379485183614765,2398.94127234706
0.369009026538711,2398.95127234706
0.358532104139403,2398.96127234706
0.347829125561738,2398.97127234706
0.336910195702921,2398.98127234706
0.326403051669017,2398.99127234706
0.315698069929407,2399.00127234706
0.306594925878447,2399.01127234706
0.301739032467147,2399.02127234706
0.304724964422711,2399.03127234706
0.319886991846838,2399.04127234706
0.349830619503832,2399.05127234706
0.396518795892162,2399.06127234706
0.457773924635392,2399.07127234706
0.531852361368403,2399.08127234706
0.613420774929437,2399.09127234706
0.697281240476671,2399.10127234706
0.778225257377692,2399.11127234706
0.851377737516572,2399.12127234706
0.914348930181622,2399.13127234706
0.964782490639105,2399.14127234706
1.00190315016222,2399.15127234706
1.02549186893601,2399.16127234706
1.03763725432996,2399.17127234706
1.03990067259102,2399.18127234706
1.03431053999484,2399.19127234706
1.02394483652146,2399.20127234706
1.00951148192617,2399.21127234706
0.992878720415489,2399.22127234706
0.974443901333769,2399.23127234706
0.954940825892405,2399.24127234706
0.933582476224404,2399.25127234706
0.91184652916428,2399.26127234706
0.889032445969911,2399.27127234706
0.86546236564647,2399.28127234706
0.841637452438461,2399.29127234706
0.818512778440509,2399.30127234706
0.796871047012834,2399.31127234706
0.77792961521461,2399.32127234706
0.761779175937177,2399.33127234706
0.749025515274286,2399.34127234706
0.739653995248397,2399.35127234706
0.733831341400396,2399.36127234706
0.731541551928111,2399.37127234706
0.732469540326886,2399.38127234706
0.736278695089529,2399.39127234706
0.742015854908767,2399.40127234706
0.748978659393798,2399.41127234706
0.755778055220522,2399.42127234706
0.761433353836211,2399.43127234706
0.76506984124245,2399.44127234706
0.766064365112177,2399.45127234706
0.764839087104352,2399.46127234706
0.760799170011369,2399.47127234706
0.754599839014027,2399.48127234706
0.746952162268813,2399.49127234706
0.737672959244695,2399.50127234706
0.727478604805683,2399.51127234706
0.716010899301272,2399.52127234706
0.703730225118648,2399.53127234706
0.690980184837111,2399.54127234706
0.677411589007098,2399.55127234706
0.663984580812101,2399.56127234706
0.650971049938872,2399.57127234706
0.637898816209006,2399.58127234706
0.625371256002707,2399.59127234706
0.613226137953869,2399.60127234706
0.601075089733002,2399.61127234706
0.589710289537766,2399.62127234706
0.578337243817389,2399.63127234706
0.566500642417179,2399.64127234706
0.554642262997953,2399.65127234706
0.54199446943242,2399.66127234706
0.529404678991897,2399.67127234706
0.516895117578701,2399.68127234706
0.504464176575929,2399.69127234706
0.492194416663822,2399.70127234706
0.480000186874291,2399.71127234706
0.467857647329077,2399.72127234706
0.455973273510965,2399.73127234706
0.44378328565222,2399.74127234706
0.43186345909638,2399.75127234706
0.419972999321998,2399.76127234706
0.408437274206877,2399.77127234706
0.396913902455625,2399.78127234706
0.385786639571255,2399.79127234706
0.374700995685867,2399.80127234706
0.363798163507835,2399.81127234706
0.352905391826225,2399.82127234706
0.341658581112177,2399.83127234706
0.329857372288882,2399.84127234706
0.318212213505722,2399.85127234706
0.306946907851388,2399.86127234706
0.298028764279368,2399.87127234706
0.293227551497451,2399.88127234706
0.29716341206184,2399.89127234706
0.314114446963105,2399.90127234706
0.34761933987867,2399.91127234706
0.398800611781772,2399.92127234706
0.466765436916248,2399.93127234706
0.548317510890034,2399.94127234706
0.638496714893915,2399.95127234706
0.731508101741671,2399.96127234706
0.822029390580709,2399.97127234706
0.905075362801316,2399.98127234706
0.977706755731829,2399.99127234706
1.03733722582746,2400.00127234706
1.0825998860749,2400.01127234706
1.11409987898339,2400.02127234706
1.13172111726267,2400.03127234706
1.13813487103968,2400.04127234706
1.13481002641623,2400.05127234706
1.12443986397114,2400.06127234706
1.10996988680636,2400.07127234706
1.09206916722582,2400.08127234706
1.07266445664339,2400.09127234706
1.05299524652539,2400.10127234706
1.03350246004969,2400.11127234706
1.01358401247301,2400.12127234706
0.992987537141223,2400.13127234706
0.971719506986085,2400.14127234706
0.950083175169731,2400.15127234706
0.92770150775308,2400.16127234706
0.90555427921153,2400.17127234706
0.884769771632347,2400.18127234706
0.865519505266685,2400.19127234706
0.848807967631812,2400.20127234706
0.835179889719855,2400.21127234706
0.82526449727055,2400.22127234706
0.818600726439935,2400.23127234706
0.815769169503577,2400.24127234706
0.816162414259653,2400.25127234706
0.818938610126166,2400.26127234706
0.823543775902789,2400.27127234706
0.828697979382342,2400.28127234706
0.833356283085649,2400.29127234706
0.836406237255422,2400.30127234706
0.837170697680805,2400.31127234706
0.835029239082408,2400.32127234706
0.830087127900654,2400.33127234706
0.823306331743392,2400.34127234706
0.814167349902728,2400.35127234706
0.803774617022926,2400.36127234706
0.791750892956047,2400.37127234706
0.778493602275198,2400.38127234706
0.764220013479877,2400.39127234706
0.748804738180705,2400.40127234706
0.732769165669205,2400.41127234706
0.716518811458033,2400.42127234706
0.699516303687239,2400.43127234706
0.682731746132316,2400.44127234706
0.666265161172091,2400.45127234706
0.6500565413278,2400.46127234706
0.634720925289008,2400.47127234706
0.619641244985387,2400.48127234706
0.605417069174349,2400.49127234706
0.591711042186342,2400.50127234706
0.578769585526911,2400.51127234706
0.565681882202198,2400.52127234706
0.553016852488085,2400.53127234706
0.540038911331726,2400.54127234706
0.526339518730375,2400.55127234706
0.512482303813723,2400.56127234706
0.498184767981584,2400.57127234706
0.484213850093455,2400.58127234706
0.470448990531742,2400.59127234706
0.456800267199156,2400.60127234706
0.444108581256917,2400.61127234706
0.431987976150467,2400.62127234706
0.419953517398822,2400.63127234706
0.407608777869398,2400.64127234706
0.395070953849435,2400.65127234706
0.381699482580483,2400.66127234706
0.368250074159866,2400.67127234706
0.355444522164448,2400.68127234706
0.342907470510836,2400.69127234706
0.330973006675462,2400.70127234706
0.318677107181735,2400.71127234706
0.306131929794955,2400.72127234706
0.293415137615154,2400.73127234706
0.280975941990379,2400.74127234706
0.271376259629753,2400.75127234706
0.268185003035464,2400.76127234706
0.276132813885282,2400.77127234706
0.299521682774361,2400.78127234706
0.340755282682632,2400.79127234706
0.400243054502209,2400.80127234706
0.475987397010222,2400.81127234706
0.563486786334896,2400.82127234706
0.656905241022284,2400.83127234706
0.74967123631185,2400.84127234706
0.835533246736963,2400.85127234706
0.910053799521033,2400.86127234706
0.970261979234683,2400.87127234706
1.01446889722696,2400.88127234706
1.04320808695688,2400.89127234706
1.05839473571388,2400.90127234706
1.06167438829803,2400.91127234706
1.05511203244014,2400.92127234706
1.04183940924037,2400.93127234706
1.02337576991175,2400.94127234706
1.00237395837001,2400.95127234706
0.979270801702757,2400.96127234706
0.955080512266977,2400.97127234706
0.929397630603059,2400.98127234706
0.903052302514692,2400.99127234706
0.876370296005529,2401.00127234706
0.848487260568124,2401.01127234706
0.820755239107715,2401.02127234706
0.793248830778262,2401.03127234706
0.767060830805949,2401.04127234706
0.743243852038595,2401.05127234706
0.723489172108623,2401.06127234706
0.708569108258189,2401.07127234706
0.69797474320096,2401.08127234706
0.692052615338728,2401.09127234706
0.690707906414325,2401.10127234706
0.693629371246398,2401.11127234706
0.70026421323574,2401.12127234706
0.708741962300252,2401.13127234706
0.718179716478431,2401.14127234706
0.727551442565278,2401.15127234706
0.735378836587126,2401.16127234706
0.740797590186602,2401.17127234706
0.742372546592333,2401.18127234706
0.740743319511542,2401.19127234706
0.736231802787361,2401.20127234706
0.728871058154668,2401.21127234706
0.719703896431073,2401.22127234706
0.708917114371335,2401.23127234706
0.696747983776397,2401.24127234706
0.683606824894682,2401.25127234706
0.67040565579404,2401.26127234706
0.655895950461,2401.27127234706
0.6413796758031,2401.28127234706
0.626612190834602,2401.29127234706
0.611738013460531,2401.30127234706
0.597817659604707,2401.31127234706
0.584397185392582,2401.32127234706
0.571030811302431,2401.33127234706
0.558085475901948,2401.34127234706
0.544844511569202,2401.35127234706
0.531270865189222,2401.36127234706
0.517292039115816,2401.37127234706
0.502775873879832,2401.38127234706
0.488534116295723,2401.39127234706
0.474601431703789,2401.40127234706
0.46118194037521,2401.41127234706
0.448276571441824,2401.42127234706
0.435157833282541,2401.43127234706
0.42199628562899,2401.44127234706
0.409272136163239,2401.45127234706
0.396470625570256,2401.46127234706
0.383734436515805,2401.47127234706
0.371049408580846,2401.48127234706
0.358945391566449,2401.49127234706
0.346676390252921,2401.50127234706
0.334271027901096,2401.51127234706
0.321829237522765,2401.52127234706
0.309027057065929,2401.53127234706
0.296016627121624,2401.54127234706
0.283304099961468,2401.55127234706
0.270779839290573,2401.56127234706
0.258847512083957,2401.57127234706
0.247004445352137,2401.58127234706
0.235037871531927,2401.59127234706
0.224043612965081,2401.60127234706
0.214050527246478,2401.61127234706
0.207460991572891,2401.62127234706
0.207924627850334,2401.63127234706
0.220558418150828,2401.64127234706
0.250718197372706,2401.65127234706
0.299721752798812,2401.66127234706
0.368090839772121,2401.67127234706
0.452805646096254,2401.68127234706
0.548920319391575,2401.69127234706
0.649282762270267,2401.70127234706
0.7478010639384,2401.71127234706
0.838064938056001,2401.72127234706
0.914810687206619,2401.73127234706
0.97616905416831,2401.74127234706
1.02119258012155,2401.75127234706
1.05136834008885,2401.76127234706
1.06763083555312,2401.77127234706
1.07256754079511,2401.78127234706
1.06749822579432,2401.79127234706
1.05476241662437,2401.80127234706
1.03728991005102,2401.81127234706
1.01659179747388,2401.82127234706
0.994481284346995,2401.83127234706
0.972039383711712,2401.84127234706
0.950156555154494,2401.85127234706
0.928183183800208,2401.86127234706
0.906178602060451,2401.87127234706
0.882363977375711,2401.88127234706
0.856456822824233,2401.89127234706
0.829581659429729,2401.90127234706
0.802810243622772,2401.91127234706
0.777030605443686,2401.92127234706
0.753057086148879,2401.93127234706
0.732024311886373,2401.94127234706
0.713808583988306,2401.95127234706
0.699057909526421,2401.96127234706
0.687457273805125,2401.97127234706
0.67845017780211,2401.98127234706
0.672249938383855,2401.99127234706
0.668006044847804,2402.00127234706
0.664828151981115,2402.01127234706
0.66094480786447,2402.02127234706
0.655704757752982,2402.03127234706
0.647622423361012,2402.04127234706
0.635992973782871,2402.05127234706
0.62103629281982,2402.06127234706
0.603097923744296,2402.07127234706
0.582114223534999,2402.08127234706
0.559370143331382,2402.09127234706
0.535794373031584,2402.10127234706
0.512277038260829,2402.11127234706
0.489845950900005,2402.12127234706
0.468591332599031,2402.13127234706
0.448770835402732,2402.14127234706
0.431266378022783,2402.15127234706
0.415369246158587,2402.16127234706
0.400552676411563,2402.17127234706
0.38654692996136,2402.18127234706
0.373727626308014,2402.19127234706
0.362271912761216,2402.20127234706
0.351954123364352,2402.21127234706
0.3429073939272,2402.22127234706
0.335245741698634,2402.23127234706
0.328929064029982,2402.24127234706
0.3239973300195,2402.25127234706
0.319677967741872,2402.26127234706
0.315986213504459,2402.27127234706
0.311165159877231,2402.28127234706
0.304583072071121,2402.29127234706
0.297241952651782,2402.30127234706
0.28869865327289,2402.31127234706
0.278390362642963,2402.32127234706
0.26622971277449,2402.33127234706
0.252279255586573,2402.34127234706
0.236378815733307,2402.35127234706
0.219847530701669,2402.36127234706
0.203651855066792,2402.37127234706
0.188763279644204,2402.38127234706
0.176918097188155,2402.39127234706
0.167964529419332,2402.40127234706
0.162539602732133,2402.41127234706
0.159748729657952,2402.42127234706
0.159486162538933,2402.43127234706
0.160916857201654,2402.44127234706
0.163854710274161,2402.45127234706
0.167230555371831,2402.46127234706
0.172776889660766,2402.47127234706
0.180031163402818,2402.48127234706
0.189127011098543,2402.49127234706
0.200029348136236,2402.50127234706
0.212427543921564,2402.51127234706
0.229467594445359,2402.52127234706
0.254658115520113,2402.53127234706
0.293717451813947,2402.54127234706
0.351187026659255,2402.55127234706
0.426961776158752,2402.56127234706
0.519000810772142,2402.57127234706
0.621625100196583,2402.58127234706
0.728407259856918,2402.59127234706
0.832553769474586,2402.60127234706
0.928464978379769,2402.61127234706
1.01159279067086,2402.62127234706
1.07852741629844,2402.63127234706
1.12751653987777,2402.64127234706
1.15918592550184,2402.65127234706
1.17441247309447,2402.66127234706
1.17593220364257,2402.67127234706
1.16640829200499,2402.68127234706
1.14902439947646,2402.69127234706
1.12595615531552,2402.70127234706
1.09877685404219,2402.71127234706
1.06917152155211,2402.72127234706
1.03832351803169,2402.73127234706
1.00613410057895,2402.74127234706
0.972658161700198,2402.75127234706
0.938503945695303,2402.76127234706
0.90351682513947,2402.77127234706
0.868334095681753,2402.78127234706
0.833534805663419,2402.79127234706
0.79977497607455,2402.80127234706
0.767690539840249,2402.81127234706
0.737987242473582,2402.82127234706
0.712879158417325,2402.83127234706
0.691992376091334,2402.84127234706
0.676340347714594,2402.85127234706
0.665425410286289,2402.86127234706
0.657805456674343,2402.87127234706
0.653837623119171,2402.88127234706
0.651783194093432,2402.89127234706
0.651723102515541,2402.90127234706
0.651916192566276,2402.91127234706
0.651835919351149,2402.92127234706
0.649587913000979,2402.93127234706
0.645442093751939,2402.94127234706
0.638815753992105,2402.95127234706
0.629671561475716,2402.96127234706
0.617664284674203,2402.97127234706
0.601782656755029,2402.98127234706
0.58302200342597,2402.99127234706
0.560797797153536,2403.00127234706
0.535410264757907,2403.01127234706
0.507518745273359,2403.02127234706
0.477457608690515,2403.03127234706
0.445327937089737,2403.04127234706
0.412104121824491,2403.05127234706
0.378797921902566,2403.06127234706
0.346480260970393,2403.07127234706
0.316052340296517,2403.08127234706
0.288188883278475,2403.09127234706
0.263005781345985,2403.10127234706
0.239633269275392,2403.11127234706
0.217223137083661,2403.12127234706
0.195350880905001,2403.13127234706
0.173911931724849,2403.14127234706
0.153433602432861,2403.15127234706
0.134443112660552,2403.16127234706
0.11641895468511,2403.17127234706
0.0998604140449277,2403.18127234706
0.0839351281270873,2403.19127234706
0.0686168392656431,2403.20127234706
0.0536701376071615,2403.21127234706
0.0387809563117032,2403.22127234706
0.0244816782508783,2403.23127234706
0.0104666636916501,2403.24127234706
-0.00306726663130378,2403.25127234706
-0.0159610012373913,2403.26127234706
-0.0286004840125993,2403.27127234706
-0.039921324251111,2403.28127234706
-0.0507926975362823,2403.29127234706
-0.0614977516840196,2403.30127234706
-0.0723068497825787,2403.31127234706
-0.0837332198750326,2403.32127234706
-0.0945289417554114,2403.33127234706
-0.104433742773821,2403.34127234706
-0.110921636346201,2403.35127234706
-0.110236791577182,2403.36127234706
-0.0970793420353244,2403.37127234706
-0.0662271766049084,2403.38127234706
-0.0152456270507623,2403.39127234706
0.0556786160727266,2403.40127234706
0.143336102513627,2403.41127234706
0.243406410021999,2403.42127234706
0.348248565428843,2403.43127234706
0.451649672004881,2403.44127234706
0.54641902006284,2403.45127234706
0.628656046127513,2403.46127234706
0.695353174282542,2403.47127234706
0.74553813331123,2403.48127234706
0.780455039341128,2403.49127234706
0.800575731883302,2403.50127234706
0.808080070274905,2403.51127234706
0.805879392031168,2403.52127234706
0.796102422911494,2403.53127234706
0.781353115974892,2403.54127234706
0.763694310723293,2403.55127234706
0.744311440551816,2403.56127234706
0.723949786446144,2403.57127234706
0.703171836586998,2403.58127234706
0.6824741261824,2403.59127234706
0.661373686122154,2403.60127234706
0.639550521817514,2403.61127234706
0.617263245144674,2403.62127234706
0.594794624045109,2403.63127234706
0.572857450732676,2403.64127234706
0.552061279380385,2403.65127234706
0.532733636268738,2403.66127234706
0.516225155697579,2403.67127234706
0.502775686486554,2403.68127234706
0.492878333235641,2403.69127234706
0.486428272957761,2403.70127234706
0.483795592478371,2403.71127234706
0.485372460458894,2403.72127234706
0.490469298841099,2403.73127234706
0.497518837079227,2403.74127234706
0.506280557662547,2403.75127234706
0.51506255639458,2403.76127234706
0.522705807414357,2403.77127234706
0.528413594357691,2403.78127234706
0.531055527296742,2403.79127234706
0.529974037384262,2403.80127234706
0.525581285609783,2403.81127234706
0.518698263070038,2403.82127234706
0.510244010350692,2403.83127234706
0.500700582953949,2403.84127234706
0.489680766382952,2403.85127234706
0.478483473124479,2403.86127234706
0.466682730011214,2403.87127234706
0.454984215815113,2403.88127234706
0.443644091177957,2403.89127234706
0.432500657849679,2403.90127234706
0.421270483503888,2403.91127234706
0.410000421712807,2403.92127234706
0.398982481681114,2403.93127234706
0.388400996414208,2403.94127234706
0.37821535924065,2403.95127234706
0.368703989965009,2403.96127234706
0.359457081847365,2403.97127234706
0.350683598645932,2403.98127234706
0.341364925199815,2403.99127234706
0.33214283268896,2404.00127234706
0.323281184740293,2404.01127234706
0.314513384749445,2404.02127234706
0.305128092805934,2404.03127234706
0.296003781491221,2404.04127234706
0.287141854943763,2404.05127234706
0.278105196564885,2404.06127234706
0.268834844739033,2404.07127234706
0.259494140134145,2404.08127234706
0.250420140688622,2404.09127234706
0.241420886094084,2404.10127234706
0.232511477910928,2404.11127234706
0.223680872159517,2404.12127234706
0.215036668983579,2404.13127234706
0.206563348473308,2404.14127234706
0.198870492325832,2404.15127234706
0.192787577849087,2404.16127234706
0.192147228389436,2404.17127234706
0.201213316794324,2404.18127234706
0.224811423055075,2404.19127234706
0.26649110985757,2404.20127234706
0.32829784934549,2404.21127234706
0.408299562547054,2404.22127234706
0.501910890846453,2404.23127234706
0.603676091263938,2404.24127234706
0.706072245363755,2404.25127234706
0.802333049239225,2404.26127234706
0.887140498828467,2404.27127234706
0.95684996932328,2404.28127234706
1.01001823254362,2404.29127234706
1.04731567529964,2404.30127234706
1.06995751019669,2404.31127234706
1.08023942794573,2404.32127234706
1.08015773961931,2404.33127234706
1.07159510745263,2404.34127234706
1.05711829512149,2404.35127234706
1.03880072547702,2404.36127234706
1.01806745987153,2404.37127234706
0.99687803630767,2404.38127234706
0.975705793774003,2404.39127234706
0.955564379819356,2404.40127234706
0.935279618192767,2404.41127234706
0.915408323905141,2404.42127234706
0.894743088514806,2404.43127234706
0.872545860812821,2404.44127234706
0.849495830029727,2404.45127234706
0.825524241321721,2404.46127234706
0.802529556595992,2404.47127234706
0.780806662467621,2404.48127234706
0.761668033145337,2404.49127234706
0.745946076597821,2404.50127234706
0.733209183448833,2404.51127234706
0.724163452033238,2404.52127234706
0.718221098062745,2404.53127234706
0.716000290878413,2404.54127234706
0.716926257812602,2404.55127234706
0.719955303452701,2404.56127234706
0.724335994290229,2404.57127234706
0.728727346429886,2404.58127234706
0.731707247154739,2404.59127234706
0.73303536532278,2404.60127234706
0.73111851924225,2404.61127234706
0.72654046456765,2404.62127234706
0.718265128310909,2404.63127234706
0.707343435822409,2404.64127234706
0.693424224656446,2404.65127234706
0.677730867104552,2404.66127234706
0.66084382105138,2404.67127234706
0.642943228289929,2404.68127234706
0.624580574118475,2404.69127234706
0.605486844629066,2404.70127234706
0.586643015349102,2404.71127234706
0.567171965470449,2404.72127234706
0.547214692121002,2404.73127234706
0.52767689936436,2404.74127234706
0.508052623943857,2404.75127234706
0.488601355090641,2404.76127234706
0.469577087563792,2404.77127234706
0.451397526052644,2404.78127234706
0.433342275934991,2404.79127234706
0.415790708046363,2404.80127234706
0.398410235878465,2404.81127234706
0.381032453660544,2404.82127234706
0.363596763241945,2404.83127234706
0.345946639145234,2404.84127234706
0.328056963708373,2404.85127234706
0.309764876584823,2404.86127234706
0.291342497264681,2404.87127234706
0.272684406341945,2404.88127234706
0.254302649225062,2404.89127234706
0.235688840703908,2404.90127234706
0.21687991332811,2404.91127234706
0.19857290044475,2404.92127234706
0.180121091375535,2404.93127234706
0.162662152787343,2404.94127234706
0.144476970233736,2404.95127234706
0.12771268143097,2404.96127234706
0.11339023178767,2404.97127234706
0.105823135861146,2404.98127234706
0.110098392779157,2404.99127234706
0.130041900459195,2405.00127234706
0.168767097962896,2405.01127234706
0.224534116306083,2405.02127234706
0.294352806470304,2405.03127234706
0.37230084429888,2405.04127234706
0.452727255005492,2405.05127234706
0.529126510584197,2405.06127234706
0.596921761802349,2405.07127234706
0.652803585343599,2405.08127234706
0.695079128835237,2405.09127234706
0.723790830964418,2405.10127234706
0.739337059281966,2405.11127234706
0.743246344016792,2405.12127234706
0.738250147894294,2405.13127234706
0.726007624590453,2405.14127234706
0.707810924915885,2405.15127234706
0.686092040585187,2405.16127234706
0.661886691395407,2405.17127234706
0.636731433254235,2405.18127234706
0.611267659845978,2405.19127234706
0.585816572755283,2405.20127234706
0.561135528660109,2405.21127234706
0.536560704354742,2405.22127234706
0.511931594448527,2405.23127234706
0.487548243581249,2405.24127234706
0.462529830014777,2405.25127234706
0.437142213803813,2405.26127234706
0.412861097197249,2405.27127234706
0.390375068289469,2405.28127234706
0.370122915611133,2405.29127234706
0.35327183551456,2405.30127234706
0.33868035119038,2405.31127234706
0.327033639008105,2405.32127234706
0.317966195228903,2405.33127234706
0.311253583683226,2405.34127234706
0.306732225022492,2405.35127234706
0.304053751875457,2405.36127234706
0.301430730085734,2405.37127234706
0.298703371486473,2405.38127234706
0.294590217372797,2405.39127234706
0.288728425872355,2405.40127234706
0.280872755891478,2405.41127234706
0.271040391319169,2405.42127234706
0.259654710541637,2405.43127234706
0.246088890283311,2405.44127234706
0.231500904006413,2405.45127234706
0.215712437512428,2405.46127234706
0.198794158688341,2405.47127234706
0.180708005522155,2405.48127234706
0.161652402979717,2405.49127234706
0.142641617214978,2405.50127234706
0.123515336030701,2405.51127234706
0.105124199200876,2405.52127234706
0.0878719621644758,2405.53127234706
0.0701098167855784,2405.54127234706
0.0519668235583252,2405.55127234706
0.0337070976423252,2405.56127234706
0.0155082815336892,2405.57127234706
-0.00323751588534551,2405.58127234706
-0.0206268281005388,2405.59127234706
-0.0376335610421458,2405.60127234706
-0.0549330590222973,2405.61127234706
-0.0729080029821252,2405.62127234706
-0.0909676540712513,2405.63127234706
-0.109077851189046,2405.64127234706
-0.127041472309279,2405.65127234706
-0.143671053725141,2405.66127234706
-0.159168557494802,2405.67127234706
-0.175475215694194,2405.68127234706
-0.192740594466163,2405.69127234706
-0.210041750515378,2405.70127234706
-0.227861196089364,2405.71127234706
-0.246007590059022,2405.72127234706
-0.262273764232476,2405.73127234706
-0.276517495199683,2405.74127234706
-0.285883990605214,2405.75127234706
-0.287290909792506,2405.76127234706
-0.277937306228924,2405.77127234706
-0.256459490451766,2405.78127234706
-0.224178030622378,2405.79127234706
-0.181849697686043,2405.80127234706
-0.134467734249923,2405.81127234706
-0.0860223426346397,2405.82127234706
-0.0408450083208395,2405.83127234706
-0.00121763210199024,2405.84127234706
0.0309120983553444,2405.85127234706
0.0549372488525143,2405.86127234706
0.0725371618574714,2405.87127234706
0.082252366015528,2405.88127234706
0.0850210418524082,2405.89127234706
0.0817812697812667,2405.90127234706
0.0732482153878405,2405.91127234706
0.0610253922370968,2405.92127234706
0.0462201463177071,2405.93127234706
0.0312279549433474,2405.94127234706
0.0162472846288744,2405.95127234706
0.000888392178146243,2405.96127234706
-0.0151394722611525,2405.97127234706
-0.032051724275108,2405.98127234706
-0.0490805884062241,2405.99127234706
-0.067110960021495,2406.00127234706
-0.084780849148061,2406.01127234706
-0.102066394223533,2406.02127234706
-0.120123321213927,2406.03127234706
-0.138195174955243,2406.04127234706
-0.155338929889558,2406.05127234706
-0.171233770281424,2406.06127234706
-0.185499006264608,2406.07127234706
-0.196483299801278,2406.08127234706
-0.205237740354749,2406.09127234706
-0.212635832061077,2406.10127234706
-0.219618101012834,2406.11127234706
-0.226038101071563,2406.12127234706
-0.232226089804989,2406.13127234706
-0.238545221785005,2406.14127234706
-0.244208106879814,2406.15127234706
-0.249895486600592,2406.16127234706
-0.257341374692323,2406.17127234706
-0.266889971290988,2406.18127234706
-0.27815400829187,2406.19127234706
-0.290764556938829,2406.20127234706
-0.304495589264028,2406.21127234706
-0.317216383744631,2406.22127234706
-0.329176776947437,2406.23127234706
-0.342453871364454,2406.24127234706
-0.356384999934058,2406.25127234706
-0.370586496861985,2406.26127234706
-0.385659474820578,2406.27127234706
-0.401085714162111,2406.28127234706
-0.41487654891419,2406.29127234706
-0.428081099706345,2406.30127234706
-0.441139580952309,2406.31127234706
-0.455336068558125,2406.32127234706
-0.469747558047644,2406.33127234706
-0.484590635617648,2406.34127234706
-0.499446091060842,2406.35127234706
-0.51272874234949,2406.36127234706
-0.52464800469016,2406.37127234706
-0.536804735784727,2406.38127234706
-0.549458277533589,2406.39127234706
-0.562720103149702,2406.40127234706
-0.57642653316552,2406.41127234706
-0.589997810666155,2406.42127234706
-0.602872608050461,2406.43127234706
-0.615508831377082,2406.44127234706
-0.628620400515336,2406.45127234706
-0.642468220288831,2406.46127234706
-0.656479626953228,2406.47127234706
-0.669565209176389,2406.48127234706
-0.68016815786591,2406.49127234706
-0.684495982509025,2406.50127234706
-0.681468969973158,2406.51127234706
-0.670895073113261,2406.52127234706
-0.652996557907939,2406.53127234706
-0.629222365011653,2406.54127234706
-0.60189946613393,2406.55127234706
-0.573150049060865,2406.56127234706
-0.544901447849498,2406.57127234706
-0.519977635312033,2406.58127234706
-0.500437489506806,2406.59127234706
-0.486290584099145,2406.60127234706
-0.477444169251002,2406.61127234706
-0.474326814433086,2406.62127234706
-0.474890824142001,2406.63127234706
-0.478225732292576,2406.64127234706
-0.483842329022585,2406.65127234706
-0.491759272267841,2406.66127234706
-0.501622143698358,2406.67127234706
-0.512347059070482,2406.68127234706
-0.523799779192957,2406.69127234706
-0.535194960529656,2406.70127234706
-0.545124361823026,2406.71127234706
-0.554652018409522,2406.72127234706
-0.56403105399802,2406.73127234706
-0.574925877690162,2406.74127234706
-0.585952083996102,2406.75127234706
-0.597515727232365,2406.76127234706
-0.608879231648636,2406.77127234706
-0.618944856059541,2406.78127234706
-0.628370863218606,2406.79127234706
-0.638050120293389,2406.80127234706
-0.647393152447174,2406.81127234706
-0.655587314454386,2406.82127234706
-0.663038033586001,2406.83127234706
-0.669016321203318,2406.84127234706
-0.672287262695344,2406.85127234706
-0.674490810530314,2406.86127234706
-0.676730223977174,2406.87127234706
-0.679674629745486,2406.88127234706
-0.683047393091011,2406.89127234706
-0.687364298878458,2406.90127234706
-0.692503886671532,2406.91127234706
-0.69688145446419,2406.92127234706
-0.701803937634714,2406.93127234706
-0.707976929741928,2406.94127234706
-0.715158064418506,2406.95127234706
-0.722698262119759,2406.96127234706
-0.73095559376104,2406.97127234706
-0.739402260632304,2406.98127234706
-0.74702250354502,2406.99127234706
-0.754153683924399,2407.00127234706
-0.761546062845052,2407.01127234706
-0.769821290570253,2407.02127234706
-0.778399418704135,2407.03127234706
-0.787366591803014,2407.04127234706
-0.79564853209638,2407.05127234706
-0.802572381045083,2407.06127234706
-0.809365421145675,2407.07127234706
-0.816921875880248,2407.08127234706
-0.825624450406306,2407.09127234706
-0.834374797121349,2407.10127234706
-0.843926057556195,2407.11127234706
-0.853497052687016,2407.12127234706
-0.862147552731445,2407.13127234706
-0.869255412905021,2407.14127234706
-0.876652564153381,2407.15127234706
-0.884582048034028,2407.16127234706
-0.892253883607768,2407.17127234706
-0.900812189162044,2407.18127234706
-0.908377766912267,2407.19127234706
-0.914931449886179,2407.20127234706
-0.921474867316382,2407.21127234706
-0.928327476851987,2407.22127234706
-0.936022651532051,2407.23127234706
-0.943094013202127,2407.24127234706
-0.949306028633122,2407.25127234706
-0.953117512180245,2407.26127234706
-0.952899204113017,2407.27127234706
-0.946821176491485,2407.28127234706
-0.934704521357472,2407.29127234706
-0.916023355776211,2407.30127234706
-0.891827572872052,2407.31127234706
-0.864864350959221,2407.32127234706
-0.83620220152862,2407.33127234706
-0.808384436674013,2407.34127234706
-0.783765316743051,2407.35127234706
-0.764105477598387,2407.36127234706
-0.75016228656189,2407.37127234706
-0.741256402595614,2407.38127234706
-0.736583549511236,2407.39127234706
-0.736690964714871,2407.40127234706
-0.738851622237657,2407.41127234706
-0.742441789856875,2407.42127234706
-0.74842071761826,2407.43127234706
-0.755715904553814,2407.44127234706
-0.763170958165217,2407.45127234706
-0.770293442411037,2407.46127234706
-0.776860639610077,2407.47127234706
-0.781527042998713,2407.48127234706
-0.785690669433028,2407.49127234706
-0.790306228619139,2407.50127234706
-0.795899030058797,2407.51127234706
-0.801965079275077,2407.52127234706
-0.808752661192156,2407.53127234706
-0.81557975196688,2407.54127234706
-0.821845486336528,2407.55127234706
-0.827345759977608,2407.56127234706
-0.832295366484843,2407.57127234706
-0.836833426170216,2407.58127234706
-0.839501374317461,2407.59127234706
-0.8408560160069,2407.60127234706
-0.84111746364461,2407.61127234706
-0.839495540937301,2407.62127234706
-0.837099459329424,2407.63127234706
-0.834934606312371,2407.64127234706
-0.833251297223666,2407.65127234706
-0.831403493904027,2407.66127234706
-0.830599901096929,2407.67127234706
-0.830931402040243,2407.68127234706
-0.831838730882283,2407.69127234706
-0.833909678795222,2407.70127234706
-0.837347202228709,2407.71127234706
-0.841676092827079,2407.72127234706
-0.846109027500405,2407.73127234706
-0.850322625863326,2407.74127234706
-0.854305615330905,2407.75127234706
-0.856544474144573,2407.76127234706
-0.859505320122309,2407.77127234706
-0.863160051538658,2407.78127234706
-0.867988105822081,2407.79127234706
-0.873903967569378,2407.80127234706
-0.879784767502761,2407.81127234706
-0.88531768940125,2407.82127234706
-0.889741388392876,2407.83127234706
-0.892983382118183,2407.84127234706
-0.896295286900637,2407.85127234706
-0.899929902407962,2407.86127234706
-0.903549499981037,2407.87127234706
-0.907834487239999,2407.88127234706
-0.91223256045335,2407.89127234706
-0.916086069013527,2407.90127234706
-0.919599283532688,2407.91127234706
-0.923289156240675,2407.92127234706
-0.927232073889605,2407.93127234706
-0.93127075568054,2407.94127234706
-0.93515229465576,2407.95127234706
-0.938627511677599,2407.96127234706
-0.941615131931581,2407.97127234706
-0.945106135937045,2407.98127234706
-0.949357905050471,2407.99127234706
-0.954824371276246,2408.00127234706
-0.960555056436322,2408.01127234706
-0.965455059258283,2408.02127234706
-0.968243172873783,2408.03127234706
-0.96662156886713,2408.04127234706
-0.959820181656743,2408.05127234706
-0.946206276871832,2408.06127234706
-0.926935072098047,2408.07127234706
-0.901187113331152,2408.08127234706
-0.871712199343162,2408.09127234706
-0.840440878842428,2408.10127234706
-0.808830623000831,2408.11127234706
-0.780420949658992,2408.12127234706
-0.75687136103474,2408.13127234706
-0.739205169958411,2408.14127234706
-0.726430164458442,2408.15127234706
-0.717798839670409,2408.16127234706
-0.712206078228428,2408.17127234706
-0.709133472247954,2408.18127234706
-0.708620046876826,2408.19127234706
-0.710851244153226,2408.20127234706
-0.715380764060213,2408.21127234706
-0.720883378894028,2408.22127234706
-0.72679292534622,2408.23127234706
-0.732101447339694,2408.24127234706
-0.735992830691993,2408.25127234706
-0.739500300687574,2408.26127234706
-0.743989740892274,2408.27127234706
-0.748768160627792,2408.28127234706
-0.753365511785672,2408.29127234706
-0.758478692946086,2408.30127234706
-0.763229370043478,2408.31127234706
-0.766012180332556,2408.32127234706
-0.767567889927968,2408.33127234706
-0.767761177726926,2408.34127234706
-0.767227551885909,2408.35127234706
-0.76613468968011,2408.36127234706
-0.764209864769123,2408.37127234706
-0.760883582926505,2408.38127234706
-0.75678909364665,2408.39127234706
-0.752064816733375,2408.40127234706
-0.747994956646108,2408.41127234706
-0.743401660478689,2408.42127234706
-0.738845473967424,2408.43127234706
-0.736723132227307,2408.44127234706
-0.732052672264139,2408.45127234706
-0.728071622830388,2408.46127234706
-0.725916419508329,2408.47127234706
-0.726914198255754,2408.48127234706
-0.729974767867009,2408.49127234706
-0.73369812196774,2408.50127234706
-0.739427755288695,2408.51127234706
-0.741443311750482,2408.52127234706
-0.742171433376899,2408.53127234706
-0.743593094046812,2408.54127234706
-0.746352301394303,2408.55127234706
-0.749694194317293,2408.56127234706
-0.753165547422203,2408.57127234706
-0.758509822804288,2408.58127234706
-0.761155078486941,2408.59127234706
-0.76309703481979,2408.60127234706
-0.765244785825676,2408.61127234706
-0.768479294685289,2408.62127234706
-0.772376139644052,2408.63127234706
-0.77527534263151,2408.64127234706
-0.779494822241856,2408.65127234706
-0.780557947463068,2408.66127234706
-0.781566744868483,2408.67127234706
-0.783870125802667,2408.68127234706
-0.787787208883065,2408.69127234706
-0.792766389669434,2408.70127234706
-0.79669651644633,2408.71127234706
-0.802258088500487,2408.72127234706
-0.803745023989174,2408.73127234706
-0.803949820132496,2408.74127234706
-0.805220972871692,2408.75127234706
-0.807915266506867,2408.76127234706
-0.811756384903379,2408.77127234706
-0.815417422023709,2408.78127234706
-0.820689281488036,2408.79127234706
-0.822251185362931,2408.80127234706
-0.822830743339021,2408.81127234706
-0.823781353471435,2408.82127234706
-0.824463502332521,2408.83127234706
-0.822807090159126,2408.84127234706
-0.814502568736057,2408.85127234706
-0.801115656013401,2408.86127234706
-0.77633515070846,2408.87127234706
-0.743773608906565,2408.88127234706
-0.706180247816639,2408.89127234706
-0.666522189818874,2408.90127234706
-0.627113738253298,2408.91127234706
-0.588695378865443,2408.92127234706
-0.554931803576814,2408.93127234706
-0.522437510296361,2408.94127234706
-0.493511182765649,2408.95127234706
-0.470371661149485,2408.96127234706
-0.453795957870645,2408.97127234706
-0.442474170954195,2408.98127234706
-0.433870169159768,2408.99127234706
-0.430801783939939,2409.00127234706
-0.426744828468301,2409.01127234706
-0.423860555421911,2409.02127234706
-0.423265122993566,2409.03127234706
-0.424939477758883,2409.04127234706
-0.427338605131356,2409.05127234706
-0.429227615590971,2409.06127234706
-0.432646316104333,2409.07127234706
-0.432498917123138,2409.08127234706
-0.432507108312535,2409.09127234706
-0.433812732713684,2409.10127234706
-0.43683305291058,2409.11127234706
-0.441142836370656,2409.12127234706
-0.44445008560607,2409.13127234706
-0.448508240614994,2409.14127234706
-0.448582042994181,2409.15127234706
-0.446526922225204,2409.16127234706
-0.444051744298316,2409.17127234706
-0.441840687913936,2409.18127234706
-0.438769633178103,2409.19127234706
-0.434791241811992,2409.20127234706
-0.431795626373047,2409.21127234706
-0.424710048622455,2409.22127234706
-0.417114849449121,2409.23127234706
-0.411183924783147,2409.24127234706
-0.407256912858076,2409.25127234706
-0.404840803493548,2409.26127234706
-0.403444466844681,2409.27127234706
-0.404012709183171,2409.28127234706
-0.40212410768722,2409.29127234706
-0.400360770914822,2409.30127234706
-0.400120515876333,2409.31127234706
-0.403048429600129,2409.32127234706
-0.407174322829717,2409.33127234706
-0.411766527289594,2409.34127234706
-0.417814802615835,2409.35127234706
-0.420392954433126,2409.36127234706
-0.421808987719431,2409.37127234706
-0.424165655508563,2409.38127234706
-0.428294816210174,2409.39127234706
-0.432883203125864,2409.40127234706
-0.437696496012352,2409.41127234706
-0.442203574664247,2409.42127234706
-0.444924630327625,2409.43127234706
-0.449016180215935,2409.44127234706
-0.45007605399074,2409.45127234706
-0.450803941947101,2409.46127234706
-0.453397721528497,2409.47127234706
-0.458063917687326,2409.48127234706
-0.464142689282859,2409.49127234706
-0.469253317520207,2409.50127234706
-0.475605729557257,2409.51127234706
-0.478404466748724,2409.52127234706
-0.480127958451328,2409.53127234706
-0.48277214914528,2409.54127234706
-0.487686329185583,2409.55127234706
-0.493880104817077,2409.56127234706
-0.50001080799892,2409.57127234706
-0.50719934944803,2409.58127234706
-0.511074179713065,2409.59127234706
-0.513879560132396,2409.60127234706
-0.517437741039783,2409.61127234706
-0.522325067709988,2409.62127234706
-0.52848920230029,2409.63127234706
-0.533701891256757,2409.64127234706
-0.541296481782604,2409.65127234706
-0.544892553636565,2409.66127234706
-0.547459071824947,2409.67127234706
-0.550582209269143,2409.68127234706
-0.553403731624026,2409.69127234706
-0.55356719159664,2409.70127234706
-0.547011121099596,2409.71127234706
-0.534338875463858,2409.72127234706
-0.509010563202446,2409.73127234706
-0.474192775964319,2409.74127234706
-0.432642590997552,2409.75127234706
-0.38706887305476,2409.76127234706
-0.339305063053986,2409.77127234706
-0.290772170007803,2409.78127234706
-0.246110134674133,2409.79127234706
-0.203018193340895,2409.80127234706
-0.16600414484367,2409.81127234706
-0.1367240416566,2409.82127234706
-0.115931380964906,2409.83127234706
-0.102373994416184,2409.84127234706
-0.0926646620583056,2409.85127234706
-0.0884879078877815,2409.86127234706
-0.0841163952791213,2409.87127234706
-0.0812105567405561,2409.88127234706
-0.0810666527658546,2409.89127234706
-0.0841471595787257,2409.90127234706
-0.0881747476976143,2409.91127234706
-0.0919688730889528,2409.92127234706
-0.0966396163765606,2409.93127234706
-0.0983019610361334,2409.94127234706
-0.0991934206097283,2409.95127234706
-0.101437180240153,2409.96127234706
-0.106035898824671,2409.97127234706
-0.111974474616539,2409.98127234706
-0.117869509240621,2409.99127234706
-0.124539129208668,2410.00127234706
-0.126738302423982,2410.01127234706
-0.126619594954566,2410.02127234706
-0.126069219379336,2410.03127234706
-0.125077136109446,2410.04127234706
-0.123193450283537,2410.05127234706
-0.119148649588607,2410.06127234706
-0.116169595341509,2410.07127234706
-0.110121636845657,2410.08127234706
-0.10314892581596,2410.09127234706
-0.0982660029380149,2410.10127234706
-0.0953124712277699,2410.11127234706
-0.0938267676036226,2410.12127234706
-0.0922225558335343,2410.13127234706
-0.0929097768592243,2410.14127234706
-0.0919354891822252,2410.15127234706
-0.0908054063120479,2410.16127234706
-0.0919227737247003,2410.17127234706
-0.095869269283503,2410.18127234706
-0.101152989748456,2410.19127234706
-0.106450077354387,2410.20127234706
-0.112800190336596,2410.21127234706
-0.116139574908481,2410.22127234706
-0.118559439811002,2410.23127234706
-0.121970370481158,2410.24127234706
-0.127600985979364,2410.25127234706
-0.134083174577153,2410.26127234706
-0.140508333213393,2410.27127234706
-0.147923689370362,2410.28127234706
-0.152268634940463,2410.29127234706
-0.156326313544879,2410.30127234706
-0.160996287423808,2410.31127234706
-0.168029771816275,2410.32127234706
-0.175803196715968,2410.33127234706
-0.183156014592877,2410.34127234706
-0.19163305559075,2410.35127234706
-0.196757200947772,2410.36127234706
-0.200641975751326,2410.37127234706
-0.205705931267788,2410.38127234706
-0.21311073208785,2410.39127234706
-0.22155292354642,2410.40127234706
-0.230588313508882,2410.41127234706
-0.238757264479417,2410.42127234706
-0.244812710566231,2410.43127234706
-0.251932241438024,2410.44127234706
-0.255850051565572,2410.45127234706
-0.25984140386308,2410.46127234706
-0.265592338699433,2410.47127234706
-0.273250253202018,2410.48127234706
-0.281922458416527,2410.49127234706
-0.289912469238667,2410.50127234706
-0.298889439226805,2410.51127234706
-0.303981373052087,2410.52127234706
-0.307001347004626,2410.53127234706
-0.310069449399057,2410.54127234706
-0.311123980609214,2410.55127234706
-0.30764242198883,2410.56127234706
-0.29524622283928,2410.57127234706
-0.274687967355071,2410.58127234706
-0.240792355485074,2410.59127234706
-0.196596767276068,2410.60127234706
-0.147144134754997,2410.61127234706
-0.0954138090135547,2410.62127234706
-0.0449079417226477,2410.63127234706
0.00327968696886014,2410.64127234706
0.0440454797124838,2410.65127234706
0.0817468561911686,2410.66127234706
0.112210964102691,2410.67127234706
0.13326917288507,2410.68127234706
0.14667821129576,2410.69127234706
0.152719827305484,2410.70127234706
0.154708282476359,2410.71127234706
0.151705378499783,2410.72127234706
0.148902710647359,2410.73127234706
0.145808222678642,2410.74127234706
0.139639062967456,2410.75127234706
0.131528027878476,2410.76127234706
0.121892625636289,2410.77127234706
0.111922503260296,2410.78127234706
0.0997368824095996,2410.79127234706
0.0903563077410419,2410.80127234706
0.0817641376163244,2410.81127234706
0.0722146775527472,2410.82127234706
0.0622290050501213,2410.83127234706
0.0523799953352731,2410.84127234706
0.0444436387542931,2410.85127234706
0.0376932451447527,2410.86127234706
0.0361132292624467,2410.87127234706
0.0373508223688965,2410.88127234706
0.0401709193676772,2410.89127234706
0.0430188404909044,2410.90127234706
0.0464671401901192,2410.91127234706
0.0513884815325856,2410.92127234706
0.0544227379986511,2410.93127234706
0.0603382451908136,2410.94127234706
0.066265784221014,2410.95127234706
0.0703437752087059,2410.96127234706
0.0714125598726094,2410.97127234706
0.0703295911523891,2410.98127234706
0.0686407454643165,2410.99127234706
0.0636907888837908,2411.00127234706
0.0609608118488778,2411.01127234706
0.0584670894132217,2411.02127234706
0.0543374417720083,2411.03127234706
0.0482199658534072,2411.04127234706
0.0407181148442638,2411.05127234706
0.0337561365556995,2411.06127234706
0.0244854664809117,2411.07127234706
0.0181270021732763,2411.08127234706
0.0126496874227799,2411.09127234706
0.00617111049189722,2411.10127234706
-0.00130211073090511,2411.11127234706
-0.00909950975604643,2411.12127234706
-0.015988523124169,2411.13127234706
-0.0243793409584657,2411.14127234706
-0.0298303505692407,2411.15127234706
-0.0345084955240441,2411.16127234706
-0.0401233211932543,2411.17127234706
-0.0476698949468616,2411.18127234706
-0.0560042254095507,2411.19127234706
-0.0642620268473865,2411.20127234706
-0.0734741500058702,2411.21127234706
-0.0796615226116389,2411.22127234706
-0.0852577594492464,2411.23127234706
-0.0917462898789406,2411.24127234706
-0.100576057838043,2411.25127234706
-0.110203419513276,2411.26127234706
-0.119444860888881,2411.27127234706
-0.129986812410531,2411.28127234706
-0.137215412268586,2411.29127234706
-0.143237690465188,2411.30127234706
-0.149923434701979,2411.31127234706
-0.157545865867512,2411.32127234706
-0.166139993555321,2411.33127234706
-0.174194203654353,2411.34127234706
-0.183394145858481,2411.35127234706
-0.189645133436758,2411.36127234706
-0.194691690629851,2411.37127234706
-0.200876904222545,2411.38127234706
-0.207545228447822,2411.39127234706
-0.212171885178661,2411.40127234706
-0.211799447504353,2411.41127234706
-0.202873900527193,2411.42127234706
-0.181924131166142,2411.43127234706
-0.150494477618251,2411.44127234706
-0.104805049511654,2411.45127234706
-0.048875612953093,2411.46127234706
0.0116686521757824,2411.47127234706
0.0734741075847947,2411.48127234706
0.132942319645141,2411.49127234706
0.189441850279909,2411.50127234706
0.237722151253594,2411.51127234706
0.280655042495327,2411.52127234706
0.315455843898433,2411.53127234706
0.341444259979266,2411.54127234706
0.358299424897572,2411.55127234706
0.36764502926175,2411.56127234706
0.372292435112057,2411.57127234706
0.370515583515356,2411.58127234706
0.368003925700529,2411.59127234706
0.364340567707219,2411.60127234706
0.359076053843072,2411.61127234706
0.352283687127094,2411.62127234706
0.344510711979326,2411.63127234706
0.337376134704002,2411.64127234706
0.328044747675791,2411.65127234706
0.320736718686405,2411.66127234706
0.313516656875999,2411.67127234706
0.304494371605751,2411.68127234706
0.293208382267535,2411.69127234706
0.281204048903537,2411.70127234706
0.270408921376519,2411.71127234706
0.259865168710174,2411.72127234706
0.254580746143036,2411.73127234706
0.253121996383887,2411.74127234706
0.253515127292356,2411.75127234706
0.255021923416934,2411.76127234706
0.257182079725486,2411.77127234706
0.261192571158196,2411.78127234706
0.264430337320989,2411.79127234706
0.270926209037768,2411.80127234706
0.277748011003154,2411.81127234706
0.283062250602009,2411.82127234706
0.285516778443597,2411.83127234706
0.285637790541849,2411.84127234706
0.284995862107659,2411.85127234706
0.281149944811987,2411.86127234706
0.279361648517142,2411.87127234706
0.276985826488803,2411.88127234706
0.272423268817558,2411.89127234706
0.264893675026024,2411.90127234706
0.255879874817167,2411.91127234706
0.246867813591934,2411.92127234706
0.235139625744694,2411.93127234706
0.226641660488021,2411.94127234706
0.219344780170179,2411.95127234706
0.211529234548723,2411.96127234706
0.20201866596834,2411.97127234706
0.19203433378134,2411.98127234706
0.182569940566013,2411.99127234706
0.170534670152463,2412.00127234706
0.161754009205831,2412.01127234706
0.153396977718101,2412.02127234706
0.144097384294168,2412.03127234706
0.133637157590052,2412.04127234706
0.122965033904712,2412.05127234706
0.113687177274991,2412.06127234706
0.103235270536339,2412.07127234706
0.0954368215364745,2412.08127234706
0.0885069807759279,2412.09127234706
0.0803147527931127,2412.10127234706
0.0702914272705333,2412.11127234706
0.0593495180805246,2412.12127234706
0.0485246060188431,2412.13127234706
0.0359041528600299,2412.14127234706
0.0266859321256608,2412.15127234706
0.0182048650502779,2412.16127234706
0.00886241576356812,2412.17127234706
-0.0013226420209765,2412.18127234706
-0.0119278721405105,2412.19127234706
-0.0217813381436384,2412.20127234706
-0.0329880866194628,2412.21127234706
-0.0406269841891586,2412.22127234706
-0.0481421849042974,2412.23127234706
-0.0563860262339081,2412.24127234706
-0.0662081415078327,2412.25127234706
-0.0764919591206291,2412.26127234706
-0.086376884598911,2412.27127234706
-0.0967145120901906,2412.28127234706
-0.101131573666841,2412.29127234706
-0.0998890202515801,2412.30127234706
-0.0906395270173731,2412.31127234706
-0.0717212649330067,2412.32127234706
-0.0404694540238824,2412.33127234706
0.00415095476682675,2412.34127234706
0.0586478767767214,2412.35127234706
0.124581958278405,2412.36127234706
0.197091289496343,2412.37127234706
0.2703585564646,2412.38127234706
0.33923095910187,2412.39127234706
0.401251472045123,2412.40127234706
0.454006509489168,2412.41127234706
0.496875881758188,2412.42127234706
0.530207869388326,2412.43127234706
0.552014551728466,2412.44127234706
0.567441403053384,2412.45127234706
0.575846174799778,2412.46127234706
0.576799643971614,2412.47127234706
0.570766201409111,2412.48127234706
0.560773489321212,2412.49127234706
0.548869087485119,2412.50127234706
0.534495442325945,2412.51127234706
0.523220600470713,2412.52127234706
0.512863705608381,2412.53127234706
0.501678054714559,2412.54127234706
0.48848119434465,2412.55127234706
0.473600675031735,2412.56127234706
0.458839488328443,2412.57127234706
0.441783653688241,2412.58127234706
0.428416842248581,2412.59127234706
0.417073809930915,2412.60127234706
0.406744300604771,2412.61127234706
0.397391198485051,2412.62127234706
0.389813507967265,2412.63127234706
0.385226619875403,2412.64127234706
0.381934957052338,2412.65127234706
0.383740649476547,2412.66127234706
0.388975035593963,2412.67127234706
0.394884120048795,2412.68127234706
0.399728420483803,2412.69127234706
0.403371230641316,2412.70127234706
0.406449635071945,2412.71127234706
0.406226945506902,2412.72127234706
0.406988981852941,2412.73127234706
0.407359564067042,2412.74127234706
0.405496944862278,2412.75127234706
0.400905290958029,2412.76127234706
0.394328964988148,2412.77127234706
0.385840499901954,2412.78127234706
0.374389346974436,2412.79127234706
0.365171790606007,2412.80127234706
0.356542268031175,2412.81127234706
0.346392807132264,2412.82127234706
0.335049988586785,2412.83127234706
0.322324332653964,2412.84127234706
0.309759147296953,2412.85127234706
0.295717788837315,2412.86127234706
0.284732278239722,2412.87127234706
0.275019418014139,2412.88127234706
0.264205694133601,2412.89127234706
0.252643590759649,2412.90127234706
0.240298614529853,2412.91127234706
0.227945624326915,2412.92127234706
0.214361812571402,2412.93127234706
0.203960755321411,2412.94127234706
0.1942368406888,2412.95127234706
0.184056097084203,2412.96127234706
0.172430832840691,2412.97127234706
0.159920129301025,2412.98127234706
0.14809629106678,2412.99127234706
0.135036255738891,2413.00127234706
0.124759892493101,2413.01127234706
0.115558202101455,2413.02127234706
0.105315688852119,2413.03127234706
0.0943890718659523,2413.04127234706
0.0829017225002949,2413.05127234706
0.0721036684436137,2413.06127234706
0.0598504572200423,2413.07127234706
0.0504638697269092,2413.08127234706
0.0419485759814451,2413.09127234706
0.0323325900374746,2413.10127234706
0.0213865866312319,2413.11127234706
0.00937321016858937,2413.12127234706
-0.0022168573026031,2413.13127234706
-0.014762459210484,2413.14127234706
-0.0240573987843649,2413.15127234706
-0.0319530338130279,2413.16127234706
-0.0402911439205985,2413.17127234706
-0.0499202096835908,2413.18127234706
-0.0592229035805155,2413.19127234706
-0.0649375589392994,2413.20127234706
-0.0654707863557215,2413.21127234706
-0.0521058071144967,2413.22127234706
-0.023636531790618,2413.23127234706
0.0199501219105345,2413.24127234706
0.0774604793318667,2413.25127234706
0.146480136429054,2413.26127234706
0.224108675084255,2413.27127234706
0.303198043534426,2413.28127234706
0.383798205763074,2413.29127234706
0.458618407612063,2413.30127234706
0.522917286312999,2413.31127234706
0.573685468575461,2413.32127234706
0.610841814591486,2413.33127234706
0.635770371957355,2413.34127234706
0.647872463965988,2413.35127234706
0.653942030488987,2413.36127234706
0.653969029193497,2413.37127234706
0.647884466482456,2413.38127234706
0.636526949932507,2413.39127234706
0.621270074766554,2413.40127234706
0.604160168547097,2413.41127234706
0.586806209381768,2413.42127234706
0.570776764837814,2413.43127234706
0.552465010026331,2413.44127234706
0.536633594962859,2413.45127234706
0.520684212237061,2413.46127234706
0.502755582636622,2413.47127234706
0.483690873782498,2413.48127234706
0.46457848766246,2413.49127234706
0.447782868254937,2413.50127234706
0.431848954724308,2413.51127234706
0.421599850632367,2413.52127234706
0.415515331117757,2413.53127234706
0.412025803316732,2413.54127234706
0.410655143755277,2413.55127234706
0.411585159537262,2413.56127234706
0.415687631792569,2413.57127234706
0.419684271374372,2413.58127234706
0.427226730986068,2413.59127234706
0.434865761078955,2413.60127234706
0.440626679161777,2413.61127234706
0.443315676721971,2413.62127234706
0.443735624928722,2413.63127234706
0.442899258921212,2413.64127234706
0.438282218226304,2413.65127234706
0.434953650080807,2413.66127234706
0.430846890565603,2413.67127234706
0.424195966490363,2413.68127234706
0.414824286955197,2413.69127234706
0.403667457039094,2413.70127234706
0.391909641626973,2413.71127234706
0.378018592377928,2413.72127234706
0.36731060666334,2413.73127234706
0.356993913643387,2413.74127234706
0.345803166185374,2413.75127234706
0.333254668946393,2413.76127234706
0.320032586464115,2413.77127234706
0.308199694657553,2413.78127234706
0.294533272691608,2413.79127234706
0.28435906211519,2413.80127234706
0.275172946809158,2413.81127234706
0.265267138478851,2413.82127234706
0.253948464484891,2413.83127234706
0.241353214653796,2413.84127234706
0.229248605995306,2413.85127234706
0.215252744045783,2413.86127234706
0.204236856099754,2413.87127234706
0.194194537382943,2413.88127234706
0.183634681224793,2413.89127234706
0.172466550909467,2413.90127234706
0.160996621399366,2413.91127234706
0.150593897508882,2413.92127234706
0.138607640671479,2413.93127234706
0.129142991931255,2413.94127234706
0.121004671965882,2413.95127234706
0.111310449421561,2413.96127234706
0.100135691949347,2413.97127234706
0.0877462735531617,2413.98127234706
0.076670929106316,2413.99127234706
0.0648012992632664,2414.00127234706
0.0560876109327822,2414.01127234706
0.0486371564159686,2414.02127234706
0.0398451090886762,2414.03127234706
0.0299220959025698,2414.04127234706
0.0205812277423284,2414.05127234706
0.0161225313789871,2414.06127234706
0.0189164874056455,2414.07127234706
0.0376749772391561,2414.08127234706
0.0729937731221869,2414.09127234706
0.123979822392782,2414.10127234706
0.189396088751635,2414.11127234706
0.265739433019723,2414.12127234706
0.348990085332966,2414.13127234706
0.43159377312232,2414.14127234706
0.512400948259546,2414.15127234706
0.585770697569516,2414.16127234706
0.646486095795164,2414.17127234706
0.692819617702899,2414.18127234706
0.724982244396408,2414.19127234706
0.74486605116193,2414.20127234706
0.751710276628222,2414.21127234706
0.751248464250119,2414.22127234706
0.744020240455963,2414.23127234706
0.730256153576544,2414.24127234706
0.712140233018201,2414.25127234706
0.691515744158237,2414.26127234706
0.670173491578553,2414.27127234706
0.646894895984265,2414.28127234706
0.625914522556575,2414.29127234706
0.605550174668247,2414.30127234706
0.583815436919855,2414.31127234706
0.560680742251937,2414.32127234706
0.537581889230233,2414.33127234706
0.515324206145514,2414.34127234706
0.493288357042995,2414.35127234706
0.477141751004763,2414.36127234706
0.465727732901566,2414.37127234706
0.457567661645048,2414.38127234706
0.452776324270946,2414.39127234706
0.450866832758094,2414.40127234706
0.451653969712101,2414.41127234706
0.456295988769979,2414.42127234706
0.463622155398034,2414.43127234706
0.470774178828048,2414.44127234706
0.479904374049805,2414.45127234706
0.488604039816583,2414.46127234706
0.494168670197071,2414.47127234706
0.495186520788995,2414.48127234706
0.493138759488559,2414.49127234706
0.488750012355401,2414.50127234706
0.480810364597694,2414.51127234706
0.473996964990885,2414.52127234706
0.466070972408422,2414.53127234706
0.457031395885161,2414.54127234706
0.445954291554723,2414.55127234706
0.433447824936212,2414.56127234706
0.420390739471065,2414.57127234706
0.405298402118925,2414.58127234706
0.393341393117839,2414.59127234706
0.381577422605288,2414.60127234706
0.370165534869238,2414.61127234706
0.357418023824636,2414.62127234706
0.34370181941397,2414.63127234706
0.330689144382313,2414.64127234706
0.316520333855273,2414.65127234706
0.305519894216143,2414.66127234706
0.295406555741393,2414.67127234706
0.284748402846857,2414.68127234706
0.272500318593056,2414.69127234706
0.259913897090295,2414.70127234706
0.248071724809592,2414.71127234706
0.234086994232453,2414.72127234706
0.222979657281867,2414.73127234706
0.21317136588594,2414.74127234706
0.20277745569927,2414.75127234706
0.191175340252444,2414.76127234706
0.178506123891518,2414.77127234706
0.166540630814091,2414.78127234706
0.15247523414284,2414.79127234706
0.141663512984301,2414.80127234706
0.132767262696155,2414.81127234706
0.123742242553373,2414.82127234706
0.114112215071959,2414.83127234706
0.103796368241066,2414.84127234706
0.0937725357773745,2414.85127234706
0.0816233535274028,2414.86127234706
0.0721325512587255,2414.87127234706
0.0629372160778526,2414.88127234706
0.0532686842799386,2414.89127234706
0.0446807484974414,2414.90127234706
0.0406643433416255,2414.91127234706
0.0470837496135685,2414.92127234706
0.0665692247185479,2414.93127234706
0.107034525445323,2414.94127234706
0.16769395920024,2414.95127234706
0.244532971085161,2414.96127234706
0.332848987574752,2414.97127234706
0.427398216838507,2414.98127234706
0.5226164413664,2414.99127234706
0.611146565635838,2415.00127234706
0.692273352407035,2415.01127234706
0.760985987976551,2415.02127234706
0.814329059260613,2415.03127234706
0.851490601696319,2415.04127234706
0.874361570706392,2415.05127234706
0.886375491242228,2415.06127234706
0.886340042559275,2415.07127234706
0.881843878238711,2415.08127234706
0.871789621447898,2415.09127234706
0.856844791190488,2415.10127234706
0.837815405213231,2415.11127234706
0.817464593326913,2415.12127234706
0.797876314436725,2415.13127234706
0.777041956643344,2415.14127234706
0.759366706956627,2415.15127234706
0.742486487336103,2415.16127234706
0.723936952581019,2415.17127234706
0.703605408302301,2415.18127234706
0.68210364552271,2415.19127234706
0.661105513591461,2415.20127234706
0.63980004215538,2415.21127234706
0.623841878409498,2415.22127234706
0.612557229553545,2415.23127234706
0.604798736237519,2415.24127234706
0.599672399046933,2415.25127234706
0.597444265207367,2415.26127234706
0.598522940300714,2415.27127234706
0.600135801681907,2415.28127234706
0.605982859854409,2415.29127234706
0.613678272937234,2415.30127234706
0.620994927337617,2415.31127234706
0.626747858472712,2415.32127234706
0.630057002264636,2415.33127234706
0.630705348385665,2415.34127234706
0.627273275506942,2415.35127234706
0.624035511441465,2415.36127234706
0.619403345771195,2415.37127234706
0.6119202081865,2415.38127234706
0.601625226650675,2415.39127234706
0.588738787314633,2415.40127234706
0.573695029950337,2415.41127234706
0.558961408197515,2415.42127234706
0.545079611114925,2415.43127234706
0.52871155758014,2415.44127234706
0.515519306115639,2415.45127234706
0.503163037948761,2415.46127234706
0.490000572646955,2415.47127234706
0.475326689353471,2415.48127234706
0.459649057426279,2415.49127234706
0.445288791461336,2415.50127234706
0.429286839231009,2415.51127234706
0.417715658428366,2415.52127234706
0.407512236810126,2415.53127234706
0.397131375617862,2415.54127234706
0.384503318089152,2415.55127234706
0.370581111621025,2415.56127234706
0.356473033863027,2415.57127234706
0.340359356969318,2415.58127234706
0.327404129821955,2415.59127234706
0.315910720743881,2415.60127234706
0.303444501174463,2415.61127234706
0.290283818294073,2415.62127234706
0.27752963873571,2415.63127234706
0.265101121673267,2415.64127234706
0.252000801843277,2415.65127234706
0.241760759835436,2415.66127234706
0.232692419767833,2415.67127234706
0.22292079097686,2415.68127234706
0.211841190351595,2415.69127234706
0.200789171087097,2415.70127234706
0.189782587671346,2415.71127234706
0.176317276450712,2415.72127234706
0.165496873807135,2415.73127234706
0.15600019857524,2415.74127234706
0.147736469953015,2415.75127234706
0.143845142906481,2415.76127234706
0.148935085454237,2415.77127234706
0.169129531818012,2415.78127234706
0.205940051044481,2415.79127234706
0.265646728240863,2415.80127234706
0.344613606020217,2415.81127234706
0.437082268984805,2415.82127234706
0.536417267952203,2415.83127234706
0.636828719890206,2415.84127234706
0.732367774072294,2415.85127234706
0.816383412789862,2415.86127234706
0.888776357481881,2415.87127234706
0.946094953877877,2415.88127234706
0.985649632091482,2415.89127234706
1.00921043195604,2415.90127234706
1.01979068125661,2415.91127234706
1.02012029454156,2415.92127234706
1.01063888868915,2415.93127234706
0.997248055552343,2415.94127234706
0.980586119930147,2415.95127234706
0.960637025656901,2415.96127234706
0.939090864759327,2415.97127234706
0.917151803043154,2415.98127234706
0.896541992679884,2415.99127234706
0.875384049184217,2416.00127234706
0.856201725313461,2416.01127234706
0.836975030869925,2416.02127234706
0.816041640836534,2416.03127234706
0.793843876518231,2416.04127234706
0.772072429941481,2416.05127234706
0.752446174014445,2416.06127234706
0.733602671133933,2416.07127234706
0.720880264779963,2416.08127234706
0.711909807161193,2416.09127234706
0.70541665987507,2416.10127234706
0.701526945984353,2416.11127234706
0.700665645726118,2416.12127234706
0.703597011496245,2416.13127234706
0.706532651749983,2416.14127234706
0.713682481581261,2416.15127234706
0.721324299285207,2416.16127234706
0.726756189767496,2416.17127234706
0.729931454642941,2416.18127234706
0.730008403695136,2416.19127234706
0.728007249946879,2416.20127234706
0.721894832148903,2416.21127234706
0.716010312535959,2416.22127234706
0.708317905859321,2416.23127234706
0.697222160231975,2416.24127234706
0.683560154614227,2416.25127234706
0.668048282186765,2416.26127234706
0.652065620559326,2416.27127234706
0.634102840056648,2416.28127234706
0.618358729429617,2416.29127234706
0.60375507934197,2416.30127234706
0.588490104777709,2416.31127234706
0.572045975914202,2416.32127234706
0.556035147052668,2416.33127234706
0.540326971171984,2416.34127234706
0.523651799979437,2416.35127234706
0.50995140129774,2416.36127234706
0.497642352605265,2416.37127234706
0.484498267243001,2416.38127234706
0.469977950606383,2416.39127234706
0.454789251982458,2416.40127234706
0.439584254397213,2416.41127234706
0.424780768097641,2416.42127234706
0.412369485215936,2416.43127234706
0.39840144878395,2416.44127234706
0.387770047107867,2416.45127234706
0.378088276033912,2416.46127234706
0.366862030291795,2416.47127234706
0.354395151625527,2416.48127234706
0.340967395679618,2416.49127234706
0.327636336790473,2416.50127234706
0.312609150574712,2416.51127234706
0.300783047874369,2416.52127234706
0.290205191785894,2416.53127234706
0.27855135703594,2416.54127234706
0.265617281238488,2416.55127234706
0.252372013629798,2416.56127234706
0.239208073224147,2416.57127234706
0.224239561644807,2416.58127234706
0.213666616553935,2416.59127234706
0.205867723662806,2416.60127234706
0.202936760853449,2416.61127234706
0.209592111409662,2416.62127234706
0.231437032412796,2416.63127234706
0.273382729838552,2416.64127234706
0.334891942332908,2416.65127234706
0.417453254317688,2416.66127234706
0.514509261726173,2416.67127234706
0.618350066702102,2416.68127234706
0.720400798545062,2416.69127234706
0.81482943359366,2416.70127234706
0.89792422823084,2416.71127234706
0.963349571214044,2416.72127234706
1.01450557714114,2416.73127234706
1.04936728484348,2416.74127234706
1.06794579933216,2416.75127234706
1.07175328880551,2416.76127234706
1.06446793991816,2416.77127234706
1.04918616768797,2416.78127234706
1.02684948636335,2416.79127234706
1.00461127331925,2416.80127234706
0.981860301570488,2416.81127234706
0.957736077876433,2416.82127234706
0.93220416422754,2416.83127234706
0.906584830000391,2416.84127234706
0.881461350064015,2416.85127234706
0.855236757528911,2416.86127234706
0.831896476548706,2416.87127234706
0.810105466521095,2416.88127234706
0.788549993682731,2416.89127234706
0.768151506378173,2416.90127234706
0.74994524539592,2416.91127234706
0.735616784526936,2416.92127234706
0.724519982744423,2416.93127234706
0.72107911849362,2416.94127234706
0.722889931800113,2416.95127234706
0.727719495496024,2416.96127234706
0.733778631477497,2416.97127234706
0.740870876109162,2416.98127234706
0.748665469998279,2416.99127234706
0.754470144406478,2417.00127234706
0.761933080654143,2417.01127234706
0.768129334622214,2417.02127234706
0.77064588089,2417.03127234706
0.769346549881163,2417.04127234706
0.763908363883701,2417.05127234706
0.756154190712848,2417.06127234706
0.743794874114942,2417.07127234706
0.73189818173167,2417.08127234706
0.719412578894874,2417.09127234706
0.704305338319305,2417.10127234706
0.687976778631933,2417.11127234706
0.67055568264904,2417.12127234706
0.653673538466619,2417.13127234706
0.635996143463309,2417.14127234706
0.621150998635274,2417.15127234706
0.607325078724774,2417.16127234706
0.592390805120133,2417.17127234706
0.575770737979815,2417.18127234706
0.558657486178126,2417.19127234706
0.542550826706799,2417.20127234706
0.525556493249518,2417.21127234706
0.511510719935682,2417.22127234706
0.498550820273432,2417.23127234706
0.485731572209458,2417.24127234706
0.47215832920968,2417.25127234706
0.458029793855505,2417.26127234706
0.443933996551344,2417.27127234706
0.42839363472304,2417.28127234706
0.415467105927804,2417.29127234706
0.402923848396064,2417.30127234706
0.390398659870118,2417.31127234706
0.376406858319077,2417.32127234706
0.363147143886982,2417.33127234706
0.351037419849161,2417.34127234706
0.337886317695978,2417.35127234706
0.327466533487831,2417.36127234706
0.317078658592424,2417.37127234706
0.305691036380704,2417.38127234706
0.292650997584087,2417.39127234706
0.279277700671088,2417.40127234706
0.265325304087451,2417.41127234706
0.253658766351671,2417.42127234706
0.246036453538198,2417.43127234706
0.244353510977305,2417.44127234706
0.258701923746965,2417.45127234706
0.291216994287203,2417.46127234706
0.344226666261865,2417.47127234706
0.416797372773797,2417.48127234706
0.506330108748575,2417.49127234706
0.608183952662246,2417.50127234706
0.713707039935046,2417.51127234706
0.819658034716917,2417.52127234706
0.916678874541963,2417.53127234706
0.99806046596419,2417.54127234706
1.05955404667345,2417.55127234706
1.10169409638604,2417.56127234706
1.12675050053813,2417.57127234706
1.13453191212059,2417.58127234706
1.13319974797047,2417.59127234706
1.12352250526638,2417.60127234706
1.10597728294805,2417.61127234706
1.08225921285838,2417.62127234706
1.05573512161423,2417.63127234706
1.02899715856985,2417.64127234706
1.00176284916179,2417.65127234706
0.978845343825543,2417.66127234706
0.958339495885333,2417.67127234706
0.937292881192995,2417.68127234706
0.914224637534803,2417.69127234706
0.890104848978485,2417.70127234706
0.866221833012232,2417.71127234706
0.842142671495204,2417.72127234706
0.822871418002331,2417.73127234706
0.807482034525122,2417.74127234706
0.795042157734949,2417.75127234706
0.785237057436073,2417.76127234706
0.779140507303565,2417.77127234706
0.777847738782868,2417.78127234706
0.778779511954107,2417.79127234706
0.785799866484136,2417.80127234706
0.795267552459191,2417.81127234706
0.804733622040562,2417.82127234706
0.811994301813877,2417.83127234706
0.816830435427359,2417.84127234706
0.818928459683823,2417.85127234706
0.816983482989289,2417.86127234706
0.814208369625863,2417.87127234706
0.808756815658961,2417.88127234706
0.799749125818925,2417.89127234706
0.786327482686107,2417.90127234706
0.769745727766915,2417.91127234706
0.751962451605864,2417.92127234706
0.731943841504156,2417.93127234706
0.715371930607531,2417.94127234706
0.699535037511362,2417.95127234706
0.683026684235033,2417.96127234706
0.665698998719745,2417.97127234706
0.64769536996378,2417.98127234706
0.630233860556985,2417.99127234706
0.611557896212068,2418.00127234706
0.59664048879158,2418.01127234706
0.58320949120312,2418.02127234706
0.569721790681568,2418.03127234706
0.555614702811555,2418.04127234706
0.540132404230073,2418.05127234706
0.525059953741285,2418.06127234706
0.507665908429388,2418.07127234706
0.49342547261799,2418.08127234706
0.480261991980892,2418.09127234706
0.466186491123277,2418.10127234706
0.451259773718854,2418.11127234706
0.436278998464348,2418.12127234706
0.421436916024109,2418.13127234706
0.405350616770019,2418.14127234706
0.392300162445333,2418.15127234706
0.379874598246933,2418.16127234706
0.366953549961555,2418.17127234706
0.353212927120126,2418.18127234706
0.338822869876973,2418.19127234706
0.32528296240407,2418.20127234706
0.310211319912494,2418.21127234706
0.298140039594763,2418.22127234706
0.287048900692042,2418.23127234706
0.275367613597583,2418.24127234706
0.262649789515311,2418.25127234706
0.249642214387559,2418.26127234706
0.235993599664816,2418.27127234706
0.221764892604387,2418.28127234706
0.212526765627846,2418.29127234706
0.209458267692355,2418.30127234706
0.216160423198255,2418.31127234706
0.238302615428549,2418.32127234706
0.280501227850648,2418.33127234706
0.346655489000191,2418.34127234706
0.43242700145671,2418.35127234706
0.536776004392569,2418.36127234706
0.650602011416558,2418.37127234706
0.764931863433739,2418.38127234706
0.871003544354016,2418.39127234706
0.963110608261796,2418.40127234706
1.03781511210637,2418.41127234706
1.09390693620223,2418.42127234706
1.13246173237687,2418.43127234706
1.15248349700522,2418.44127234706
1.16054643406804,2418.45127234706
1.15792334037418,2418.46127234706
1.1460189144213,2418.47127234706
1.12668359155689,2418.48127234706
1.10304466955416,2418.49127234706
1.07905926801995,2418.50127234706
1.05472772955769,2418.51127234706
1.03460544263238,2418.52127234706
1.01666224062192,2418.53127234706
0.99840349185979,2418.54127234706
0.978689297399897,2418.55127234706
0.957264232365688,2418.56127234706
0.936114170131417,2418.57127234706
0.912433407149666,2418.58127234706
0.892244785656412,2418.59127234706
0.875120998935286,2418.60127234706
0.859602761609386,2418.61127234706
0.846725976429646,2418.62127234706
0.83698063680853,2418.63127234706
0.831918459914451,2418.64127234706
0.82829554976585,2418.65127234706
0.830595312057735,2418.66127234706
0.835726010801799,2418.67127234706
0.841437989095384,2418.68127234706
0.845645311217918,2418.69127234706
0.848811238610667,2418.70127234706
0.851457553959807,2418.71127234706
0.850396271698355,2418.72127234706
0.850131803012377,2418.73127234706
0.847414770387498,2418.74127234706
0.840397559734189,2418.75127234706
0.828841079858755,2418.76127234706
0.814156616679597,2418.77127234706
0.798023605643225,2418.78127234706
0.779813125822786,2418.79127234706
0.764370983284154,2418.80127234706
0.749742552124532,2418.81127234706
0.734585560388549,2418.82127234706
0.717768599224205,2418.83127234706
0.699557029916634,2418.84127234706
0.681803697057009,2418.85127234706
0.662794131141216,2418.86127234706
0.646726026754403,2418.87127234706
0.632133727766639,2418.88127234706
0.617244860532313,2418.89127234706
0.600986270186502,2418.90127234706
0.584342071077694,2418.91127234706
0.567873738499894,2418.92127234706
0.549449139724483,2418.93127234706
0.534572147365871,2418.94127234706
0.520542091120289,2418.95127234706
0.506056128283224,2418.96127234706
0.490683853087587,2418.97127234706
0.475001886341091,2418.98127234706
0.459791030941574,2418.99127234706
0.443389733586932,2419.00127234706
0.429465697887278,2419.01127234706
0.416074936486592,2419.02127234706
0.401952879125652,2419.03127234706
0.386708572645141,2419.04127234706
0.370681912159276,2419.05127234706
0.355445180594481,2419.06127234706
0.339315738131308,2419.07127234706
0.32659290154502,2419.08127234706
0.314685642371706,2419.09127234706
0.302530241049018,2419.10127234706
0.289319180789968,2419.11127234706
0.27527450831619,2419.12127234706
0.262273432767384,2419.13127234706
0.247770602497631,2419.14127234706
0.236001167378321,2419.15127234706
0.224292904266224,2419.16127234706
0.212607643293304,2419.17127234706
0.19951037476369,2419.18127234706
0.185903333997765,2419.19127234706
0.173863659791437,2419.20127234706
0.164856246733014,2419.21127234706
0.16789009752524,2419.22127234706
0.186700472016004,2419.23127234706
0.22552445118362,2419.24127234706
0.286229033467324,2419.25127234706
0.3691292655811,2419.26127234706
0.470528042287514,2419.27127234706
0.581874617491297,2419.28127234706
0.699669471776435,2419.29127234706
0.813905460492405,2419.30127234706
0.915523045216683,2419.31127234706
0.998580320350246,2419.32127234706
1.06132256631384,2419.33127234706
1.10404442877186,2419.34127234706
1.12710506893992,2419.35127234706
1.13743305280713,2419.36127234706
1.13653794054946,2419.37127234706
1.12635556405529,2419.38127234706
1.10856770546189,2419.39127234706
1.08623687274798,2419.40127234706
1.0619024067594,2419.41127234706
1.03785210380291,2419.42127234706
1.01538476721332,2419.43127234706
0.9931415295162,2419.44127234706
0.975446244887243,2419.45127234706
0.959235942851608,2419.46127234706
0.941028279525086,2419.47127234706
0.921143412434363,2419.48127234706
0.899739807850425,2419.49127234706
0.878324167471702,2419.50127234706
0.856388889846411,2419.51127234706
0.838530354221732,2419.52127234706
0.823944267456019,2419.53127234706
0.812033267568936,2419.54127234706
0.801823663861848,2419.55127234706
0.795345804362117,2419.56127234706
0.792867087998649,2419.57127234706
0.791596369386417,2419.58127234706
0.79676612841012,2419.59127234706
0.804140154917554,2419.60127234706
0.810775848642286,2419.61127234706
0.815012906647319,2419.62127234706
0.815761874039723,2419.63127234706
0.814059957182657,2419.64127234706
0.807815769590801,2419.65127234706
0.801235469258432,2419.66127234706
0.792768721052341,2419.67127234706
0.78137014728485,2419.68127234706
0.766496732569393,2419.69127234706
0.749864753767534,2419.70127234706
0.731353255986739,2419.71127234706
0.711133544666889,2419.72127234706
0.692685523452296,2419.73127234706
0.675179594112412,2419.74127234706
0.657157728299373,2419.75127234706
0.638294211243983,2419.76127234706
0.618962247707823,2419.77127234706
0.599730919120401,2419.78127234706
0.579474511926266,2419.79127234706
0.562128537289994,2419.80127234706
0.545964580487663,2419.81127234706
0.529293630951978,2419.82127234706
0.511897322018095,2419.83127234706
0.494018198166296,2419.84127234706
0.476730729154601,2419.85127234706
0.458134683125675,2419.86127234706
0.442568049667708,2419.87127234706
0.428497841076038,2419.88127234706
0.414534803706716,2419.89127234706
0.399319213992703,2419.90127234706
0.383890227152825,2419.91127234706
0.368952699112791,2419.92127234706
0.351805885930361,2419.93127234706
0.337647752876159,2419.94127234706
0.323774187778589,2419.95127234706
0.308950553665671,2419.96127234706
0.293048805651064,2419.97127234706
0.276727866774485,2419.98127234706
0.261102740888938,2419.99127234706
0.244178762373294,2420.00127234706
0.230368232191773,2420.01127234706
0.218110373937307,2420.02127234706
0.205994235476993,2420.03127234706
0.19272655510816,2420.04127234706
0.178562441325685,2420.05127234706
0.16475763067144,2420.06127234706
0.149541838171626,2420.07127234706
0.137428802617953,2420.08127234706
0.126453330373586,2420.09127234706
0.114905007153227,2420.10127234706
0.102498022497325,2420.11127234706
0.0889729566900228,2420.12127234706
0.0759269676891949,2420.13127234706
0.0634563934122697,2420.14127234706
0.0592575574476853,2420.15127234706
0.0662121289664085,2420.16127234706
0.0892661133696835,2420.17127234706
0.133072370282158,2420.18127234706
0.199880593100052,2420.19127234706
0.289098317846845,2420.20127234706
0.393917933533454,2420.21127234706
0.510788359142667,2420.22127234706
0.628512734194249,2420.23127234706
0.737494746452327,2420.24127234706
0.830902886572701,2420.25127234706
0.905064829696949,2420.26127234706
0.959647455010426,2420.27127234706
0.992396811867924,2420.28127234706
1.01160214371172,2420.29127234706
1.01676136089486,2420.30127234706
1.00953398700809,2420.31127234706
0.991918112996631,2420.32127234706
0.96749829217095,2420.33127234706
0.940801876681592,2420.34127234706
0.911193913663744,2420.35127234706
0.884643330311029,2420.36127234706
0.860044464652627,2420.37127234706
0.835709391233851,2420.38127234706
0.811330173127006,2420.39127234706
0.786059462922887,2420.40127234706
0.760413553943795,2420.41127234706
0.735483836080007,2420.42127234706
0.712352605905395,2420.43127234706
0.690101488723416,2420.44127234706
0.673260127685971,2420.45127234706
0.660546322710687,2420.46127234706
0.651115518944452,2420.47127234706
0.645181044047889,2420.48127234706
0.643068263074775,2420.49127234706
0.645757756258709,2420.50127234706
0.649389878789571,2420.51127234706
0.658381822043847,2420.52127234706
0.669244357705287,2420.53127234706
0.678775335927819,2420.54127234706
0.685228533109313,2420.55127234706
0.687804725509343,2420.56127234706
0.68750566895429,2420.57127234706
0.681821255754277,2420.58127234706
0.676086529138262,2420.59127234706
0.66789832851468,2420.60127234706
0.655779737486657,2420.61127234706
0.640388167720852,2420.62127234706
0.622398300464008,2420.63127234706
0.603668650097851,2420.64127234706
0.582762199660436,2420.65127234706
0.564865505373168,2420.66127234706
0.547983158285758,2420.67127234706
0.530226058087442,2420.68127234706
0.511422899729705,2420.69127234706
0.492541765228516,2420.70127234706
0.474454755534694,2420.71127234706
0.456126776820548,2420.72127234706
0.441481898187244,2420.73127234706
0.428010514864331,2420.74127234706
0.414020683711609,2420.75127234706
0.399004589256875,2420.76127234706
0.382768281661229,2420.77127234706
0.366683994817635,2420.78127234706
0.348363745313084,2420.79127234706
0.333247024043779,2420.80127234706
0.319657019593809,2420.81127234706
0.305495660635896,2420.82127234706
0.291133313946978,2420.83127234706
0.276068402238636,2420.84127234706
0.261507979294552,2420.85127234706
0.244917064811614,2420.86127234706
0.231298782962713,2420.87127234706
0.218142609169816,2420.88127234706
0.204465451691915,2420.89127234706
0.18949314675783,2420.90127234706
0.173908898640526,2420.91127234706
0.159312171603707,2420.92127234706
0.143654466609013,2420.93127234706
0.131823035446782,2420.94127234706
0.120453874476127,2420.95127234706
0.108528743931401,2420.96127234706
0.0953602758849335,2420.97127234706
0.0818051469078837,2420.98127234706
0.0684530797828593,2420.99127234706
0.05444205127953,2421.00127234706
0.0435456286991215,2421.01127234706
0.0335718109789753,2421.02127234706
0.022934497896141,2421.03127234706
0.0129556650658143,2421.04127234706
0.0076356688653967,2421.05127234706
0.0121406380123562,2421.06127234706
0.0315203938246902,2421.07127234706
0.0756357075356814,2421.08127234706
0.1446102230711,2421.09127234706
0.235707948868899,2421.10127234706
0.342212096886078,2421.11127234706
0.457281782188581,2421.12127234706
0.573353388563189,2421.13127234706
0.680459403543242,2421.14127234706
0.776022691616315,2421.15127234706
0.854959721001167,2421.16127234706
0.912666936189232,2421.17127234706
0.949601593228554,2421.18127234706
0.967302448221334,2421.19127234706
0.970531818746534,2421.20127234706
0.960643737066754,2421.21127234706
0.945458677874876,2421.22127234706
0.92537801535012,2421.23127234706
0.900915518668532,2421.24127234706
0.874103662999055,2421.25127234706
0.846720625252168,2421.26127234706
0.820802474121935,2421.27127234706
0.794631648758507,2421.28127234706
0.772500441757442,2421.29127234706
0.751175615838085,2421.30127234706
0.728343746665075,2421.31127234706
0.704662655327641,2421.32127234706
0.679774134220463,2421.33127234706
0.656641839459415,2421.34127234706
0.6343369500391,2421.35127234706
0.617706630147686,2421.36127234706
0.605337981298239,2421.37127234706
0.596663902683501,2421.38127234706
0.591224215998954,2421.39127234706
0.588480746516531,2421.40127234706
0.588868560699751,2421.41127234706
0.592109895767385,2421.42127234706
0.598115366106811,2421.43127234706
0.6029118632758,2421.44127234706
0.610479625857385,2421.45127234706
0.617552197868883,2421.46127234706
0.620773206573824,2421.47127234706
0.620212523781587,2421.48127234706
0.615170358577831,2421.49127234706
0.60696549560551,2421.50127234706
0.593674743092711,2421.51127234706
0.580910252964831,2421.52127234706
0.566621546562596,2421.53127234706
0.549818303865415,2421.54127234706
0.530848985616678,2421.55127234706
0.510709290089368,2421.56127234706
0.4904740619176,2421.57127234706
0.469115618922675,2421.58127234706
0.450844027157471,2421.59127234706
0.433900437613385,2421.60127234706
0.416761962878599,2421.61127234706
0.399502483114737,2421.62127234706
0.382110395318621,2421.63127234706
0.365910122517881,2421.64127234706
0.348738647089805,2421.65127234706
0.3338818934274,2421.66127234706
0.319769045751273,2421.67127234706
0.304483666243329,2421.68127234706
0.288200132275,2421.69127234706
0.271676624992594,2421.70127234706
0.255640542710775,2421.71127234706
0.238312934937169,2421.72127234706
0.223293971391097,2421.73127234706
0.209696343629412,2421.74127234706
0.195198481149614,2421.75127234706
0.179878884994791,2421.76127234706
0.163031496748627,2421.77127234706
0.146704024404974,2421.78127234706
0.129492669912286,2421.79127234706
0.114827782045661,2421.80127234706
0.101057872361986,2421.81127234706
0.0869139289127621,2421.82127234706
0.0718999060210031,2421.83127234706
0.0560891189115467,2421.84127234706
0.0415144790905462,2421.85127234706
0.0257549305231237,2421.86127234706
0.0135616461383387,2421.87127234706
0.00225540348767036,2421.88127234706
-0.00947840818615038,2421.89127234706
-0.0221116581203921,2421.90127234706
-0.0354371625561405,2421.91127234706
-0.0478478699441627,2421.92127234706
-0.0616878892814388,2421.93127234706
-0.0729770865727581,2421.94127234706
-0.0840595594856621,2421.95127234706
-0.0955963918194957,2421.96127234706
-0.108049144292847,2421.97127234706
-0.119894154386159,2421.98127234706
-0.127421812216086,2421.99127234706
-0.126868680028167,2422.00127234706
-0.10859697926687,2422.01127234706
-0.0684142216707855,2422.02127234706
-0.00452148121818913,2422.03127234706
0.0816355009546731,2422.04127234706
0.18718830854621,2422.05127234706
0.305352504825859,2422.06127234706
0.42627256189187,2422.07127234706
0.545973545291963,2422.08127234706
0.654432116778768,2422.09127234706
0.745649530239873,2422.10127234706
0.815271027564499,2422.11127234706
0.862249530231719,2422.12127234706
0.890260367884305,2422.13127234706
0.900385529290501,2422.14127234706
0.899969966345491,2422.15127234706
0.890762321601752,2422.16127234706
0.873749087195688,2422.17127234706
0.8506356797699,2422.18127234706
0.823774880592222,2422.19127234706
0.796630631352756,2422.20127234706
0.76871404158508,2422.21127234706
0.746341897651995,2422.22127234706
0.727194250188694,2422.23127234706
0.708688449304611,2422.24127234706
0.688916397109691,2422.25127234706
0.667883344878593,2422.26127234706
0.646439505175066,2422.27127234706
0.623142532048206,2422.28127234706
0.603433131189087,2422.29127234706
0.585686602182482,2422.30127234706
0.56973674516981,2422.31127234706
0.555184942240479,2422.32127234706
0.543489194202144,2422.33127234706
0.535585035778384,2422.34127234706
0.530903799442337,2422.35127234706
0.532096394220631,2422.36127234706
0.53685854270577,2422.37127234706
0.542668324291224,2422.38127234706
0.548202009774293,2422.39127234706
0.552075831757685,2422.40127234706
0.553886466601127,2422.41127234706
0.553131954104612,2422.42127234706
0.550962248258426,2422.43127234706
0.543820451801299,2422.44127234706
0.537075385970131,2422.45127234706
0.528637879998698,2422.46127234706
0.51682381782904,2422.47127234706
0.501137963056033,2422.48127234706
0.482558302733294,2422.49127234706
0.463299132148281,2422.50127234706
0.440906973023872,2422.51127234706
0.421596399975124,2422.52127234706
0.403879340102953,2422.53127234706
0.385221884403151,2422.54127234706
0.365972858209072,2422.55127234706
0.346584394402511,2422.56127234706
0.32734557878581,2422.57127234706
0.307380969977382,2422.58127234706
0.290351457192717,2422.59127234706
0.274612773041499,2422.60127234706
0.258403264917207,2422.61127234706
0.241698203004873,2422.62127234706
0.224362267180348,2422.63127234706
0.207966737795721,2422.64127234706
0.190802871735777,2422.65127234706
0.176404212635798,2422.66127234706
0.163105189453562,2422.67127234706
0.148721493910343,2422.68127234706
0.132913639051766,2422.69127234706
0.116019035493365,2422.70127234706
0.0991958807417892,2422.71127234706
0.0810219571757573,2422.72127234706
0.0659528676501892,2422.73127234706
0.0522714500111979,2422.74127234706
0.0386227907457291,2422.75127234706
0.0225991065278076,2422.76127234706
0.00560165689266288,2422.77127234706
-0.0110451044479142,2422.78127234706
-0.0296121612358781,2422.79127234706
-0.0453985539049388,2422.80127234706
-0.0595580696896867,2422.81127234706
-0.0741370083239382,2422.82127234706
-0.0899927175076883,2422.83127234706
-0.105777228974643,2422.84127234706
-0.120422891723628,2422.85127234706
-0.136177936344385,2422.86127234706
-0.147681566169203,2422.87127234706
-0.158202365534808,2422.88127234706
-0.169756908668551,2422.89127234706
-0.182764020166181,2422.90127234706
-0.197000324585145,2422.91127234706
-0.211365217265217,2422.92127234706
-0.226947500403582,2422.93127234706
-0.237279461180566,2422.94127234706
-0.240229070373656,2422.95127234706
-0.231503874500983,2422.96127234706
-0.205464823173384,2422.97127234706
-0.156288455640451,2422.98127234706
-0.0822795878776805,2422.99127234706
0.0123821939659651,2423.00127234706
0.125576160146616,2423.01127234706
0.246638551586678,2423.02127234706
0.365609079773505,2423.03127234706
0.47437439645453,2423.04127234706
0.56720625270133,2423.05127234706
0.641066589894741,2423.06127234706
0.693114572199683,2423.07127234706
0.728289992483082,2423.08127234706
0.747220578019193,2423.09127234706
0.750271861732528,2423.10127234706
0.740737019557863,2423.11127234706
0.722139009821798,2423.12127234706
0.698458770396031,2423.13127234706
0.669476106654531,2423.14127234706
0.642137971113646,2423.15127234706
0.615859874216659,2423.16127234706
0.589853083116721,2423.17127234706
0.563789439725902,2423.18127234706
0.537672559788598,2423.19127234706
0.511907177150207,2423.20127234706
0.484584597390059,2423.21127234706
0.460066188241401,2423.22127234706
0.436515846645141,2423.23127234706
0.41346914827556,2423.24127234706
0.391322765362626,2423.25127234706
0.372591957215297,2423.26127234706
0.359424063383029,2423.27127234706
0.349566610176824,2423.28127234706
0.3473468057394,2423.29127234706
0.349927359166291,2423.30127234706
0.354936924281288,2423.31127234706
0.36089914908098,2423.32127234706
0.367973487436594,2423.33127234706
0.374952800910448,2423.34127234706
0.379387250876505,2423.35127234706
0.383691991515072,2423.36127234706
0.385369229947795,2423.37127234706
0.382668992655745,2423.38127234706
0.375135718065056,2423.39127234706
0.363354839070554,2423.40127234706
0.34812968924326,2423.41127234706
0.331096391603458,2423.42127234706
0.313045999895969,2423.43127234706
0.291682639983961,2423.44127234706
0.27205831792214,2423.45127234706
0.252745330337892,2423.46127234706
0.231862226282264,2423.47127234706
0.209481103773786,2423.48127234706
0.187022140414526,2423.49127234706
0.165192019584243,2423.50127234706
0.14356822387296,2423.51127234706
0.124807823795689,2423.52127234706
0.10755233239794,2423.53127234706
0.0894537164295675,2423.54127234706
0.0705293779575965,2423.55127234706
0.0510743029213618,2423.56127234706
0.0325042385367097,2423.57127234706
0.0131230875230514,2423.58127234706
-0.0030071018168328,2423.59127234706
-0.018587738379973,2423.60127234706
-0.0349785235725512,2423.61127234706
-0.0531938457143371,2423.62127234706
-0.0715820779412756,2423.63127234706
-0.0895208072749802,2423.64127234706
-0.108698864118822,2423.65127234706
-0.124759874252572,2423.66127234706
-0.139589914920963,2423.67127234706
-0.154601436496625,2423.68127234706
-0.171493404354282,2423.69127234706
-0.189344542100031,2423.70127234706
-0.206391521938136,2423.71127234706
-0.225227598526429,2423.72127234706
-0.241502758255799,2423.73127234706
-0.256773677475279,2423.74127234706
-0.273359163942349,2423.75127234706
-0.291593899936031,2423.76127234706
-0.311427896053879,2423.77127234706
-0.330999725053632,2423.78127234706
-0.352714904933773,2423.79127234706
-0.371118503402515,2423.80127234706
-0.386582090444629,2423.81127234706
-0.397878560428061,2423.82127234706
-0.399616921473051,2423.83127234706
-0.385319981113681,2423.84127234706
-0.34903827783785,2423.85127234706
-0.29009247143011,2423.86127234706
-0.206363468065215,2423.87127234706
-0.106240178006584,2423.88127234706
0.00103649382136238,2423.89127234706
0.10591407869022,2423.90127234706
0.201935443346232,2423.91127234706
0.284334369006103,2423.92127234706
0.348284943184473,2423.93127234706
0.39627822351234,2423.94127234706
0.426681689472872,2423.95127234706
0.439674473352406,2423.96127234706
0.437221702214934,2423.97127234706
0.422632514284826,2423.98127234706
0.399541534574084,2423.99127234706
0.369066142333293,2424.00127234706
0.337241442532102,2424.01127234706
0.303982605628519,2424.02127234706
0.268780622800006,2424.03127234706
0.231322966407791,2424.04127234706
0.192557013306942,2424.05127234706
0.153387925495883,2424.06127234706
0.112285294897827,2424.07127234706
0.0748122939419875,2424.08127234706
0.03911262412479,2424.09127234706
0.00480104666834705,2424.10127234706
-0.0272808550850207,2424.11127234706
-0.0549098445785667,2424.12127234706
-0.0761421311560177,2424.13127234706
-0.0922763371830912,2424.14127234706
-0.0992682717811822,2424.15127234706
-0.098838604903022,2424.16127234706
-0.0938624524621607,2424.17127234706
-0.0871098461003562,2424.18127234706
-0.0788849739723911,2424.19127234706
-0.0704710834719335,2424.20127234706
-0.0650721230795569,2424.21127234706
-0.0594921257907296,2424.22127234706
-0.0559480922247076,2424.23127234706
-0.0571934392710613,2424.24127234706
-0.0642703201683566,2424.25127234706
-0.0755152004923782,2424.26127234706
-0.0906070857017045,2424.27127234706
-0.110145704098937,2424.28127234706
-0.129398019928757,2424.29127234706
-0.149265667283772,2424.30127234706
-0.170539697296894,2424.31127234706
-0.193814114747228,2424.32127234706
-0.218112489285103,2424.33127234706
-0.242492066502527,2424.34127234706
-0.268073960771298,2424.35127234706
-0.290639470946007,2424.36127234706
-0.311656408676455,2424.37127234706
-0.333013288042887,2424.38127234706
-0.35532626876065,2424.39127234706
-0.378375496215962,2424.40127234706
-0.402209986200379,2424.41127234706
-0.425759816321379,2424.42127234706
-0.448112245893713,2424.43127234706
-0.472291861756881,2424.44127234706
-0.493486910960488,2424.45127234706
-0.514254823601218,2424.46127234706
-0.535911524625315,2424.47127234706
-0.559139555034255,2424.48127234706
-0.582732548527532,2424.49127234706
-0.604928881065917,2424.50127234706
-0.627699821860454,2424.51127234706
-0.647203819354406,2424.52127234706
-0.665454411773104,2424.53127234706
-0.68428219750391,2424.54127234706
-0.704140202494597,2424.55127234706
-0.724507577306331,2424.56127234706
-0.74465756036416,2424.57127234706
-0.765302271612074,2424.58127234706
-0.779600817838266,2424.59127234706
-0.787851642066162,2424.60127234706
-0.785819169889737,2424.61127234706
-0.768058948651582,2424.62127234706
-0.728691800960433,2424.63127234706
-0.665358308678731,2424.64127234706
-0.583196268902299,2424.65127234706
-0.483606751993398,2424.66127234706
-0.377264210163572,2424.67127234706
-0.273507271543158,2424.68127234706
-0.179848413776549,2424.69127234706
-0.100142448202137,2424.70127234706
-0.0351785887404383,2424.71127234706
0.0126837283269447,2424.72127234706
0.0486251032406973,2424.73127234706
0.0718339215309182,2424.74127234706
0.0820505843478315,2424.75127234706
0.0811068396484403,2424.76127234706
0.072225784848637,2424.77127234706
0.0577811273731282,2424.78127234706
0.0390465502265206,2424.79127234706
0.0202217097210457,2424.80127234706
5.16652500905216e-05,2424.81127234706
-0.0235735161866846,2424.82127234706
-0.0505279764028594,2424.83127234706
-0.0796861627341891,2424.84127234706
-0.108535342453202,2424.85127234706
-0.137823692933036,2424.86127234706
-0.161932818087085,2424.87127234706
-0.181730190582987,2424.88127234706
-0.197803876615003,2424.89127234706
-0.20912910789635,2424.90127234706
-0.213959128188583,2424.91127234706
-0.210549846809069,2424.92127234706
-0.199287895010521,2424.93127234706
-0.176624457739096,2424.94127234706
-0.146175492300801,2424.95127234706
-0.112130553332744,2424.96127234706
-0.0772863229943359,2424.97127234706
-0.043229431427358,2424.98127234706
-0.0113247264126695,2424.99127234706
0.0149840455563108,2425.00127234706
0.0382697956772565,2425.01127234706
0.0567681322480058,2425.02127234706
0.0686247632182737,2425.03127234706
0.0734818763361968,2425.04127234706
0.0729856821161142,2425.05127234706
0.0689383309331803,2425.06127234706
0.0604506516987451,2425.07127234706
0.0530575639779439,2425.08127234706
0.0445042482101769,2425.09127234706
0.0349421759921417,2425.10127234706
0.0242325400332098,2425.11127234706
0.0137124865198852,2425.12127234706
0.00437249414051386,2425.13127234706
-0.00584288837508651,2425.14127234706
-0.0116132820167743,2425.15127234706
-0.0152362603643356,2425.16127234706
-0.0190711101639834,2425.17127234706
-0.023468421908775,2425.18127234706
-0.0279863246809471,2425.19127234706
-0.0323786158238822,2425.20127234706
-0.0389307099387543,2425.21127234706
-0.0440950347802897,2425.22127234706
-0.0506027402100961,2425.23127234706
-0.0593735225848346,2425.24127234706
-0.0706647693533488,2425.25127234706
-0.0840662585326767,2425.26127234706
-0.0971258042783304,2425.27127234706
-0.110866167081175,2425.28127234706
-0.119400695344409,2425.29127234706
-0.121720702999564,2425.30127234706
-0.114430418414189,2425.31127234706
-0.0926068795432828,2425.32127234706
-0.0512326655488674,2425.33127234706
0.0124935365833119,2425.34127234706
0.0946943851595181,2425.35127234706
0.195362401719642,2425.36127234706
0.306165703771462,2425.37127234706
0.417694304383374,2425.38127234706
0.52245175669326,2425.39127234706
0.614778397478315,2425.40127234706
0.690876574422339,2425.41127234706
0.749892422129296,2425.42127234706
0.792264560652584,2425.43127234706
0.817740887131914,2425.44127234706
0.833444236149592,2425.45127234706
0.838579137134724,2425.46127234706
0.834728330668871,2425.47127234706
0.823055483817296,2425.48127234706
0.80665022269298,2425.49127234706
0.788262415500331,2425.50127234706
0.767555574438659,2425.51127234706
0.749456187257979,2425.52127234706
0.730951359662774,2425.53127234706
0.710738519368808,2425.54127234706
0.68754649405159,2425.55127234706
0.662837865720972,2425.56127234706
0.639068302344832,2425.57127234706
0.615276026264557,2425.58127234706
0.597210655534753,2425.59127234706
0.584109956376258,2425.60127234706
0.574601663613255,2425.61127234706
0.56837989660907,2425.62127234706
0.565571951443641,2425.63127234706
0.567691709962811,2425.64127234706
0.57113168131342,2425.65127234706
0.580495287984684,2425.66127234706
0.591803086828819,2425.67127234706
0.602157228687586,2425.68127234706
0.609952951151739,2425.69127234706
0.615855839134052,2425.70127234706
0.619441243845163,2425.71127234706
0.618658827916152,2425.72127234706
0.617559205214101,2425.73127234706
0.614070891321692,2425.74127234706
0.606854819283399,2425.75127234706
0.596237533418951,2425.76127234706
0.583027897258805,2425.77127234706
0.568346979504409,2425.78127234706
0.551385535967875,2425.79127234706
0.536529129370264,2425.80127234706
0.521933957658198,2425.81127234706
0.506545046279503,2425.82127234706
0.490476772273061,2425.83127234706
0.473943630393794,2425.84127234706
0.458320121129351,2425.85127234706
0.442502387654125,2425.86127234706
0.430201916625244,2425.87127234706
0.418888745593834,2425.88127234706
0.407327397940908,2425.89127234706
0.394587287324577,2425.90127234706
0.381678162817029,2425.91127234706
0.370055307742085,2425.92127234706
0.35761736622328,2425.93127234706
0.347611885642716,2425.94127234706
0.338603015597252,2425.95127234706
0.327936331416043,2425.96127234706
0.315581198606662,2425.97127234706
0.301768918508281,2425.98127234706
0.287691788417329,2425.99127234706
0.27210570043416,2426.00127234706
0.259644284284693,2426.01127234706
0.25247633630417,2426.02127234706
0.252529106065184,2426.03127234706
0.265637830045284,2426.04127234706
0.297022048068582,2426.05127234706
0.349351965310908,2426.06127234706
0.421822817922137,2426.07127234706
0.513507322234749,2426.08127234706
0.617006832368215,2426.09127234706
0.723106144934492,2426.10127234706
0.824347441328373,2426.11127234706
0.915097791901381,2426.12127234706
0.99066065835833,2426.13127234706
1.04750735712068,2426.14127234706
1.08919928841354,2426.15127234706
1.11496616222919,2426.16127234706
1.12642917256037,2426.17127234706
1.12546392841985,2426.18127234706
1.1152409506594,2426.19127234706
1.09894343441843,2426.20127234706
1.07779900110964,2426.21127234706
1.05801451528333,2426.22127234706
1.03992067693163,2426.23127234706
1.02219817347006,2426.24127234706
1.00495888068447,2426.25127234706
0.988082104890165,2426.26127234706
0.971488700503677,2426.27127234706
0.952505701584975,2426.28127234706
0.934374753875814,2426.29127234706
0.91537929929551,2426.30127234706
0.894320360322832,2426.31127234706
0.871562223398647,2426.32127234706
0.848243857505303,2426.33127234706
0.826676218326597,2426.34127234706
0.805706650050748,2426.35127234706
0.790301742340509,2426.36127234706
0.777920185752396,2426.37127234706
0.767749748607009,2426.38127234706
0.758266472649055,2426.39127234706
0.750432892519344,2426.40127234706
0.744232810583088,2426.41127234706
0.739121341261593,2426.42127234706
0.734813850337561,2426.43127234706
0.728578331789649,2426.44127234706
0.722409994398794,2426.45127234706
0.714816665933033,2426.46127234706
0.703459440635466,2426.47127234706
0.688327077952724,2426.48127234706
0.670899377734324,2426.49127234706
0.652950354963207,2426.50127234706
0.632361045806367,2426.51127234706
0.6135464138518,2426.52127234706
0.594763537365243,2426.53127234706
0.574232226174222,2426.54127234706
0.551997563588046,2426.55127234706
0.528305826618206,2426.56127234706
0.504483885662549,2426.57127234706
0.479244922084985,2426.58127234706
0.457153441655894,2426.59127234706
0.435823789058103,2426.60127234706
0.41442670181288,2426.61127234706
0.391796104839848,2426.62127234706
0.36881435578163,2426.63127234706
0.346124929757127,2426.64127234706
0.322621842438321,2426.65127234706
0.303063274399478,2426.66127234706
0.284704212581552,2426.67127234706
0.26627169828697,2426.68127234706
0.246861031472098,2426.69127234706
0.226185052641026,2426.70127234706
0.205695538963169,2426.71127234706
0.183548431586824,2426.72127234706
0.163519805350125,2426.73127234706
0.14346422310129,2426.74127234706
0.122393913484088,2426.75127234706
0.100006641795411,2426.76127234706
0.0768442532232412,2426.77127234706
0.0548217807956787,2426.78127234706
0.0343368765955578,2426.79127234706
0.0224272489766548,2426.80127234706
0.02114644668986,2426.81127234706
0.0321710513729203,2426.82127234706
0.0563733429899876,2426.83127234706
0.0944654447180176,2426.84127234706
0.144662671877769,2426.85127234706
0.200721623374284,2426.86127234706
0.261953647935156,2426.87127234706
0.321125619970089,2426.88127234706
0.373708839557226,2426.89127234706
0.415195184136078,2426.90127234706
0.445679854340857,2426.91127234706
0.46557565104179,2426.92127234706
0.47465118383402,2426.93127234706
0.477925969140396,2426.94127234706
0.475423321879532,2426.95127234706
0.467353714562768,2426.96127234706
0.45439173813286,2426.97127234706
0.438162316273163,2426.98127234706
0.421060032108089,2426.99127234706
0.402636183969273,2427.00127234706
0.386765595642965,2427.01127234706
0.371521045996188,2427.02127234706
0.356079270524491,2427.03127234706
0.33869170576363,2427.04127234706
0.320095131791309,2427.05127234706
0.300223676232807,2427.06127234706
0.278405004302023,2427.07127234706
0.25802738354677,2427.08127234706
0.238151403592431,2427.09127234706
0.217028751572363,2427.10127234706
0.195830030177842,2427.11127234706
0.175295717232587,2427.12127234706
0.15679262884957,2427.13127234706
0.139413897699169,2427.14127234706
0.126786263966822,2427.15127234706
0.116695230047678,2427.16127234706
0.10688077562215,2427.17127234706
0.0974228774410825,2427.18127234706
0.0877680766378729,2427.19127234706
0.078061995492579,2427.20127234706
0.0668023220792757,2427.21127234706
0.0567878473565619,2427.22127234706
0.0463292419981504,2427.23127234706
0.0344583565093594,2427.24127234706
0.0201166632774973,2427.25127234706
0.00415757554879957,2427.26127234706
-0.0130600539455923,2427.27127234706
-0.0330175334719701,2427.28127234706
-0.0513109407964149,2427.29127234706
-0.0696774783487839,2427.30127234706
-0.0886791976274161,2427.31127234706
-0.109214114163767,2427.32127234706
-0.13027352546669,2427.33127234706
-0.151155088936122,2427.34127234706
-0.172922275626475,2427.35127234706
-0.191858138954937,2427.36127234706
-0.209059735065154,2427.37127234706
-0.22675617741781,2427.38127234706
-0.245450105967979,2427.39127234706
-0.265353905705543,2427.40127234706
-0.285452065764271,2427.41127234706
-0.30546949770934,2427.42127234706
-0.324349880831455,2427.43127234706
-0.34425963541611,2427.44127234706
-0.360821807803034,2427.45127234706
-0.376783727418836,2427.46127234706
-0.393533165440438,2427.47127234706
-0.41191659638778,2427.48127234706
-0.431130348700527,2427.49127234706
-0.449585466619245,2427.50127234706
-0.468966932744553,2427.51127234706
-0.484995727106552,2427.52127234706
-0.500435643140901,2427.53127234706
-0.516322423852471,2427.54127234706
-0.53331091938903,2427.55127234706
-0.550843976641467,2427.56127234706
-0.568362531326223,2427.57127234706
-0.587343723021323,2427.58127234706
-0.602990833957154,2427.59127234706
-0.615959875914317,2427.60127234706
-0.624502617614808,2427.61127234706
-0.627741806044536,2427.62127234706
-0.62165533526068,2427.63127234706
-0.605684001797493,2427.64127234706
-0.582152565403142,2427.65127234706
-0.549775185627229,2427.66127234706
-0.513573369187835,2427.67127234706
-0.478681549230755,2427.68127234706
-0.448662424294791,2427.69127234706
-0.424699007173751,2427.70127234706
-0.407381714709238,2427.71127234706
-0.396548505605108,2427.72127234706
-0.389198275616832,2427.73127234706
-0.386178185511674,2427.74127234706
-0.387756905737149,2427.75127234706
-0.394342646155909,2427.76127234706
-0.40362196384199,2427.77127234706
-0.414497507360435,2427.78127234706
-0.427418488491172,2427.79127234706
-0.437301000456047,2427.80127234706
-0.446247431006319,2427.81127234706
-0.455725432090578,2427.82127234706
-0.466050435843438,2427.83127234706
-0.477477433194366,2427.84127234706
-0.48886198956193,2427.85127234706
-0.502101317017863,2427.86127234706
-0.512737571673417,2427.87127234706
-0.523445993707881,2427.88127234706
-0.535291529642573,2427.89127234706
-0.548788057367043,2427.90127234706
-0.562160962051113,2427.91127234706
-0.573982616811037,2427.92127234706
-0.585853538012989,2427.93127234706
-0.592686630903194,2427.94127234706
-0.596924994853192,2427.95127234706
-0.60084960735496,2427.96127234706
-0.606296246222104,2427.97127234706
-0.611845735138343,2427.98127234706
-0.617113049813411,2427.99127234706
-0.623858930899386,2428.00127234706
-0.628059891607238,2428.01127234706
-0.632023660712299,2428.02127234706
-0.638311240574737,2428.03127234706
-0.646683305581858,2428.04127234706
-0.656346342967313,2428.05127234706
-0.666518471741533,2428.06127234706
-0.678218777097465,2428.07127234706
-0.687774192807229,2428.08127234706
-0.697390940656805,2428.09127234706
-0.708100318216321,2428.10127234706
-0.720386670756913,2428.11127234706
-0.733518175299407,2428.12127234706
-0.746021660129597,2428.13127234706
-0.759184964898568,2428.14127234706
-0.769217612757895,2428.15127234706
-0.778536464460219,2428.16127234706
-0.787981925961274,2428.17127234706
-0.799213223423233,2428.18127234706
-0.811168736591854,2428.19127234706
-0.82265833398057,2428.20127234706
-0.835324442878042,2428.21127234706
-0.844937696517092,2428.22127234706
-0.852826242281402,2428.23127234706
-0.861304095577988,2428.24127234706
-0.870854457609843,2428.25127234706
-0.881495995367981,2428.26127234706
