PPG,time
0.148811535705565,2990.95194183288
0.327110903933858,2990.96194183288
0.328684564431855,2990.97194183288
0.373358820231804,2990.98194183288
0.380207328366426,2990.99194183288
0.398140131537826,2991.00194183288
0.397080801161818,2991.01194183288
0.398948425397971,2991.02194183288
0.392986487340666,2991.03194183288
0.387366959724661,2991.04194183288
0.380060755420627,2991.05194183288
0.372388984030745,2991.06194183288
0.364243540088165,2991.07194183288
0.356435460118002,2991.08194183288
0.348768849526705,2991.09194183288
0.341741319380951,2991.10194183288
0.33476442819227,2991.11194183288
0.328439336899734,2991.12194183288
0.322908547632009,2991.13194183288
0.316824003153821,2991.14194183288
0.309593907859909,2991.15194183288
0.300698042278674,2991.16194183288
0.290837773037269,2991.17194183288
0.281281904340224,2991.18194183288
0.272840950820032,2991.19194183288
0.266380204286779,2991.20194183288
0.261971223520836,2991.21194183288
0.258570396067452,2991.22194183288
0.257088287559655,2991.23194183288
0.257152826816608,2991.24194183288
0.258856078416526,2991.25194183288
0.261309381401947,2991.26194183288
0.264284147433381,2991.27194183288
0.267144852997074,2991.28194183288
0.269523733786829,2991.29194183288
0.270325775013246,2991.30194183288
0.269821837162006,2991.31194183288
0.268195817567894,2991.32194183288
0.265122407605825,2991.33194183288
0.261212581007968,2991.34194183288
0.256722585546223,2991.35194183288
0.251150863739424,2991.36194183288
0.244697978871678,2991.37194183288
0.238040638052947,2991.38194183288
0.229112745013524,2991.39194183288
0.219222466285566,2991.40194183288
0.208722518535801,2991.41194183288
0.19793507821961,2991.42194183288
0.187269985048457,2991.43194183288
0.176316580903353,2991.44194183288
0.165564782424868,2991.45194183288
0.155530561643662,2991.46194183288
0.146388895757712,2991.47194183288
0.137509961254106,2991.48194183288
0.129060770125505,2991.49194183288
0.120064016082691,2991.50194183288
0.11097313639923,2991.51194183288
0.102522377008996,2991.52194183288
0.0938173695795635,2991.53194183288
0.0848529388497952,2991.54194183288
0.0757792387103511,2991.55194183288
0.0662433672785448,2991.56194183288
0.0575555902552625,2991.57194183288
0.0493285468162236,2991.58194183288
0.0419948291559302,2991.59194183288
0.0363398186501848,2991.60194183288
0.0311067018072204,2991.61194183288
0.0258084936599017,2991.62194183288
0.0199041000903217,2991.63194183288
0.0134613951310572,2991.64194183288
0.00697612274415278,2991.65194183288
0.000770448799816285,2991.66194183288
-0.00508432140746055,2991.67194183288
-0.0109297329739462,2991.68194183288
-0.0179404006535527,2991.69194183288
-0.0255563546599741,2991.70194183288
-0.0326432831834801,2991.71194183288
-0.0390068115045482,2991.72194183288
-0.0448773981482921,2991.73194183288
-0.0501620753525049,2991.74194183288
-0.0552025683009829,2991.75194183288
-0.0598337081432172,2991.76194183288
-0.06383280699762,2991.77194183288
-0.0650814502025184,2991.78194183288
-0.0615809940232493,2991.79194183288
-0.050659722505959,2991.80194183288
-0.0295828725467782,2991.81194183288
0.00248066989715674,2991.82194183288
0.0451377641772374,2991.83194183288
0.0958147044725423,2991.84194183288
0.151544772620434,2991.85194183288
0.208749268579225,2991.86194183288
0.26337285650295,2991.87194183288
0.312994754048043,2991.88194183288
0.355062590485607,2991.89194183288
0.388291786868747,2991.90194183288
0.41288724532777,2991.91194183288
0.429235908528618,2991.92194183288
0.438415932008993,2991.93194183288
0.441261368098927,2991.94194183288
0.439716422884171,2991.95194183288
0.434919783952991,2991.96194183288
0.428222060821556,2991.97194183288
0.420302546584615,2991.98194183288
0.412241712604763,2991.99194183288
0.405557491336028,2992.00194183288
0.400119480024863,2992.01194183288
0.395627904378536,2992.02194183288
0.391457942911444,2992.03194183288
0.387472531205896,2992.04194183288
0.383016786564346,2992.05194183288
0.377536847932357,2992.06194183288
0.370205345604834,2992.07194183288
0.361979384556321,2992.08194183288
0.35247268798517,2992.09194183288
0.342668922194443,2992.10194183288
0.33315147437961,2992.11194183288
0.324667363088749,2992.12194183288
0.317876098412499,2992.13194183288
0.312621355944921,2992.14194183288
0.308870052487637,2992.15194183288
0.305671584576592,2992.16194183288
0.302849435759665,2992.17194183288
0.301299346013405,2992.18194183288
0.30112270973653,2992.19194183288
0.302095931198569,2992.20194183288
0.30335993791882,2992.21194183288
0.303956677467229,2992.22194183288
0.303858992558572,2992.23194183288
0.302213974181688,2992.24194183288
0.299099847501809,2992.25194183288
0.294855262230157,2992.26194183288
0.289433900460945,2992.27194183288
0.282793475353355,2992.28194183288
0.274672358540264,2992.29194183288
0.26538569198789,2992.30194183288
0.254820866606907,2992.31194183288
0.243078376626836,2992.32194183288
0.231531255466011,2992.33194183288
0.220855663869939,2992.34194183288
0.210247189872736,2992.35194183288
0.199879327122513,2992.36194183288
0.189011574223546,2992.37194183288
0.17783889785965,2992.38194183288
0.166730048741175,2992.39194183288
0.155129107631583,2992.40194183288
0.1438617282933,2992.41194183288
0.132769176538345,2992.42194183288
0.120419786488191,2992.43194183288
0.108151688774213,2992.44194183288
0.0955719472534053,2992.45194183288
0.0826680828205163,2992.46194183288
0.0702585529706833,2992.47194183288
0.0587080794327354,2992.48194183288
0.0473843536598161,2992.49194183288
0.0365850279821751,2992.50194183288
0.0258483819233235,2992.51194183288
0.0149524258449955,2992.52194183288
0.00427025492347451,2992.53194183288
-0.0068566792173924,2992.54194183288
-0.0181309357344605,2992.55194183288
-0.0292198065862409,2992.56194183288
-0.0400836976271424,2992.57194183288
-0.050144453193584,2992.58194183288
-0.0590211044012261,2992.59194183288
-0.0679116799136466,2992.60194183288
-0.0767003401992342,2992.61194183288
-0.0857051883470219,2992.62194183288
-0.0948166302583965,2992.63194183288
-0.103824390157123,2992.64194183288
-0.11283102981959,2992.65194183288
-0.121302132080206,2992.66194183288
-0.12934134472774,2992.67194183288
-0.137515492745116,2992.68194183288
-0.146135351336719,2992.69194183288
-0.154984550152837,2992.70194183288
-0.164732822946801,2992.71194183288
-0.175083905938773,2992.72194183288
-0.18478046595625,2992.73194183288
-0.192880931373912,2992.74194183288
-0.197796475831894,2992.75194183288
-0.196393032101505,2992.76194183288
-0.185605565244284,2992.77194183288
-0.163048780749583,2992.78194183288
-0.12895170271885,2992.79194183288
-0.08574980788584,2992.80194183288
-0.0379396136779801,2992.81194183288
0.00990465861346695,2992.82194183288
0.0543055423292135,2992.83194183288
0.0931469583429078,2992.84194183288
0.124920362717063,2992.85194183288
0.15013308289064,2992.86194183288
0.168774611679402,2992.87194183288
0.18090157432927,2992.88194183288
0.186378191975883,2992.89194183288
0.187810209786535,2992.90194183288
0.185029282692287,2992.91194183288
0.179302844228568,2992.92194183288
0.17124177852524,2992.93194183288
0.16204189023689,2992.94194183288
0.152669052251606,2992.95194183288
0.144780013311597,2992.96194183288
0.137649338500628,2992.97194183288
0.131168131289757,2992.98194183288
0.125230899203911,2992.99194183288
0.119223206247961,2993.00194183288
0.112586759242873,2993.01194183288
0.105362507408077,2993.02194183288
0.0964865422479743,2993.03194183288
0.0869763850696016,2993.04194183288
0.0759602596620731,2993.05194183288
0.0639605302673646,2993.06194183288
0.0518545741772829,2993.07194183288
0.0401844822470984,2993.08194183288
0.0298105095117816,2993.09194183288
0.021284775629291,2993.10194183288
0.0146008423251466,2993.11194183288
0.00925845267807532,2993.12194183288
0.00502303365847466,2993.13194183288
0.00130380832522556,2993.14194183288
-0.00138588221316384,2993.15194183288
-0.00323061660302754,2993.16194183288
-0.00503902163922849,2993.17194183288
-0.00654734241181055,2993.18194183288
-0.00867722850509891,2993.19194183288
-0.0121134346983101,2993.20194183288
-0.0175594359515823,2993.21194183288
-0.0245863096506034,2993.22194183288
-0.0336634837140944,2993.23194183288
-0.0440304229207084,2993.24194183288
-0.0541680144238086,2993.25194183288
-0.0641147420077925,2993.26194183288
-0.0730331515669101,2993.27194183288
-0.0829287347558713,2993.28194183288
-0.0928750102687934,2993.29194183288
-0.103791552703079,2993.30194183288
-0.115540793881037,2993.31194183288
-0.128036365270351,2993.32194183288
-0.140968215152243,2993.33194183288
-0.154092506914243,2993.34194183288
-0.167660955100439,2993.35194183288
-0.180821099201636,2993.36194183288
-0.193335498294669,2993.37194183288
-0.2053185338631,2993.38194183288
-0.215967478330574,2993.39194183288
-0.226480686653406,2993.40194183288
-0.237211700930174,2993.41194183288
-0.248035633679168,2993.42194183288
-0.259355895689834,2993.43194183288
-0.270911426838284,2993.44194183288
-0.282298263967472,2993.45194183288
-0.292870373514237,2993.46194183288
-0.303297586240971,2993.47194183288
-0.312892814465071,2993.48194183288
-0.322063553491458,2993.49194183288
-0.33115785273119,2993.50194183288
-0.340017695524447,2993.51194183288
-0.348420416873437,2993.52194183288
-0.35632279785431,2993.53194183288
-0.364429011296662,2993.54194183288
-0.371924570824803,2993.55194183288
-0.378803014807432,2993.56194183288
-0.385895641257422,2993.57194183288
-0.392700842381441,2993.58194183288
-0.399618435505581,2993.59194183288
-0.406947961216301,2993.60194183288
-0.414543696717429,2993.61194183288
-0.422290771497656,2993.62194183288
-0.430746062039145,2993.63194183288
-0.439616935688553,2993.64194183288
-0.449152875310777,2993.65194183288
-0.458862817479919,2993.66194183288
-0.46858324462068,2993.67194183288
-0.4771890606644,2993.68194183288
-0.482153543435195,2993.69194183288
-0.481324940377254,2993.70194183288
-0.472827594942783,2993.71194183288
-0.455665892627107,2993.72194183288
-0.429804375931066,2993.73194183288
-0.396176185326743,2993.74194183288
-0.356820121398077,2993.75194183288
-0.314708479306263,2993.76194183288
-0.273295190618685,2993.77194183288
-0.234290344363113,2993.78194183288
-0.199757675929228,2993.79194183288
-0.171423244956886,2993.80194183288
-0.149804349541764,2993.81194183288
-0.135126939236395,2993.82194183288
-0.126880408151135,2993.83194183288
-0.124312226803232,2993.84194183288
-0.124935835171965,2993.85194183288
-0.128946502306177,2993.86194183288
-0.134216714178981,2993.87194183288
-0.140715964114967,2993.88194183288
-0.147981413570211,2993.89194183288
-0.155262708828252,2993.90194183288
-0.161208966209537,2993.91194183288
-0.166030543314553,2993.92194183288
-0.170160505339047,2993.93194183288
-0.173971961378014,2993.94194183288
-0.178361082914201,2993.95194183288
-0.184185346566019,2993.96194183288
-0.191083517764955,2993.97194183288
-0.1992984829632,2993.98194183288
-0.207423455345907,2993.99194183288
-0.216013445176983,2994.00194183288
-0.224417061533069,2994.01194183288
-0.231942511632093,2994.02194183288
-0.239288292601187,2994.03194183288
-0.245640149898007,2994.04194183288
-0.250228353360787,2994.05194183288
-0.253170948249744,2994.06194183288
-0.255027715768639,2994.07194183288
-0.256192796569016,2994.08194183288
-0.256709219195588,2994.09194183288
-0.257285955780452,2994.10194183288
-0.257931803069521,2994.11194183288
-0.259346708318997,2994.12194183288
-0.261489908665806,2994.13194183288
-0.264585161419687,2994.14194183288
-0.268792793479046,2994.15194183288
-0.273841960051745,2994.16194183288
-0.279500618334412,2994.17194183288
-0.286382264712762,2994.18194183288
-0.29389539645249,2994.19194183288
-0.302168888354962,2994.20194183288
-0.310995955195333,2994.21194183288
-0.320556895071512,2994.22194183288
-0.330967863002395,2994.23194183288
-0.341570512786113,2994.24194183288
-0.352339376489144,2994.25194183288
-0.362967517734174,2994.26194183288
-0.373468575032616,2994.27194183288
-0.38320768101875,2994.28194183288
-0.393342235231431,2994.29194183288
-0.403596030347686,2994.30194183288
-0.413749463643821,2994.31194183288
-0.424388717873349,2994.32194183288
-0.434925821268289,2994.33194183288
-0.445393183182734,2994.34194183288
-0.456221705358407,2994.35194183288
-0.46668463008359,2994.36194183288
-0.476477295439541,2994.37194183288
-0.485828727359743,2994.38194183288
-0.494731599923694,2994.39194183288
-0.503331035476113,2994.40194183288
-0.511984462839563,2994.41194183288
-0.520850785153205,2994.42194183288
-0.529669524790843,2994.43194183288
-0.538468855008044,2994.44194183288
-0.547283353732191,2994.45194183288
-0.555912948984023,2994.46194183288
-0.564096123145998,2994.47194183288
-0.572253620891747,2994.48194183288
-0.579562372821442,2994.49194183288
-0.58683266429961,2994.50194183288
-0.594516818681588,2994.51194183288
-0.602322773241369,2994.52194183288
-0.609243199760237,2994.53194183288
-0.615741052101202,2994.54194183288
-0.621280444694398,2994.55194183288
-0.62636290345675,2994.56194183288
-0.631549962259536,2994.57194183288
-0.636866931466843,2994.58194183288
-0.642694271939509,2994.59194183288
-0.648894702724872,2994.60194183288
-0.655582851458444,2994.61194183288
-0.662672479318612,2994.62194183288
-0.670326259548685,2994.63194183288
-0.678116560520646,2994.64194183288
-0.684853162068015,2994.65194183288
-0.689602490016513,2994.66194183288
-0.690918124027986,2994.67194183288
-0.686474043533123,2994.68194183288
-0.674713140364549,2994.69194183288
-0.654569022741219,2994.70194183288
-0.626869537526284,2994.71194183288
-0.593238232234995,2994.72194183288
-0.555900385641163,2994.73194183288
-0.517014341905325,2994.74194183288
-0.478962343152823,2994.75194183288
-0.443439188973811,2994.76194183288
-0.412083011503688,2994.77194183288
-0.384886068355371,2994.78194183288
-0.363913141958507,2994.79194183288
-0.348265243885644,2994.80194183288
-0.337375706290136,2994.81194183288
-0.329619961227119,2994.82194183288
-0.323759967899559,2994.83194183288
-0.319605889715321,2994.84194183288
-0.316790673544018,2994.85194183288
-0.315540647799984,2994.86194183288
-0.315190740284919,2994.87194183288
-0.315560438525435,2994.88194183288
-0.316185353308673,2994.89194183288
-0.316399100530371,2994.90194183288
-0.316675141302262,2994.91194183288
-0.317053934223052,2994.92194183288
-0.317874837446896,2994.93194183288
-0.319749781553729,2994.94194183288
-0.32247401299303,2994.95194183288
-0.326415560856697,2994.96194183288
-0.331215758582544,2994.97194183288
-0.336188857004138,2994.98194183288
-0.341628380338246,2994.99194183288
-0.346257353817525,2995.00194183288
-0.349923805266077,2995.01194183288
-0.353030128870191,2995.02194183288
-0.355104726064502,2995.03194183288
-0.35634078027847,2995.04194183288
-0.356684472588324,2995.05194183288
-0.356342859360649,2995.06194183288
-0.35560663775091,2995.07194183288
-0.355242486942442,2995.08194183288
-0.354875131355846,2995.09194183288
-0.35435930999741,2995.10194183288
-0.353949499803781,2995.11194183288
-0.353508616007517,2995.12194183288
-0.353653531140799,2995.13194183288
-0.354477375010882,2995.14194183288
-0.356341951487611,2995.15194183288
-0.359089142683519,2995.16194183288
-0.363149958902807,2995.17194183288
-0.368214959658907,2995.18194183288
-0.374465899789056,2995.19194183288
-0.381635123842287,2995.20194183288
-0.388845543470682,2995.21194183288
-0.39720366983238,2995.22194183288
-0.404990285367569,2995.23194183288
-0.412956138499332,2995.24194183288
-0.421952923856011,2995.25194183288
-0.430735909518585,2995.26194183288
-0.439776736588105,2995.27194183288
-0.448144084366107,2995.28194183288
-0.455661036878252,2995.29194183288
-0.462659081858513,2995.30194183288
-0.469345081237127,2995.31194183288
-0.476303389017186,2995.32194183288
-0.483785177963592,2995.33194183288
-0.4917903370599,2995.34194183288
-0.49942800653319,2995.35194183288
-0.507107932488201,2995.36194183288
-0.514952678732072,2995.37194183288
-0.522753278566671,2995.38194183288
-0.530505412526227,2995.39194183288
-0.537904813691458,2995.40194183288
-0.545124489729231,2995.41194183288
-0.551715862195333,2995.42194183288
-0.557525148866933,2995.43194183288
-0.563195574973652,2995.44194183288
-0.568661263077732,2995.45194183288
-0.573782102539991,2995.46194183288
-0.579094399910897,2995.47194183288
-0.5841852569605,2995.48194183288
-0.58914894879491,2995.49194183288
-0.594065226053384,2995.50194183288
-0.598848562538453,2995.51194183288
-0.60363331877981,2995.52194183288
-0.608186112297627,2995.53194183288
-0.612908264454057,2995.54194183288
-0.617916890917041,2995.55194183288
-0.62298696935399,2995.56194183288
-0.628385537776111,2995.57194183288
-0.633763485857316,2995.58194183288
-0.638629421603714,2995.59194183288
-0.642965469893764,2995.60194183288
-0.647375238421776,2995.61194183288
-0.65166570953468,2995.62194183288
-0.65620482432939,2995.63194183288
-0.660944851229423,2995.64194183288
-0.66584460495447,2995.65194183288
-0.670261826266559,2995.66194183288
-0.671927128149875,2995.67194183288
-0.670225780265458,2995.68194183288
-0.663498793408156,2995.69194183288
-0.649282853682619,2995.70194183288
-0.627549569936924,2995.71194183288
-0.598354678361749,2995.72194183288
-0.563341902239326,2995.73194183288
-0.524533366819821,2995.74194183288
-0.484292037100217,2995.75194183288
-0.44510094368638,2995.76194183288
-0.408007635299854,2995.77194183288
-0.374763685617961,2995.78194183288
-0.346332482990744,2995.79194183288
-0.32310832225574,2995.80194183288
-0.305288581268065,2995.81194183288
-0.291932098479528,2995.82194183288
-0.282905766797031,2995.83194183288
-0.27713669590956,2995.84194183288
-0.274214960165966,2995.85194183288
-0.273340921368317,2995.86194183288
-0.273084799075079,2995.87194183288
-0.273632705155889,2995.88194183288
-0.274584394113232,2995.89194183288
-0.27431664384727,2995.90194183288
-0.273443578638825,2995.91194183288
-0.271813274139505,2995.92194183288
-0.270566503528798,2995.93194183288
-0.269893619848522,2995.94194183288
-0.270402452526596,2995.95194183288
-0.271910750430827,2995.96194183288
-0.275030204183858,2995.97194183288
-0.279326331479911,2995.98194183288
-0.283692715122814,2995.99194183288
-0.288292933051435,2996.00194183288
-0.292351275672747,2996.01194183288
-0.296268426924125,2996.02194183288
-0.299671386282838,2996.03194183288
-0.301558599125825,2996.04194183288
-0.30169930341167,2996.05194183288
-0.299653935844647,2996.06194183288
-0.296364013908763,2996.07194183288
-0.292202800206695,2996.08194183288
-0.287819467017396,2996.09194183288
-0.28400016975508,2996.10194183288
-0.280636795711231,2996.11194183288
-0.278306948958644,2996.12194183288
-0.276461880194997,2996.13194183288
-0.2759548599364,2996.14194183288
-0.276820156859524,2996.15194183288
-0.279065259649096,2996.16194183288
-0.283642227992661,2996.17194183288
-0.289377910063116,2996.18194183288
-0.295811609791547,2996.19194183288
-0.302017573212584,2996.20194183288
-0.308545951702616,2996.21194183288
-0.314617514410264,2996.22194183288
-0.321282504816426,2996.23194183288
-0.328417367316225,2996.24194183288
-0.335878401600484,2996.25194183288
-0.343991265130693,2996.26194183288
-0.352496250896328,2996.27194183288
-0.361441431519069,2996.28194183288
-0.369666846980671,2996.29194183288
-0.377666437391829,2996.30194183288
-0.385014238299278,2996.31194183288
-0.392581713911652,2996.32194183288
-0.39958724800286,2996.33194183288
-0.406673551257622,2996.34194183288
-0.41358326388868,2996.35194183288
-0.420270040091956,2996.36194183288
-0.426994133520718,2996.37194183288
-0.433487925801931,2996.38194183288
-0.44031159317501,2996.39194183288
-0.447101203590155,2996.40194183288
-0.453410517082263,2996.41194183288
-0.459572490933213,2996.42194183288
-0.464578630626456,2996.43194183288
-0.469374242376331,2996.44194183288
-0.473831258125644,2996.45194183288
-0.478421316237458,2996.46194183288
-0.483132622316915,2996.47194183288
-0.487688627392592,2996.48194183288
-0.491648986002209,2996.49194183288
-0.495153148623107,2996.50194183288
-0.498354968692732,2996.51194183288
-0.501371235044143,2996.52194183288
-0.504608411552547,2996.53194183288
-0.508279268446759,2996.54194183288
-0.511998993126687,2996.55194183288
-0.515619095757387,2996.56194183288
-0.519767678467041,2996.57194183288
-0.523133904821644,2996.58194183288
-0.527161253405721,2996.59194183288
-0.531427457951234,2996.60194183288
-0.536164044124531,2996.61194183288
-0.541267062032096,2996.62194183288
-0.546318638329466,2996.63194183288
-0.550875983389856,2996.64194183288
-0.555835070371718,2996.65194183288
-0.559372352818957,2996.66194183288
-0.560031037815035,2996.67194183288
-0.556768009033132,2996.68194183288
-0.546308041120155,2996.69194183288
-0.528011695920021,2996.70194183288
-0.50139346665177,2996.71194183288
-0.467545635130562,2996.72194183288
-0.428340591626964,2996.73194183288
-0.385416898582379,2996.74194183288
-0.340482100939835,2996.75194183288
-0.296366818401392,2996.76194183288
-0.254258346737648,2996.77194183288
-0.216657377277219,2996.78194183288
-0.184543995507061,2996.79194183288
-0.158365718993435,2996.80194183288
-0.138250994429006,2996.81194183288
-0.12403962868672,2996.82194183288
-0.114029227605539,2996.83194183288
-0.108137363831707,2996.84194183288
-0.104619196008347,2996.85194183288
-0.103806544064689,2996.86194183288
-0.104700837662928,2996.87194183288
-0.106173988134616,2996.88194183288
-0.108229544503049,2996.89194183288
-0.109502505091725,2996.90194183288
-0.110308357864918,2996.91194183288
-0.111132759280027,2996.92194183288
-0.112217326583783,2996.93194183288
-0.113357985336107,2996.94194183288
-0.115327620463841,2996.95194183288
-0.118956327632822,2996.96194183288
-0.123187746005046,2996.97194183288
-0.127829303205493,2996.98194183288
-0.131236019112072,2996.99194183288
-0.134223674934899,2997.00194183288
-0.135843581056804,2997.01194183288
-0.136502846831046,2997.02194183288
-0.135979226063166,2997.03194183288
-0.134468239830099,2997.04194183288
-0.131738601120481,2997.05194183288
-0.128116269696033,2997.06194183288
-0.123828422079746,2997.07194183288
-0.119595544316581,2997.08194183288
-0.115105985041237,2997.09194183288
-0.110699298647291,2997.10194183288
-0.106406049094271,2997.11194183288
-0.102836740184671,2997.12194183288
-0.100394660668098,2997.13194183288
-0.0989795165572798,2997.14194183288
-0.0986149217383958,2997.15194183288
-0.0990358048299688,2997.16194183288
-0.100424450083376,2997.17194183288
-0.10260755548265,2997.18194183288
-0.105560388818627,2997.19194183288
-0.109636944487538,2997.20194183288
-0.114628977124472,2997.21194183288
-0.12014740186855,2997.22194183288
-0.126248293587842,2997.23194183288
-0.132612401722537,2997.24194183288
-0.139038708666545,2997.25194183288
-0.145816651451002,2997.26194183288
-0.152861040082354,2997.27194183288
-0.159551540776221,2997.28194183288
-0.165732946612746,2997.29194183288
-0.172097271474882,2997.30194183288
-0.177827393351468,2997.31194183288
-0.183232203837621,2997.32194183288
-0.188538593028374,2997.33194183288
-0.193551240845308,2997.34194183288
-0.199537445968616,2997.35194183288
-0.205457479974041,2997.36194183288
-0.211552981974776,2997.37194183288
-0.217898161947682,2997.38194183288
-0.223901962383917,2997.39194183288
-0.229607840856012,2997.40194183288
-0.235691207438935,2997.41194183288
-0.241803121901161,2997.42194183288
-0.24802210838286,2997.43194183288
-0.253754861228653,2997.44194183288
-0.258751675432022,2997.45194183288
-0.263225916382527,2997.46194183288
-0.267161029221305,2997.47194183288
-0.271189685176903,2997.48194183288
-0.274748811879683,2997.49194183288
-0.278307006748668,2997.50194183288
-0.281321770407121,2997.51194183288
-0.284458268780842,2997.52194183288
-0.287142431274373,2997.53194183288
-0.289855541678026,2997.54194183288
-0.292980402112223,2997.55194183288
-0.296553228462664,2997.56194183288
-0.299962806159851,2997.57194183288
-0.303457657780097,2997.58194183288
-0.306990487967189,2997.59194183288
-0.311089529720777,2997.60194183288
-0.315708296904166,2997.61194183288
-0.320299859208701,2997.62194183288
-0.323627262445158,2997.63194183288
-0.322435503235007,2997.64194183288
-0.315769627400414,2997.65194183288
-0.301835155275658,2997.66194183288
-0.279950219471003,2997.67194183288
-0.24959656867395,2997.68194183288
-0.211403078846909,2997.69194183288
-0.166669990778035,2997.70194183288
-0.11803125059249,2997.71194183288
-0.0678780237072802,2997.72194183288
-0.0194080963259093,2997.73194183288
0.0252026155174919,2997.74194183288
0.063987122916594,2997.75194183288
0.0955420532896258,2997.76194183288
0.118900900960531,2997.77194183288
0.135305652607101,2997.78194183288
0.145872434125355,2997.79194183288
0.151814831914687,2997.80194183288
0.155003571223706,2997.81194183288
0.15636356913214,2997.82194183288
0.155844797197293,2997.83194183288
0.154490445190788,2997.84194183288
0.152838999646854,2997.85194183288
0.151189390256119,2997.86194183288
0.149412164318723,2997.87194183288
0.147467032764365,2997.88194183288
0.145685806941982,2997.89194183288
0.143857930289158,2997.90194183288
0.141780747478985,2997.91194183288
0.138860644385214,2997.92194183288
0.134580265724438,2997.93194183288
0.129321992169693,2997.94194183288
0.123969306103897,2997.95194183288
0.118717705474035,2997.96194183288
0.113780482515719,2997.97194183288
0.110258251823153,2997.98194183288
0.107711559119232,2997.99194183288
0.106261412322024,2998.00194183288
0.105496346752759,2998.01194183288
0.105539315185302,2998.02194183288
0.106896393422809,2998.03194183288
0.108249179246662,2998.04194183288
0.110308429714143,2998.05194183288
0.112687095718865,2998.06194183288
0.115223688486012,2998.07194183288
0.117768413908147,2998.08194183288
0.11930129719561,2998.09194183288
0.12020444079091,2998.10194183288
0.120602778730971,2998.11194183288
0.119849339882224,2998.12194183288
0.117901372083232,2998.13194183288
0.114144673117439,2998.14194183288
0.109405697319286,2998.15194183288
0.103724308793377,2998.16194183288
0.0975039548451293,2998.17194183288
0.09000599526485,2998.18194183288
0.0809902703991894,2998.19194183288
0.071367602275544,2998.20194183288
0.0624435511808588,2998.21194183288
0.0541912520246623,2998.22194183288
0.0468163239257204,2998.23194183288
0.0391288244416662,2998.24194183288
0.031174010082058,2998.25194183288
0.0228288105534614,2998.26194183288
0.0143410218425782,2998.27194183288
0.00630175934276892,2998.28194183288
-0.00134130889306535,2998.29194183288
-0.00870917516894283,2998.30194183288
-0.0157252566142799,2998.31194183288
-0.0225194097905457,2998.32194183288
-0.028900904866297,2998.33194183288
-0.0355443483119352,2998.34194183288
-0.0420301213156227,2998.35194183288
-0.0485400890323315,2998.36194183288
-0.0559754980813552,2998.37194183288
-0.0635312453662059,2998.38194183288
-0.0703712562707168,2998.39194183288
-0.0760717222458735,2998.40194183288
-0.0812964640819801,2998.41194183288
-0.0857290797925572,2998.42194183288
-0.0899627973187301,2998.43194183288
-0.0944086978435339,2998.44194183288
-0.099149886383612,2998.45194183288
-0.103866251196926,2998.46194183288
-0.108745179540921,2998.47194183288
-0.114253097707992,2998.48194183288
-0.11939780221023,2998.49194183288
-0.124650183378111,2998.50194183288
-0.129520784940952,2998.51194183288
-0.134693804568565,2998.52194183288
-0.140024541878438,2998.53194183288
-0.144236718709018,2998.54194183288
-0.14838115701303,2998.55194183288
-0.152037707530183,2998.56194183288
-0.15498602641086,2998.57194183288
-0.158187476645358,2998.58194183288
-0.161234377597152,2998.59194183288
-0.165318619788077,2998.60194183288
-0.169889277622448,2998.61194183288
-0.174809473242257,2998.62194183288
-0.17982660358445,2998.63194183288
-0.183068158301207,2998.64194183288
-0.183174725809504,2998.65194183288
-0.17774345257076,2998.66194183288
-0.165264970806787,2998.67194183288
-0.142912211083921,2998.68194183288
-0.111378697811616,2998.69194183288
-0.070576607837856,2998.70194183288
-0.0227656407388029,2998.71194183288
0.0290606241144292,2998.72194183288
0.0819348665560321,2998.73194183288
0.131613545983794,2998.74194183288
0.176388371433019,2998.75194183288
0.214091995244555,2998.76194183288
0.244183760436578,2998.77194183288
0.266828120714312,2998.78194183288
0.282409649738902,2998.79194183288
0.291803280472449,2998.80194183288
0.295592368218299,2998.81194183288
0.295481731958425,2998.82194183288
0.292371665589479,2998.83194183288
0.287855258483131,2998.84194183288
0.282716234563268,2998.85194183288
0.277606645792572,2998.86194183288
0.273552337985886,2998.87194183288
0.270204498530419,2998.88194183288
0.267055382162229,2998.89194183288
0.264281532003002,2998.90194183288
0.261198915702045,2998.91194183288
0.258009192631232,2998.92194183288
0.254143147187973,2998.93194183288
0.249596932342716,2998.94194183288
0.244625320399175,2998.95194183288
0.239063263864737,2998.96194183288
0.233312783394585,2998.97194183288
0.228158651407022,2998.98194183288
0.223719465451669,2998.99194183288
0.220364960420183,2999.00194183288
0.218009800290974,2999.01194183288
0.217473623297709,2999.02194183288
0.218042067855796,2999.03194183288
0.219332722308356,2999.04194183288
0.221910692913492,2999.05194183288
0.224422384699144,2999.06194183288
0.227655692413102,2999.07194183288
0.230844769173759,2999.08194183288
0.234014215083594,2999.09194183288
0.235691800856709,2999.10194183288
0.235951221007586,2999.11194183288
0.235264369499467,2999.12194183288
0.233634263523976,2999.13194183288
0.230285708221764,2999.14194183288
0.226357149751004,2999.15194183288
0.221562810798352,2999.16194183288
0.21648976638875,2999.17194183288
0.210473974881195,2999.18194183288
0.204444769856016,2999.19194183288
0.197401896405694,2999.20194183288
0.189418098039666,2999.21194183288
0.180667460252694,2999.22194183288
0.170886469268276,2999.23194183288
0.160908917173486,2999.24194183288
0.150450392154859,2999.25194183288
0.140001603673714,2999.26194183288
0.130180339510676,2999.27194183288
0.119669069847361,2999.28194183288
0.109144832987175,2999.29194183288
0.0991745459731515,2999.30194183288
0.0894697660234906,2999.31194183288
0.0813278120316579,2999.32194183288
0.0734818302773368,2999.33194183288
0.0654541134122685,2999.34194183288
0.0572815913824167,2999.35194183288
0.0489084721145811,2999.36194183288
0.0402447117891818,2999.37194183288
0.0319963378801238,2999.38194183288
0.0240404778594287,2999.39194183288
0.0166546865894924,2999.40194183288
0.0090631006257805,2999.41194183288
0.00157256721244608,2999.42194183288
-0.00600691144537829,2999.43194183288
-0.0140322787420934,2999.44194183288
-0.0212836671919102,2999.45194183288
-0.0281975351955233,2999.46194183288
-0.0341334916119271,2999.47194183288
-0.0394185081494849,2999.48194183288
-0.0443815780284923,2999.49194183288
-0.0485677240700605,2999.50194183288
-0.0526670080324389,2999.51194183288
-0.0568725906711331,2999.52194183288
-0.0613435149154479,2999.53194183288
-0.0661485583596268,2999.54194183288
-0.0714583561889021,2999.55194183288
-0.0772114236978197,2999.56194183288
-0.0827820896262853,2999.57194183288
-0.0888449426542594,2999.58194183288
-0.0952725841583246,2999.59194183288
-0.101029850284434,2999.60194183288
-0.106779409875175,2999.61194183288
-0.112266476407654,2999.62194183288
-0.117349329719386,2999.63194183288
-0.121313412796018,2999.64194183288
-0.123613200319669,2999.65194183288
-0.122617933935324,2999.66194183288
-0.116221920314574,2999.67194183288
-0.102226486568944,2999.68194183288
-0.0787185473992186,2999.69194183288
-0.0453611616678814,2999.70194183288
-0.00286203696808746,2999.71194183288
0.0464248083063519,2999.72194183288
0.0983954630799405,2999.73194183288
0.149736019240687,2999.74194183288
0.198127750410445,2999.75194183288
0.241569460608574,2999.76194183288
0.278706191221323,2999.77194183288
0.308224896772775,2999.78194183288
0.330679390227799,2999.79194183288
0.34562768769242,2999.80194183288
0.354493137185126,2999.81194183288
0.357653853986311,2999.82194183288
0.355575590543445,2999.83194183288
0.350156420465049,2999.84194183288
0.341785360120434,2999.85194183288
0.332192516579377,2999.86194183288
0.322142147471665,2999.87194183288
0.311939408399221,2999.88194183288
0.30285240787456,2999.89194183288
0.295540548546974,2999.90194183288
0.289412022414531,2999.91194183288
0.284619459252447,2999.92194183288
0.279767121646889,2999.93194183288
0.275101200225174,2999.94194183288
0.269326063919989,2999.95194183288
0.262375462403793,2999.96194183288
0.254661949070904,2999.97194183288
0.246096968831309,2999.98194183288
0.238136439762559,2999.99194183288
0.23109624725905,3000.00194183288
0.226306730586162,3000.01194183288
0.222682802709196,3000.02194183288
0.219761154735202,3000.03194183288
0.218686502443309,3000.04194183288
0.219550947417164,3000.05194183288
0.222749594328829,3000.06194183288
0.226588053143774,3000.07194183288
0.231198149411769,3000.08194183288
0.235126136006282,3000.09194183288
0.238660119393396,3000.10194183288
0.24153183663059,3000.11194183288
0.242699593210069,3000.12194183288
0.242994156244725,3000.13194183288
0.241193073461168,3000.14194183288
0.23817857890258,3000.15194183288
0.233149614824158,3000.16194183288
0.226916973035936,3000.17194183288
0.219447667544399,3000.18194183288
0.211260517598899,3000.19194183288
0.202128560900522,3000.20194183288
0.191327033355777,3000.21194183288
0.180647649727502,3000.22194183288
0.170552584871707,3000.23194183288
0.161637177941924,3000.24194183288
0.152926135234408,3000.25194183288
0.143675555191694,3000.26194183288
0.133644428567912,3000.27194183288
0.122685204776559,3000.28194183288
0.111591818609701,3000.29194183288
0.100510290210817,3000.30194183288
0.0890358455284803,3000.31194183288
0.0781144931936594,3000.32194183288
0.0674351585035342,3000.33194183288
0.0568130430530835,3000.34194183288
0.0458348170414634,3000.35194183288
0.0352989128517543,3000.36194183288
0.0255864860051929,3000.37194183288
0.017743070401563,3000.38194183288
0.0105305267455469,3000.39194183288
0.00404855869471126,3000.40194183288
-0.00271242863399267,3000.41194183288
-0.00953113681295703,3000.42194183288
-0.0163977737440376,3000.43194183288
-0.0231355722616463,3000.44194183288
-0.0295795395627734,3000.45194183288
-0.035919498023249,3000.46194183288
-0.042443444490952,3000.47194183288
-0.0491079930526128,3000.48194183288
-0.0554968092675632,3000.49194183288
-0.061692877315951,3000.50194183288
-0.0674777489579585,3000.51194183288
-0.0723277003853302,3000.52194183288
-0.0762940085009129,3000.53194183288
-0.0797558042237978,3000.54194183288
-0.082832377961442,3000.55194183288
-0.0864950655951813,3000.56194183288
-0.0909129346751001,3000.57194183288
-0.0959220166869279,3000.58194183288
-0.101619575958133,3000.59194183288
-0.107639598726168,3000.60194183288
-0.113973201081591,3000.61194183288
-0.119815302177891,3000.62194183288
-0.123279469925961,3000.63194183288
-0.122557324637609,3000.64194183288
-0.115354141861646,3000.65194183288
-0.0982955576313299,3000.66194183288
-0.0690508583498473,3000.67194183288
-0.0276501111154966,3000.68194183288
0.023199220255122,3000.69194183288
0.080243026637811,3000.70194183288
0.137827170029327,3000.71194183288
0.192724593569161,3000.72194183288
0.241571704579378,3000.73194183288
0.283014110979279,3000.74194183288
0.316091606237563,3000.75194183288
0.341138907801185,3000.76194183288
0.358456513700479,3000.77194183288
0.36824247364429,3000.78194183288
0.371741081617139,3000.79194183288
0.369558660170898,3000.80194183288
0.363640782984116,3000.81194183288
0.354637324441614,3000.82194183288
0.344119244756693,3000.83194183288
0.332960741162508,3000.84194183288
0.322424886505479,3000.85194183288
0.312666375436234,3000.86194183288
0.30368701772132,3000.87194183288
0.296125285733929,3000.88194183288
0.289076986482718,3000.89194183288
0.28214008053245,3000.90194183288
0.275577468769148,3000.91194183288
0.267864713926768,3000.92194183288
0.259641773266036,3000.93194183288
0.250472715153768,3000.94194183288
0.240936009068817,3000.95194183288
0.232842368028219,3000.96194183288
0.225937196292151,3000.97194183288
0.221694075412208,3000.98194183288
0.220032817612127,3000.99194183288
0.221961831071301,3001.00194183288
0.226540913449601,3001.01194183288
0.233396374040764,3001.02194183288
0.2416847992355,3001.03194183288
0.250268217690473,3001.04194183288
0.258514385092917,3001.05194183288
0.26583188737427,3001.06194183288
0.271466616009372,3001.07194183288
0.275445881881996,3001.08194183288
0.277306055225149,3001.09194183288
0.27759529728643,3001.10194183288
0.276981167711989,3001.11194183288
0.274969114133607,3001.12194183288
0.2722523112593,3001.13194183288
0.268417711197871,3001.14194183288
0.263595669079567,3001.15194183288
0.258367491311439,3001.16194183288
0.25210153997616,3001.17194183288
0.245110685795997,3001.18194183288
0.237171987896086,3001.19194183288
0.228243164951653,3001.20194183288
0.218852414027047,3001.21194183288
0.208954154185318,3001.22194183288
0.198737100172047,3001.23194183288
0.188615300460368,3001.24194183288
0.178365032956569,3001.25194183288
0.16865091682269,3001.26194183288
0.158922073058932,3001.27194183288
0.149582858060983,3001.28194183288
0.140337176834593,3001.29194183288
0.131473023396992,3001.30194183288
0.122409097235473,3001.31194183288
0.113553943201808,3001.32194183288
0.10540515064555,3001.33194183288
0.0974976082520306,3001.34194183288
0.0905691237717379,3001.35194183288
0.0835265191137143,3001.36194183288
0.0770002432687189,3001.37194183288
0.0704973903582667,3001.38194183288
0.0641303038461906,3001.39194183288
0.0580623247448191,3001.40194183288
0.0521159974028745,3001.41194183288
0.0469262644583446,3001.42194183288
0.0414282664220416,3001.43194183288
0.0363730835407136,3001.44194183288
0.0310207925087291,3001.45194183288
0.0249510799145941,3001.46194183288
0.0192778567690673,3001.47194183288
0.0136668212428008,3001.48194183288
0.00811308445699804,3001.49194183288
0.00274821155265108,3001.50194183288
-0.00241093505518805,3001.51194183288
-0.00706814741760616,3001.52194183288
-0.009417885500547,3001.53194183288
-0.00766598991061584,3001.54194183288
0.00120970084362118,3001.55194183288
0.019664932675906,3001.56194183288
0.0491775728351419,3001.57194183288
0.0894751071258339,3001.58194183288
0.138370295509737,3001.59194183288
0.192323500040359,3001.60194183288
0.248115241158467,3001.61194183288
0.301577707591904,3001.62194183288
0.350995148531948,3001.63194183288
0.394603825521878,3001.64194183288
0.430734143796043,3001.65194183288
0.459065537871186,3001.66194183288
0.479354129636597,3001.67194183288
0.491775702363079,3001.68194183288
0.497620278478433,3001.69194183288
0.497902729019328,3001.70194183288
0.493637233577684,3001.71194183288
0.486963715434594,3001.72194183288
0.477949152505408,3001.73194183288
0.468132418621105,3001.74194183288
0.458157673030044,3001.75194183288
0.448181060756917,3001.76194183288
0.439055715315869,3001.77194183288
0.430702667546125,3001.78194183288
0.423257854248602,3001.79194183288
0.416106586625889,3001.80194183288
0.409495630938864,3001.81194183288
0.403185871408596,3001.82194183288
0.39642013255826,3001.83194183288
0.388953886122031,3001.84194183288
0.381582806923707,3001.85194183288
0.374536297566252,3001.86194183288
0.367858936725473,3001.87194183288
0.36235949207113,3001.88194183288
0.35800658860571,3001.89194183288
0.354387759434366,3001.90194183288
0.352647541254591,3001.91194183288
0.352413709709869,3001.92194183288
0.35362700123845,3001.93194183288
0.355737537524561,3001.94194183288
0.358099075435969,3001.95194183288
0.360469628628561,3001.96194183288
0.362251089789103,3001.97194183288
0.363352408905644,3001.98194183288
0.363023211692287,3001.99194183288
0.361686012225271,3002.00194183288
0.358487445264941,3002.01194183288
0.353949371028024,3002.02194183288
0.347669171730371,3002.03194183288
0.340111340305623,3002.04194183288
0.331279440307674,3002.05194183288
0.321451197464552,3002.06194183288
0.310895982869094,3002.07194183288
0.299928910249975,3002.08194183288
0.288484702997128,3002.09194183288
0.27681328092045,3002.10194183288
0.265259536645643,3002.11194183288
0.254362137206606,3002.12194183288
0.24314515268802,3002.13194183288
0.232088200267285,3002.14194183288
0.221181033142164,3002.15194183288
0.210793493492756,3002.16194183288
0.199817533594941,3002.17194183288
0.188052824126288,3002.18194183288
0.175294699678447,3002.19194183288
0.162131167818816,3002.20194183288
0.149710003754605,3002.21194183288
0.13839042249078,3002.22194183288
0.128674066177898,3002.23194183288
0.119499734321847,3002.24194183288
0.110816304694946,3002.25194183288
0.102541190374611,3002.26194183288
0.0937816250882791,3002.27194183288
0.0849346746547914,3002.28194183288
0.076329066739384,3002.29194183288
0.0675746003033992,3002.30194183288
0.0583382893491683,3002.31194183288
0.049490842940242,3002.32194183288
0.0410595228970265,3002.33194183288
0.0330669546258134,3002.34194183288
0.0253066386996096,3002.35194183288
0.0180345610916788,3002.36194183288
0.0113947392345547,3002.37194183288
0.00445988764508415,3002.38194183288
-0.00343718284404891,3002.39194183288
-0.0122087371433851,3002.40194183288
-0.0217831830865906,3002.41194183288
-0.0313362036626789,3002.42194183288
-0.0404422405571416,3002.43194183288
-0.0487495850619339,3002.44194183288
-0.0559095625455338,3002.45194183288
-0.0611503402160129,3002.46194183288
-0.0625122981482109,3002.47194183288
-0.057155545629884,3002.48194183288
-0.0426617908116262,3002.49194183288
-0.0178188377182098,3002.50194183288
0.0174219744987941,3002.51194183288
0.0613685744375913,3002.52194183288
0.110272566678517,3002.53194183288
0.160804983344795,3002.54194183288
0.209498048731478,3002.55194183288
0.25338553039395,3002.56194183288
0.290570444158279,3002.57194183288
0.31985134462854,3002.58194183288
0.340845700490184,3002.59194183288
0.353845314068304,3002.60194183288
0.360214331328088,3002.61194183288
0.361581283800938,3002.62194183288
0.358610500857796,3002.63194183288
0.352630739057753,3002.64194183288
0.344541938636062,3002.65194183288
0.33514138494582,3002.66194183288
0.325359471494587,3002.67194183288
0.316003798346949,3002.68194183288
0.306548334831484,3002.69194183288
0.298090501144354,3002.70194183288
0.290255623043546,3002.71194183288
0.283504379834449,3002.72194183288
0.277235901646188,3002.73194183288
0.270310737274087,3002.74194183288
0.262292681574933,3002.75194183288
0.253120566892625,3002.76194183288
0.242182239918221,3002.77194183288
0.230418218777542,3002.78194183288
0.218521697069166,3002.79194183288
0.207076577267775,3002.80194183288
0.196521715650369,3002.81194183288
0.187784151560463,3002.82194183288
0.181041066880358,3002.83194183288
0.176507355091065,3002.84194183288
0.17378501974526,3002.85194183288
0.172342547255787,3002.86194183288
0.171251638045131,3002.87194183288
0.170041861837114,3002.88194183288
0.168989771040792,3002.89194183288
0.167759633377077,3002.90194183288
0.165618397796213,3002.91194183288
0.162729417340986,3002.92194183288
0.158996574006983,3002.93194183288
0.153682044289731,3002.94194183288
0.147247987170149,3002.95194183288
0.139849147619892,3002.96194183288
0.131045849719673,3002.97194183288
0.121318034227494,3002.98194183288
0.111353454782388,3002.99194183288
0.101179490471241,3003.00194183288
0.0898655409501026,3003.01194183288
0.0792932204732357,3003.02194183288
0.0680912412043005,3003.03194183288
0.0575556616162629,3003.04194183288
0.0465837496439307,3003.05194183288
0.0352813397451996,3003.06194183288
0.0236983288699654,3003.07194183288
0.0113123192926068,3003.08194183288
-0.00101442035261053,3003.09194183288
-0.0130070107570526,3003.10194183288
-0.0247934497097796,3003.11194183288
-0.0360675932753275,3003.12194183288
-0.0472030840228401,3003.13194183288
-0.0584414446325658,3003.14194183288
-0.070197224989309,3003.15194183288
-0.0817631426542125,3003.16194183288
-0.0922598150737614,3003.17194183288
-0.101132654625741,3003.18194183288
-0.109685575067118,3003.19194183288
-0.117342606126099,3003.20194183288
-0.124161487766655,3003.21194183288
-0.130130418526859,3003.22194183288
-0.135035136778835,3003.23194183288
-0.139494974442566,3003.24194183288
-0.144029181434416,3003.25194183288
-0.147978505982261,3003.26194183288
-0.151198250611235,3003.27194183288
-0.153901671215651,3003.28194183288
-0.155602640508813,3003.29194183288
-0.156713221260019,3003.30194183288
-0.15716011570786,3003.31194183288
-0.157907985821973,3003.32194183288
-0.157936952950366,3003.33194183288
-0.158070379799857,3003.34194183288
-0.15809827759749,3003.35194183288
-0.157843343966903,3003.36194183288
-0.157567308158325,3003.37194183288
-0.157842213749278,3003.38194183288
-0.158390321803545,3003.39194183288
-0.157587752374433,3003.40194183288
-0.153969756358988,3003.41194183288
-0.145036123175829,3003.42194183288
-0.128767424618918,3003.43194183288
-0.105232387727982,3003.44194183288
-0.0737993191094782,3003.45194183288
-0.0360618529448864,3003.46194183288
0.0056914096957398,3003.47194183288
0.0480817629442484,3003.48194183288
0.0880118245006953,3003.49194183288
0.12272122470973,3003.50194183288
0.150567249900407,3003.51194183288
0.171770066316101,3003.52194183288
0.185395944264981,3003.53194183288
0.192035016866833,3003.54194183288
0.193970058556972,3003.55194183288
0.191558210783996,3003.56194183288
0.185918576649636,3003.57194183288
0.17750091226006,3003.58194183288
0.167972537363279,3003.59194183288
0.156914842918296,3003.60194183288
0.14636031794915,3003.61194183288
0.136851382411524,3003.62194183288
0.12799838390354,3003.63194183288
0.11979096783738,3003.64194183288
0.113100765445375,3003.65194183288
0.107471146693776,3003.66194183288
0.10250714506558,3003.67194183288
0.0972636974608429,3003.68194183288
0.0914897941012533,3003.69194183288
0.0853634576731543,3003.70194183288
0.0785393530760165,3003.71194183288
0.0714961726480381,3003.72194183288
0.0644831533308655,3003.73194183288
0.0582195713637607,3003.74194183288
0.0530913608517978,3003.75194183288
0.0490196986751984,3003.76194183288
0.0461030513202354,3003.77194183288
0.0444153354897364,3003.78194183288
0.0447070583697384,3003.79194183288
0.0457988489158717,3003.80194183288
0.0484557645027892,3003.81194183288
0.0509730413831279,3003.82194183288
0.0528812042143201,3003.83194183288
0.0544306273925319,3003.84194183288
0.0550388162930143,3003.85194183288
0.0541138711189468,3003.86194183288
0.0523771993728703,3003.87194183288
0.0486474343592057,3003.88194183288
0.0436022609325168,3003.89194183288
0.0373572240142742,3003.90194183288
0.0303725062061139,3003.91194183288
0.0220739966665362,3003.92194183288
0.0130961715561386,3003.93194183288
0.00378799651732134,3003.94194183288
-0.00495619231440763,3003.95194183288
-0.0136167837582151,3003.96194183288
-0.0215686702415585,3003.97194183288
-0.0298033337694948,3003.98194183288
-0.0380365319195888,3003.99194183288
-0.0465271554351472,3004.00194183288
-0.0551550252899864,3004.01194183288
-0.0640462106115189,3004.02194183288
-0.0727547574293667,3004.03194183288
-0.0819964947354797,3004.04194183288
-0.09147101889288,3004.05194183288
-0.101129647411697,3004.06194183288
-0.110949104047907,3004.07194183288
-0.119230636408472,3004.08194183288
-0.126910917147783,3004.09194183288
-0.134323871084832,3004.10194183288
-0.141328543809529,3004.11194183288
-0.148245810042296,3004.12194183288
-0.155308592639329,3004.13194183288
-0.162696224807949,3004.14194183288
-0.170080098309373,3004.15194183288
-0.177827351768667,3004.16194183288
-0.185361696252472,3004.17194183288
-0.192706279120371,3004.18194183288
-0.199557913513719,3004.19194183288
-0.205668333926777,3004.20194183288
-0.21141931881225,3004.21194183288
-0.217406780867665,3004.22194183288
-0.223685120972952,3004.23194183288
-0.230646915432073,3004.24194183288
-0.237327643199222,3004.25194183288
-0.243590069509361,3004.26194183288
-0.249322323160412,3004.27194183288
-0.254441348437353,3004.28194183288
-0.259559100086083,3004.29194183288
-0.265278589497458,3004.30194183288
-0.270897684096957,3004.31194183288
-0.275352000874153,3004.32194183288
-0.27637609058981,3004.33194183288
-0.272288391525161,3004.34194183288
-0.261298823842915,3004.35194183288
-0.240713074642425,3004.36194183288
-0.210624454556709,3004.37194183288
-0.171456498034297,3004.38194183288
-0.125862588074757,3004.39194183288
-0.0771979291276092,3004.40194183288
-0.0291752331604045,3004.41194183288
0.0151003250067631,3004.42194183288
0.0533615979530137,3004.43194183288
0.0842967018544984,3004.44194183288
0.107258411114245,3004.45194183288
0.12313775711933,3004.46194183288
0.132801825535755,3004.47194183288
0.13705658479094,3004.48194183288
0.137130776321565,3004.49194183288
0.134454724021369,3004.50194183288
0.129645805157846,3004.51194183288
0.123504183125867,3004.52194183288
0.116039853292911,3004.53194183288
0.107723701070308,3004.54194183288
0.0999938505052132,3004.55194183288
0.0933388991648929,3004.56194183288
0.0882584979076575,3004.57194183288
0.0839122003119826,3004.58194183288
0.0798945159509445,3004.59194183288
0.0754628775751229,3004.60194183288
0.0699027505119549,3004.61194183288
0.0629565801048616,3004.62194183288
0.0549724093452856,3004.63194183288
0.0458641764639091,3004.64194183288
0.0370726654831365,3004.65194183288
0.0285607897857426,3004.66194183288
0.0209982199470273,3004.67194183288
0.0149566481912691,3004.68194183288
0.0100029053899571,3004.69194183288
0.00691579126233322,3004.70194183288
0.00579664851676504,3004.71194183288
0.00616329698483222,3004.72194183288
0.00815421092906946,3004.73194183288
0.0105689197552379,3004.74194183288
0.0122929187968303,3004.75194183288
0.0134761294289434,3004.76194183288
0.0132151205153068,3004.77194183288
0.0116799157376288,3004.78194183288
0.00870145638530515,3004.79194183288
0.00401119996532685,3004.80194183288
-0.00185979519517489,3004.81194183288
-0.00850315696975807,3004.82194183288
-0.0162442942543096,3004.83194183288
-0.024785184547834,3004.84194183288
-0.0338878033044544,3004.85194183288
-0.0431794920812327,3004.86194183288
-0.0522785262117333,3004.87194183288
-0.061155233654178,3004.88194183288
-0.0699616836674802,3004.89194183288
-0.0784480460751427,3004.90194183288
-0.0870488846867187,3004.91194183288
-0.0959823208105041,3004.92194183288
-0.10513958738195,3004.93194183288
-0.114914301991037,3004.94194183288
-0.125088786922796,3004.95194183288
-0.135509251943451,3004.96194183288
-0.145761203226822,3004.97194183288
-0.155749921723769,3004.98194183288
-0.165578876693993,3004.99194183288
-0.175424406398366,3005.00194183288
-0.1847062409714,3005.01194183288
-0.193329972135953,3005.02194183288
-0.200978994358298,3005.03194183288
-0.208296863536674,3005.04194183288
-0.215552330723397,3005.05194183288
-0.22271730904673,3005.06194183288
-0.23032696303841,3005.07194183288
-0.237723216714226,3005.08194183288
-0.244800007918654,3005.09194183288
-0.251850752008711,3005.10194183288
-0.25815036728468,3005.11194183288
-0.264758613373842,3005.12194183288
-0.271478055917009,3005.13194183288
-0.278044272245791,3005.14194183288
-0.283650484883822,3005.15194183288
-0.289490676691364,3005.16194183288
-0.295001932620394,3005.17194183288
-0.300064571637021,3005.18194183288
-0.305776106835927,3005.19194183288
-0.311555601672138,3005.20194183288
-0.31777604970236,3005.21194183288
-0.324604570285837,3005.22194183288
-0.331320203952446,3005.23194183288
-0.336336613090041,3005.24194183288
-0.338192450936234,3005.25194183288
-0.33509900869718,3005.26194183288
-0.324951723049673,3005.27194183288
-0.305909172675392,3005.28194183288
-0.277816310046647,3005.29194183288
-0.241242539486847,3005.30194183288
-0.19965931810882,3005.31194183288
-0.15739094005069,3005.32194183288
-0.116784110147616,3005.33194183288
-0.0806629402597251,3005.34194183288
-0.0512733584549095,3005.35194183288
-0.0289422300338159,3005.36194183288
-0.0137536724295488,3005.37194183288
-0.00462729783865991,3005.38194183288
-0.000399891201245072,3005.39194183288
-0.000265637018048167,3005.40194183288
-0.00379806371982889,3005.41194183288
-0.00972071788167008,3005.42194183288
-0.017203216384366,3005.43194183288
-0.0257055187305832,3005.44194183288
-0.0337796966617823,3005.45194183288
-0.0414746230534442,3005.46194183288
-0.0479878759010409,3005.47194183288
-0.0535705383301678,3005.48194183288
-0.0587046579433627,3005.49194183288
-0.0635025013423593,3005.50194183288
-0.0690355411837045,3005.51194183288
-0.0758821743051348,3005.52194183288
-0.0839815347726624,3005.53194183288
-0.0930509599945349,3005.54194183288
-0.102361012226226,3005.55194183288
-0.111618053883729,3005.56194183288
-0.120328411489683,3005.57194183288
-0.128592543266158,3005.58194183288
-0.135593081700036,3005.59194183288
-0.141727416321194,3005.60194183288
-0.147050326860101,3005.61194183288
-0.151131745520986,3005.62194183288
-0.154399697010621,3005.63194183288
-0.156972152146613,3005.64194183288
-0.158210418669185,3005.65194183288
-0.159296540032304,3005.66194183288
-0.160910782747707,3005.67194183288
-0.162800076357448,3005.68194183288
-0.165641632667273,3005.69194183288
-0.170106498708317,3005.70194183288
-0.175205920475157,3005.71194183288
-0.182078056254565,3005.72194183288
-0.189330844047887,3005.73194183288
-0.197572056090166,3005.74194183288
-0.206620471962583,3005.75194183288
-0.216336685471557,3005.76194183288
-0.226733668641885,3005.77194183288
-0.237875820052399,3005.78194183288
-0.248723840958341,3005.79194183288
-0.260009204695927,3005.80194183288
-0.270625000378303,3005.81194183288
-0.281878854559484,3005.82194183288
-0.293701921923954,3005.83194183288
-0.305904224839568,3005.84194183288
-0.318484493357971,3005.85194183288
-0.331401235446097,3005.86194183288
-0.343800915548008,3005.87194183288
-0.355955798865677,3005.88194183288
-0.368523789088312,3005.89194183288
-0.380898060787456,3005.90194183288
-0.39316081070555,3005.91194183288
-0.405449015725306,3005.92194183288
-0.417343859596479,3005.93194183288
-0.428495923383688,3005.94194183288
-0.439679473880581,3005.95194183288
-0.449972599526591,3005.96194183288
-0.460219777619176,3005.97194183288
-0.470355499380421,3005.98194183288
-0.481088810122384,3005.99194183288
-0.49198989185953,3006.00194183288
-0.502878837168498,3006.01194183288
-0.513133988185186,3006.02194183288
-0.523190894928566,3006.03194183288
-0.532964288549874,3006.04194183288
-0.542404673068558,3006.05194183288
-0.552433645555344,3006.06194183288
-0.562120751855459,3006.07194183288
-0.572675951489516,3006.08194183288
-0.58307788036768,3006.09194183288
-0.593255326879513,3006.10194183288
-0.604000487339699,3006.11194183288
-0.614889086211054,3006.12194183288
-0.625431640175957,3006.13194183288
-0.634732486418641,3006.14194183288
-0.640482119556869,3006.15194183288
-0.641977862390654,3006.16194183288
-0.637314168808645,3006.17194183288
-0.62624266363759,3006.18194183288
-0.609860950954862,3006.19194183288
-0.588514657006289,3006.20194183288
-0.563878150603896,3006.21194183288
-0.538344976416978,3006.22194183288
-0.513101550800884,3006.23194183288
-0.490260089090553,3006.24194183288
-0.470827731881172,3006.25194183288
-0.456661017675562,3006.26194183288
-0.448019805403523,3006.27194183288
-0.444184449836788,3006.28194183288
-0.444130062383887,3006.29194183288
-0.446869892724311,3006.30194183288
-0.4514049422105,3006.31194183288
-0.456984567481962,3006.32194183288
-0.463523721830961,3006.33194183288
-0.470175368291885,3006.34194183288
-0.477113456835723,3006.35194183288
-0.484484328514757,3006.36194183288
-0.491506354469603,3006.37194183288
-0.498781803119864,3006.38194183288
-0.505408196112418,3006.39194183288
-0.511332512592951,3006.40194183288
-0.517777673895624,3006.41194183288
-0.524499813634903,3006.42194183288
-0.531700205745069,3006.43194183288
-0.539155062087436,3006.44194183288
-0.547169055075337,3006.45194183288
-0.555296094102111,3006.46194183288
-0.563382129752571,3006.47194183288
-0.571146523051741,3006.48194183288
-0.577874684409587,3006.49194183288
-0.583561587886538,3006.50194183288
-0.588263711828347,3006.51194183288
-0.591888569665345,3006.52194183288
-0.595153594999957,3006.53194183288
-0.597788851378567,3006.54194183288
-0.600788945161181,3006.55194183288
-0.603736981120545,3006.56194183288
-0.606806475891531,3006.57194183288
-0.610613876459779,3006.58194183288
-0.615156952674379,3006.59194183288
-0.620002394172777,3006.60194183288
-0.625411279637243,3006.61194183288
-0.63170273259154,3006.62194183288
-0.638649943079221,3006.63194183288
-0.645553661983271,3006.64194183288
-0.652954214555072,3006.65194183288
-0.660892212037676,3006.66194183288
-0.669734992178988,3006.67194183288
-0.678690059414096,3006.68194183288
-0.687437571755628,3006.69194183288
-0.696045916669409,3006.70194183288
-0.705045018178174,3006.71194183288
-0.713907793628044,3006.72194183288
-0.722226717309403,3006.73194183288
-0.730552050190562,3006.74194183288
-0.739348798279979,3006.75194183288
-0.74758947785845,3006.76194183288
-0.754876651094738,3006.77194183288
-0.762334670114945,3006.78194183288
-0.769105904304118,3006.79194183288
-0.776598427027236,3006.80194183288
-0.784141675305723,3006.81194183288
-0.79223273646249,3006.82194183288
-0.800697342648043,3006.83194183288
-0.80877434747492,3006.84194183288
-0.816563906180866,3006.85194183288
-0.824443004402621,3006.86194183288
-0.831623429156803,3006.87194183288
-0.838609494489972,3006.88194183288
-0.846092113002281,3006.89194183288
-0.853209394559557,3006.90194183288
-0.860058224149821,3006.91194183288
-0.866276594458807,3006.92194183288
-0.872070931885516,3006.93194183288
-0.878273725792035,3006.94194183288
-0.88450947671511,3006.95194183288
-0.8911560386526,3006.96194183288
-0.897330523425636,3006.97194183288
-0.903678526991449,3006.98194183288
-0.909562557860976,3006.99194183288
-0.915285696142662,3007.00194183288
-0.919890374188301,3007.01194183288
-0.922222679850828,3007.02194183288
-0.921619365441003,3007.03194183288
-0.916516792512409,3007.04194183288
-0.90734189796593,3007.05194183288
-0.894372905495668,3007.06194183288
-0.878622958785017,3007.07194183288
-0.86214605133423,3007.08194183288
-0.845830512935024,3007.09194183288
-0.830623499279508,3007.10194183288
-0.817659413150581,3007.11194183288
-0.807379102089091,3007.12194183288
-0.800461420760869,3007.13194183288
-0.796369611312489,3007.14194183288
-0.795480569687842,3007.15194183288
-0.796596178293185,3007.16194183288
-0.799696303647825,3007.17194183288
-0.803870406738125,3007.18194183288
-0.808342608423152,3007.19194183288
-0.811770686408919,3007.20194183288
-0.814323568447287,3007.21194183288
-0.816431651410459,3007.22194183288
-0.818056228817376,3007.23194183288
-0.820042290706643,3007.24194183288
-0.822375796112443,3007.25194183288
-0.824508499549805,3007.26194183288
-0.827150675944055,3007.27194183288
-0.830210399593326,3007.28194183288
-0.834035829766276,3007.29194183288
-0.838659505896617,3007.30194183288
-0.843612481859737,3007.31194183288
-0.84811249563797,3007.32194183288
-0.852502546524286,3007.33194183288
-0.855945574849935,3007.34194183288
-0.859679030620631,3007.35194183288
-0.863234182023047,3007.36194183288
-0.86680751796758,3007.37194183288
-0.868821380895529,3007.38194183288
-0.870505623973715,3007.39194183288
-0.871550247421217,3007.40194183288
-0.872051961677482,3007.41194183288
-0.873144787252111,3007.42194183288
-0.874488572396425,3007.43194183288
-0.876525806918452,3007.44194183288
-0.878845066992446,3007.45194183288
-0.881847990449484,3007.46194183288
-0.885022374413861,3007.47194183288
-0.888952316749816,3007.48194183288
-0.893054815928039,3007.49194183288
-0.89682401522387,3007.50194183288
-0.899960086177814,3007.51194183288
-0.902516259678496,3007.52194183288
-0.904726660049553,3007.53194183288
-0.906869125030124,3007.54194183288
-0.909653081501048,3007.55194183288
-0.912696385695887,3007.56194183288
-0.915994896423029,3007.57194183288
-0.919435111040622,3007.58194183288
-0.922488817816838,3007.59194183288
-0.926024721183591,3007.60194183288
-0.929474653708307,3007.61194183288
-0.933089319870559,3007.62194183288
-0.936429789615227,3007.63194183288
-0.939652570095505,3007.64194183288
-0.942831335659361,3007.65194183288
-0.946001258045189,3007.66194183288
-0.949246568713485,3007.67194183288
-0.951860479429043,3007.68194183288
-0.953837615246062,3007.69194183288
-0.95549457133799,3007.70194183288
-0.956620927335528,3007.71194183288
-0.958271996274454,3007.72194183288
-0.959733849559901,3007.73194183288
-0.961227666487083,3007.74194183288
-0.962650675410937,3007.75194183288
-0.964029729135101,3007.76194183288
-0.964899327352481,3007.77194183288
-0.965848560125034,3007.78194183288
-0.966402915710064,3007.79194183288
-0.967424855164173,3007.80194183288
-0.968700057575263,3007.81194183288
-0.970122166992513,3007.82194183288
-0.97141453544603,3007.83194183288
-0.972813569647887,3007.84194183288
-0.9738407061259,3007.85194183288
-0.975137084209436,3007.86194183288
-0.975980335742899,3007.87194183288
-0.976676773069857,3007.88194183288
-0.977100499787107,3007.89194183288
-0.977947738485438,3007.90194183288
-0.979130646024856,3007.91194183288
-0.981123972482844,3007.92194183288
-0.982121023896695,3007.93194183288
-0.979950953078114,3007.94194183288
-0.974845936737906,3007.95194183288
-0.965998150307885,3007.96194183288
-0.953345572984209,3007.97194183288
-0.937655939866442,3007.98194183288
-0.921525906676789,3007.99194183288
-0.90605766891588,3008.00194183288
-0.892052025594015,3008.01194183288
-0.881198536737465,3008.02194183288
-0.872241666096078,3008.03194183288
-0.865678860449477,3008.04194183288
-0.861145700986075,3008.05194183288
-0.85819647426719,3008.06194183288
-0.856927811089672,3008.07194183288
-0.856571476793427,3008.08194183288
-0.856735027610766,3008.09194183288
-0.857477760789758,3008.10194183288
-0.857146423161706,3008.11194183288
-0.856812252932061,3008.12194183288
-0.85584479367793,3008.13194183288
-0.85484362269194,3008.14194183288
-0.853162682020468,3008.15194183288
-0.851246262543877,3008.16194183288
-0.849268087969018,3008.17194183288
-0.84688223513402,3008.18194183288
-0.844929470978218,3008.19194183288
-0.843115896275599,3008.20194183288
-0.842593600251651,3008.21194183288
-0.842349030193026,3008.22194183288
-0.842370551506084,3008.23194183288
-0.842709402491143,3008.24194183288
-0.8425223249851,3008.25194183288
-0.84226615411499,3008.26194183288
-0.84192094289413,3008.27194183288
-0.841206852104766,3008.28194183288
-0.839870643492026,3008.29194183288
-0.837832291060052,3008.30194183288
-0.835692981515388,3008.31194183288
-0.833247762075701,3008.32194183288
-0.831106259453359,3008.33194183288
-0.829928761161162,3008.34194183288
-0.828915072755836,3008.35194183288
-0.828394339315946,3008.36194183288
-0.827617401199573,3008.37194183288
-0.826709971795582,3008.38194183288
-0.826472806693046,3008.39194183288
-0.82741456263001,3008.40194183288
-0.828774649207797,3008.41194183288
-0.830080784106053,3008.42194183288
-0.831671363255204,3008.43194183288
-0.832161915927455,3008.44194183288
-0.832389557349002,3008.45194183288
-0.831929924605626,3008.46194183288
-0.831506035004612,3008.47194183288
-0.831150077796353,3008.48194183288
-0.830874147335994,3008.49194183288
-0.83108505130351,3008.50194183288
-0.832146239202176,3008.51194183288
-0.833447919430186,3008.52194183288
-0.835184909937725,3008.53194183288
-0.837152316617213,3008.54194183288
-0.839061359795987,3008.55194183288
-0.840350936306282,3008.56194183288
-0.840635382405512,3008.57194183288
-0.840005490748811,3008.58194183288
-0.839406319039203,3008.59194183288
-0.838856256970861,3008.60194183288
-0.83901070075372,3008.61194183288
-0.839649808857289,3008.62194183288
-0.840724032553435,3008.63194183288
-0.841672302731748,3008.64194183288
-0.842124207162658,3008.65194183288
-0.842233083558718,3008.66194183288
-0.842192966064169,3008.67194183288
-0.842644242625883,3008.68194183288
-0.843622442304825,3008.69194183288
-0.844761836573729,3008.70194183288
-0.845719659945207,3008.71194183288
-0.846744121306715,3008.72194183288
-0.847860816583813,3008.73194183288
-0.847688186037993,3008.74194183288
-0.847233486972932,3008.75194183288
-0.846565702006264,3008.76194183288
-0.845910805415157,3008.77194183288
-0.845632009320801,3008.78194183288
-0.845544629880392,3008.79194183288
-0.845927157782317,3008.80194183288
-0.846189604051746,3008.81194183288
-0.846275640142922,3008.82194183288
-0.846238611177447,3008.83194183288
-0.846086369569447,3008.84194183288
-0.846021289660724,3008.85194183288
-0.84598705077792,3008.86194183288
-0.845944705659272,3008.87194183288
-0.845130861907756,3008.88194183288
-0.843920640487057,3008.89194183288
-0.841954420077503,3008.90194183288
-0.838928900653213,3008.91194183288
-0.834061396971986,3008.92194183288
-0.827110950721536,3008.93194183288
-0.818238228264246,3008.94194183288
-0.807039002692518,3008.95194183288
-0.794810346566761,3008.96194183288
-0.782753867745454,3008.97194183288
-0.770648528092021,3008.98194183288
-0.759476920422184,3008.99194183288
-0.749493931714007,3009.00194183288
-0.741216202554325,3009.01194183288
-0.734910578429152,3009.02194183288
-0.730211592528675,3009.03194183288
-0.725937079362511,3009.04194183288
-0.722725851316415,3009.05194183288
-0.719957433918593,3009.06194183288
-0.717464860256244,3009.07194183288
-0.714767759040848,3009.08194183288
-0.712344320205463,3009.09194183288
-0.710416810384703,3009.10194183288
-0.708185429689473,3009.11194183288
-0.706284979001608,3009.12194183288
-0.704466847019011,3009.13194183288
-0.702260491969975,3009.14194183288
-0.700102239223226,3009.15194183288
-0.698226447132653,3009.16194183288
-0.696581031800477,3009.17194183288
-0.694797862557323,3009.18194183288
-0.692456499120338,3009.19194183288
-0.690246790264474,3009.20194183288
-0.687868122129907,3009.21194183288
-0.685664284588586,3009.22194183288
-0.683978255027918,3009.23194183288
-0.682729942005515,3009.24194183288
-0.681340920495281,3009.25194183288
-0.679977568532245,3009.26194183288
-0.677850277663464,3009.27194183288
-0.675776310448163,3009.28194183288
-0.673082061293785,3009.29194183288
-0.670543423866007,3009.30194183288
-0.667694399768546,3009.31194183288
-0.665397759787171,3009.32194183288
-0.662385975603441,3009.33194183288
-0.658780496206531,3009.34194183288
-0.655393469933992,3009.35194183288
-0.651767459145986,3009.36194183288
-0.648748585379382,3009.37194183288
-0.646467178440781,3009.38194183288
-0.644845931378154,3009.39194183288
-0.643522967830193,3009.40194183288
-0.642051038284172,3009.41194183288
-0.640172175666579,3009.42194183288
-0.637902011617245,3009.43194183288
-0.636252898322056,3009.44194183288
-0.634557649325712,3009.45194183288
-0.633623324559675,3009.46194183288
-0.632745656830374,3009.47194183288
-0.631849116755789,3009.48194183288
-0.630284742974889,3009.49194183288
-0.628959154698285,3009.50194183288
-0.627630079122375,3009.51194183288
-0.626393219999387,3009.52194183288
-0.624652359858815,3009.53194183288
-0.623143178945767,3009.54194183288
-0.622049417071924,3009.55194183288
-0.620962420283296,3009.56194183288
-0.620660497388787,3009.57194183288
-0.620349796639717,3009.58194183288
-0.62059660310517,3009.59194183288
-0.621537508915037,3009.60194183288
-0.622684704229041,3009.61194183288
-0.623723400286798,3009.62194183288
-0.623574896431408,3009.63194183288
-0.623056253416088,3009.64194183288
-0.621807629003229,3009.65194183288
-0.620173946854299,3009.66194183288
-0.618252608934053,3009.67194183288
-0.616169488447077,3009.68194183288
-0.61418805598861,3009.69194183288
-0.612873057350793,3009.70194183288
-0.611690809328792,3009.71194183288
-0.611031851172112,3009.72194183288
-0.609649732134167,3009.73194183288
-0.609089680868495,3009.74194183288
-0.608961130050667,3009.75194183288
-0.608759210026311,3009.76194183288
-0.608697793823184,3009.77194183288
-0.608320825778577,3009.78194183288
-0.607845356216639,3009.79194183288
-0.606116390612387,3009.80194183288
-0.603679890441603,3009.81194183288
-0.601256785094821,3009.82194183288
-0.599151237068458,3009.83194183288
-0.597043946536281,3009.84194183288
-0.594578895893851,3009.85194183288
-0.590688717630173,3009.86194183288
-0.583860648562824,3009.87194183288
-0.573490466219137,3009.88194183288
-0.560148146992738,3009.89194183288
-0.543975216781416,3009.90194183288
-0.525352112522143,3009.91194183288
-0.506206241719551,3009.92194183288
-0.486754293314337,3009.93194183288
-0.468676500936263,3009.94194183288
-0.451601601101372,3009.95194183288
-0.436661801776552,3009.96194183288
-0.42331682177774,3009.97194183288
-0.412004627603352,3009.98194183288
-0.402838542152681,3009.99194183288
-0.394966815772208,3010.00194183288
-0.387957487477067,3010.01194183288
-0.382166565509116,3010.02194183288
-0.377450759613975,3010.03194183288
-0.372969460006276,3010.04194183288
-0.368680301782905,3010.05194183288
-0.364086281981948,3010.06194183288
-0.359682765944654,3010.07194183288
-0.35528340936602,3010.08194183288
-0.350834558000371,3010.09194183288
-0.346781077597271,3010.10194183288
-0.343037479052105,3010.11194183288
-0.340211305169785,3010.12194183288
-0.338111395005646,3010.13194183288
-0.336268277716434,3010.14194183288
-0.334877986972021,3010.15194183288
-0.334134084659399,3010.16194183288
-0.332766175784302,3010.17194183288
-0.331552488374035,3010.18194183288
-0.330035566794205,3010.19194183288
-0.327878083950311,3010.20194183288
-0.325634205737822,3010.21194183288
-0.323313824356319,3010.22194183288
-0.320789898166128,3010.23194183288
-0.318496434470684,3010.24194183288
-0.316558941162835,3010.25194183288
-0.314324113044436,3010.26194183288
-0.311968982256404,3010.27194183288
-0.309634193613924,3010.28194183288
-0.307400144244749,3010.29194183288
-0.305509547120111,3010.30194183288
-0.303891411384469,3010.31194183288
-0.302556587987959,3010.32194183288
-0.301085573454455,3010.33194183288
-0.300103023683481,3010.34194183288
-0.299060583188273,3010.35194183288
-0.298506110997849,3010.36194183288
-0.297892749479882,3010.37194183288
-0.29788327547087,3010.38194183288
-0.298016187398563,3010.39194183288
-0.299146094598112,3010.40194183288
-0.300540435005006,3010.41194183288
-0.301679556206431,3010.42194183288
-0.302353806990365,3010.43194183288
-0.302219738071402,3010.44194183288
-0.301963380273165,3010.45194183288
-0.301563202602201,3010.46194183288
-0.301577249603139,3010.47194183288
-0.30203087881448,3010.48194183288
-0.302802296763118,3010.49194183288
-0.303045907209357,3010.50194183288
-0.303532612899291,3010.51194183288
-0.304477711982615,3010.52194183288
-0.304957326482986,3010.53194183288
-0.305563598964761,3010.54194183288
-0.306539598796732,3010.55194183288
-0.307516653468283,3010.56194183288
-0.308344148410955,3010.57194183288
-0.309106119083878,3010.58194183288
-0.309815409933638,3010.59194183288
-0.310574475746777,3010.60194183288
-0.310974175200849,3010.61194183288
-0.311581346565662,3010.62194183288
-0.311623943313632,3010.63194183288
-0.3115111340784,3010.64194183288
-0.311073735458071,3010.65194183288
-0.310850036290132,3010.66194183288
-0.311133713828867,3010.67194183288
-0.3116455258485,3010.68194183288
-0.312518729921474,3010.69194183288
-0.313457513865997,3010.70194183288
-0.314984548377999,3010.71194183288
-0.315740220607056,3010.72194183288
-0.316119325688844,3010.73194183288
-0.31619834064243,3010.74194183288
-0.315707044165067,3010.75194183288
-0.315037351378914,3010.76194183288
-0.314510598068353,3010.77194183288
-0.313727127081659,3010.78194183288
-0.312896714892605,3010.79194183288
-0.312084398037644,3010.80194183288
-0.311137029887466,3010.81194183288
-0.308841168178705,3010.82194183288
-0.303908921689074,3010.83194183288
-0.295874014043189,3010.84194183288
-0.284331392161383,3010.85194183288
-0.269421981873748,3010.86194183288
-0.250958254918825,3010.87194183288
-0.229742018229245,3010.88194183288
-0.206597228154689,3010.89194183288
-0.183021848376832,3010.90194183288
-0.160668593090018,3010.91194183288
-0.140657314668971,3010.92194183288
-0.122708868128355,3010.93194183288
-0.107398514249731,3010.94194183288
-0.0949351623141367,3010.95194183288
-0.0847909246875139,3010.96194183288
-0.0767347373080941,3010.97194183288
-0.0706714292185997,3010.98194183288
-0.0656898516669087,3010.99194183288
-0.0619721012994739,3011.00194183288
-0.0581472465809962,3011.01194183288
-0.0549102134608095,3011.02194183288
-0.0524982426216688,3011.03194183288
-0.0500956734190923,3011.04194183288
-0.0481896116574934,3011.05194183288
-0.0461367458587858,3011.06194183288
-0.043460546244986,3011.07194183288
-0.0409715957382884,3011.08194183288
-0.0383560944791007,3011.09194183288
-0.0370504020955827,3011.10194183288
-0.0367728999046574,3011.11194183288
-0.0369506490488089,3011.12194183288
-0.0379150324225692,3011.13194183288
-0.0389682550363242,3011.14194183288
-0.0405642175402184,3011.15194183288
-0.0415521267871735,3011.16194183288
-0.0423255924445099,3011.17194183288
-0.0423742860146974,3011.18194183288
-0.0416420512208872,3011.19194183288
-0.0401615383333806,3011.20194183288
-0.0378854894423793,3011.21194183288
-0.034882208390582,3011.22194183288
-0.0319392237381892,3011.23194183288
-0.0291889015332242,3011.24194183288
-0.026506925378547,3011.25194183288
-0.0244885558416471,3011.26194183288
-0.0230421987166287,3011.27194183288
-0.0230658729217412,3011.28194183288
-0.0235541087161532,3011.29194183288
-0.0247232503230116,3011.30194183288
-0.0261918645981473,3011.31194183288
-0.0282384943038848,3011.32194183288
-0.0303547022426155,3011.33194183288
-0.0323769201579433,3011.34194183288
-0.0351873169339171,3011.35194183288
-0.0379300205791075,3011.36194183288
-0.040733864790033,3011.37194183288
-0.043379507230167,3011.38194183288
-0.045574710621618,3011.39194183288
-0.047786170453733,3011.40194183288
-0.0502437558868519,3011.41194183288
-0.0530567870159601,3011.42194183288
-0.0568871146311514,3011.43194183288
-0.0605046561922679,3011.44194183288
-0.0647555358353848,3011.45194183288
-0.0684716816102063,3011.46194183288
-0.0722632783679102,3011.47194183288
-0.0757443245863179,3011.48194183288
-0.0790463532758054,3011.49194183288
-0.0822676644553832,3011.50194183288
-0.0855432803796365,3011.51194183288
-0.0890370690038996,3011.52194183288
-0.0919907344691139,3011.53194183288
-0.0952800954784905,3011.54194183288
-0.0985843535915218,3011.55194183288
-0.101464612258377,3011.56194183288
-0.105325214953234,3011.57194183288
-0.108938731379231,3011.58194183288
-0.112377922317339,3011.59194183288
-0.116230670183255,3011.60194183288
-0.119706696176706,3011.61194183288
-0.123121788770679,3011.62194183288
-0.126573554458687,3011.63194183288
-0.129687336030225,3011.64194183288
-0.132965222802293,3011.65194183288
-0.136806776170895,3011.66194183288
-0.139993555344243,3011.67194183288
-0.143326180850483,3011.68194183288
-0.145812733234887,3011.69194183288
-0.148102827002369,3011.70194183288
-0.149462555788342,3011.71194183288
-0.150721989340349,3011.72194183288
-0.152075750879676,3011.73194183288
-0.153511686887752,3011.74194183288
-0.15508503186938,3011.75194183288
-0.156878598384564,3011.76194183288
-0.159159221432054,3011.77194183288
-0.161744688388973,3011.78194183288
-0.16432496223006,3011.79194183288
-0.165902567182805,3011.80194183288
-0.164326463108733,3011.81194183288
-0.1598248874973,3011.82194183288
-0.151142909727018,3011.83194183288
-0.137259059804228,3011.84194183288
-0.117957344478581,3011.85194183288
-0.0941839099811776,3011.86194183288
-0.0673663095760625,3011.87194183288
-0.039831393221818,3011.88194183288
-0.0135795122670268,3011.89194183288
0.0106769195249968,3011.90194183288
0.0313690885152515,3011.91194183288
0.0492598822708328,3011.92194183288
0.0638778437490498,3011.93194183288
0.0748432249023936,3011.94194183288
0.0821107751826273,3011.95194183288
0.0873755370953676,3011.96194183288
0.0913157151710038,3011.97194183288
0.0943879439371514,3011.98194183288
0.0965273069037595,3011.99194183288
0.0984322266170064,3012.00194183288
0.0993307995547087,3012.01194183288
0.100089968040692,3012.02194183288
0.100552357052313,3012.03194183288
0.10072411219232,3012.04194183288
0.100839174222891,3012.05194183288
0.100431191390198,3012.06194183288
0.0993210533890592,3012.07194183288
0.0968284657990799,3012.08194183288
0.0933382195189038,3012.09194183288
0.0887687165452907,3012.10194183288
0.0838472502509235,3012.11194183288
0.0790665414503209,3012.12194183288
0.0749158463155264,3012.13194183288
0.0720485052966928,3012.14194183288
0.0701700613800947,3012.15194183288
0.0692846209317454,3012.16194183288
0.0696008692733748,3012.17194183288
0.0712243501976639,3012.18194183288
0.0734163564392036,3012.19194183288
0.0762883225782907,3012.20194183288
0.0794155325516657,3012.21194183288
0.0817328699022955,3012.22194183288
0.0842765084107229,3012.23194183288
0.0853494790554565,3012.24194183288
0.0853480693570078,3012.25194183288
0.0849131354520554,3012.26194183288
0.0831068107269088,3012.27194183288
0.0811467454417797,3012.28194183288
0.0787194915852424,3012.29194183288
0.0751838752272749,3012.30194183288
0.0715872994337588,3012.31194183288
0.0676874823180543,3012.32194183288
0.0636756753161594,3012.33194183288
0.0594507750343267,3012.34194183288
0.0546332537407839,3012.35194183288
0.0492486910188322,3012.36194183288
0.0438737970273106,3012.37194183288
0.03785658243304,3012.38194183288
0.031800927487429,3012.39194183288
0.0257948963439898,3012.40194183288
0.0198471024253795,3012.41194183288
0.0144417238394181,3012.42194183288
0.00919321072784056,3012.43194183288
0.00395484096757257,3012.44194183288
-0.0012534270896889,3012.45194183288
-0.00665149906522785,3012.46194183288
-0.0115987119311623,3012.47194183288
-0.0164414414699294,3012.48194183288
-0.021011512624725,3012.49194183288
-0.0260277358737987,3012.50194183288
-0.0306700953605741,3012.51194183288
-0.0351341555415132,3012.52194183288
-0.0395884487148294,3012.53194183288
-0.0436000918663893,3012.54194183288
-0.0473185944543539,3012.55194183288
-0.0504485400824289,3012.56194183288
-0.0536691786938833,3012.57194183288
-0.0565025062498172,3012.58194183288
-0.0592353190990134,3012.59194183288
-0.0616203357343778,3012.60194183288
-0.064300974102896,3012.61194183288
-0.0667234765724691,3012.62194183288
-0.0693129101569706,3012.63194183288
-0.0719365325450625,3012.64194183288
-0.0746696796102672,3012.65194183288
-0.0772934908156319,3012.66194183288
-0.0798695948788658,3012.67194183288
-0.0821553432396302,3012.68194183288
-0.0850040118894607,3012.69194183288
-0.087705665032881,3012.70194183288
-0.089288356579422,3012.71194183288
-0.0882178045265713,3012.72194183288
-0.0839203999949969,3012.73194183288
-0.0743527601728863,3012.74194183288
-0.0595375542890144,3012.75194183288
-0.0389342041173112,3012.76194183288
-0.0140385381652571,3012.77194183288
0.0127571652479261,3012.78194183288
0.039858410450501,3012.79194183288
0.0656145950067592,3012.80194183288
0.0888854177193632,3012.81194183288
0.109080899351954,3012.82194183288
0.125993640924803,3012.83194183288
0.139433588012309,3012.84194183288
0.149351058547347,3012.85194183288
0.15609640734296,3012.86194183288
0.160243677403931,3012.87194183288
0.162040207397282,3012.88194183288
0.162437084941079,3012.89194183288
0.161553801954744,3012.90194183288
0.159510387123682,3012.91194183288
0.156776614976769,3012.92194183288
0.153297505395437,3012.93194183288
0.149834476446016,3012.94194183288
0.146151965976038,3012.95194183288
0.142735351298899,3012.96194183288
0.138746647019401,3012.97194183288
0.134306645941402,3012.98194183288
0.129046562225609,3012.99194183288
0.123708828836969,3013.00194183288
0.119037200820683,3013.01194183288
0.114804196714086,3013.02194183288
0.111298846610663,3013.03194183288
0.107722591760177,3013.04194183288
0.10421298352322,3013.05194183288
0.101770339670984,3013.06194183288
0.101157891698502,3013.07194183288
0.101852066470987,3013.08194183288
0.104006232068619,3013.09194183288
0.10637968204063,3013.10194183288
0.109165855022469,3013.11194183288
0.112286628571318,3013.12194183288
0.11532845634527,3013.13194183288
0.118209198403304,3013.14194183288
0.120063371494053,3013.15194183288
0.120498913570554,3013.16194183288
0.11981372476518,3013.17194183288
0.11757202792919,3013.18194183288
0.114784067111344,3013.19194183288
0.111415062926601,3013.20194183288
0.108009881848772,3013.21194183288
0.104673707225772,3013.22194183288
0.101840832025601,3013.23194183288
0.0981890051802879,3013.24194183288
0.0944689653693273,3013.25194183288
0.0908655790630776,3013.26194183288
0.0871615511888388,3013.27194183288
0.0833044275784995,3013.28194183288
0.0799729844320138,3013.29194183288
0.0758236313873726,3013.30194183288
0.0709525354998733,3013.31194183288
0.0655530220453004,3013.32194183288
0.0597404940003952,3013.33194183288
0.0536235086222676,3013.34194183288
0.0473377619183992,3013.35194183288
0.0415000908514875,3013.36194183288
0.0366126321587482,3013.37194183288
0.0328803108739474,3013.38194183288
0.0290095895851559,3013.39194183288
0.0253184218324939,3013.40194183288
0.0212402001091801,3013.41194183288
0.0167877997127925,3013.42194183288
0.0122784203010513,3013.43194183288
0.0079899330212924,3013.44194183288
0.00368401624818563,3013.45194183288
-0.000913633367794081,3013.46194183288
-0.00544989660558922,3013.47194183288
-0.00952339923813084,3013.48194183288
-0.0133497393732476,3013.49194183288
-0.0169293508713607,3013.50194183288
-0.0207865518183251,3013.51194183288
-0.0243531704426738,3013.52194183288
-0.0279246926945097,3013.53194183288
-0.0308754049522992,3013.54194183288
-0.0328954360635605,3013.55194183288
-0.0331821554467296,3013.56194183288
-0.0314759056179465,3013.57194183288
-0.0267892104022991,3013.58194183288
-0.0174643280601127,3013.59194183288
-0.00300669879651354,3013.60194183288
0.0163835730623114,3013.61194183288
0.0402542653563275,3013.62194183288
0.0676158769195775,3013.63194183288
0.0959594168319897,3013.64194183288
0.123947346579829,3013.65194183288
0.151423533247898,3013.66194183288
0.17637331385475,3013.67194183288
0.198268586872716,3013.68194183288
0.216890092091432,3013.69194183288
0.231942927940502,3013.70194183288
0.24341698157217,3013.71194183288
0.251193937918113,3013.72194183288
0.256163274240671,3013.73194183288
0.25820816223784,3013.74194183288
0.257703152899368,3013.75194183288
0.255898769992935,3013.76194183288
0.252897761338039,3013.77194183288
0.249335403453724,3013.78194183288
0.245511104396931,3013.79194183288
0.241623490476612,3013.80194183288
0.238206055908365,3013.81194183288
0.235142896528481,3013.82194183288
0.232513246376871,3013.83194183288
0.229717660766324,3013.84194183288
0.226589158061989,3013.85194183288
0.222632313258003,3013.86194183288
0.217661788074601,3013.87194183288
0.211944677137398,3013.88194183288
0.206376726530173,3013.89194183288
0.201004052178143,3013.90194183288
0.196044940611496,3013.91194183288
0.191310420955774,3013.92194183288
0.186569786946949,3013.93194183288
0.182875097998084,3013.94194183288
0.179302159832337,3013.95194183288
0.176582437682647,3013.96194183288
0.173961256444953,3013.97194183288
0.171881701631075,3013.98194183288
0.170328921919842,3013.99194183288
0.168893179114567,3014.00194183288
0.167739630535329,3014.01194183288
0.166967821255833,3014.02194183288
0.166145560040015,3014.03194183288
0.164470158971429,3014.04194183288
0.162922354051067,3014.05194183288
0.160181652739207,3014.06194183288
0.15625577455766,3014.07194183288
0.151623535269443,3014.08194183288
0.146450638175215,3014.09194183288
0.14095983583264,3014.10194183288
0.135790749624803,3014.11194183288
0.130268667900434,3014.12194183288
0.125185610560997,3014.13194183288
0.120503984494773,3014.14194183288
0.116157253210896,3014.15194183288
0.112218065635041,3014.16194183288
0.108821518036745,3014.17194183288
0.105678418539196,3014.18194183288
0.102647619221476,3014.19194183288
0.0987837234414514,3014.20194183288
0.0949737269110249,3014.21194183288
0.0907957763176108,3014.22194183288
0.0863978249662127,3014.23194183288
0.0824487730286539,3014.24194183288
0.0784549393649941,3014.25194183288
0.0738907496446872,3014.26194183288
0.069867771009731,3014.27194183288
0.065854863415154,3014.28194183288
0.0627861123931788,3014.29194183288
0.0599626387283488,3014.30194183288
0.0571120402808409,3014.31194183288
0.054558049429344,3014.32194183288
0.0515682666796818,3014.33194183288
0.0485729353772406,3014.34194183288
0.0450293508093349,3014.35194183288
0.0416150513806466,3014.36194183288
0.0378125748687621,3014.37194183288
0.0341643729450566,3014.38194183288
0.0301237957094666,3014.39194183288
0.0266551791433578,3014.40194183288
0.0232292230573057,3014.41194183288
0.0198367526930148,3014.42194183288
0.0174291402757086,3014.43194183288
0.0146116005375309,3014.44194183288
0.0123342041226931,3014.45194183288
0.0109813082597411,3014.46194183288
0.0115323115600212,3014.47194183288
0.0161746803711316,3014.48194183288
0.0261293309659585,3014.49194183288
0.0422820976910636,3014.50194183288
0.0645631004768136,3014.51194183288
0.0915874232654325,3014.52194183288
0.12311406044177,3014.53194183288
0.156736569348334,3014.54194183288
0.190326182442602,3014.55194183288
0.22203212380118,3014.56194183288
0.251177864826224,3014.57194183288
0.27597648578661,3014.58194183288
0.296741753445714,3014.59194183288
0.3128627913199,3014.60194183288
0.324422081213076,3014.61194183288
0.332212217008953,3014.62194183288
0.3364162337631,3014.63194183288
0.338315287601424,3014.64194183288
0.338570505765247,3014.65194183288
0.337457654997059,3014.66194183288
0.334958285614126,3014.67194183288
0.332002036101902,3014.68194183288
0.328990635198,3014.69194183288
0.325271938947421,3014.70194183288
0.321256064809824,3014.71194183288
0.317960127265479,3014.72194183288
0.314616957021841,3014.73194183288
0.311694716564136,3014.74194183288
0.309446490936874,3014.75194183288
0.306410734088258,3014.76194183288
0.303506975318802,3014.77194183288
0.300049488816782,3014.78194183288
0.296077451903052,3014.79194183288
0.292464818484093,3014.80194183288
0.288719834021907,3014.81194183288
0.285702494305329,3014.82194183288
0.2838707782559,3014.83194183288
0.2829978895153,3014.84194183288
0.282286428490299,3014.85194183288
0.282554984616672,3014.86194183288
0.283706382344819,3014.87194183288
0.284939930872565,3014.88194183288
0.286660669755176,3014.89194183288
0.288089241646006,3014.90194183288
0.289566224503491,3014.91194183288
0.289831216522892,3014.92194183288
0.288199047029086,3014.93194183288
0.285868585033791,3014.94194183288
0.283429913286933,3014.95194183288
0.281118503306643,3014.96194183288
0.278429592247263,3014.97194183288
0.275172114583026,3014.98194183288
0.271625474881523,3014.99194183288
0.267664281639373,3015.00194183288
0.263858116099856,3015.01194183288
0.26054524773495,3015.02194183288
0.257306929506752,3015.03194183288
0.253938896216828,3015.04194183288
0.250052643913958,3015.05194183288
0.245115328590956,3015.06194183288
0.239515432627843,3015.07194183288
0.233455321887272,3015.08194183288
0.22694228605687,3015.09194183288
0.219828517951653,3015.10194183288
0.212354463210408,3015.11194183288
0.204420141106353,3015.12194183288
0.196805232773242,3015.13194183288
0.189281868044974,3015.14194183288
0.181775987327178,3015.15194183288
0.174312382438423,3015.16194183288
0.166085712661204,3015.17194183288
0.15810964684727,3015.18194183288
0.149708876076027,3015.19194183288
0.141227440104397,3015.20194183288
0.133332953079368,3015.21194183288
0.125982422310185,3015.22194183288
0.118882125063393,3015.23194183288
0.112295597290702,3015.24194183288
0.105981898500806,3015.25194183288
0.0997540838948671,3015.26194183288
0.0938269756978001,3015.27194183288
0.0885057297999667,3015.28194183288
0.0840611778126855,3015.29194183288
0.0790702631707816,3015.30194183288
0.0741697916276185,3015.31194183288
0.0690695118527842,3015.32194183288
0.0637644304199734,3015.33194183288
0.0586828841488872,3015.34194183288
0.0550314295157876,3015.35194183288
0.0531419478458507,3015.36194183288
0.0546101222206715,3015.37194183288
0.0624694830586095,3015.38194183288
0.0778906108202892,3015.39194183288
0.101468936389353,3015.40194183288
0.131385987943646,3015.41194183288
0.165917429080106,3015.42194183288
0.202363765572655,3015.43194183288
0.238571664780397,3015.44194183288
0.272600703741362,3015.45194183288
0.30194790112373,3015.46194183288
0.326596162390165,3015.47194183288
0.345733427476423,3015.48194183288
0.359100520821138,3015.49194183288
0.36852167897161,3015.50194183288
0.374683277960087,3015.51194183288
0.379190869240333,3015.52194183288
0.383437858274941,3015.53194183288
0.387409805440176,3015.54194183288
0.391112277221142,3015.55194183288
0.393818666530107,3015.56194183288
0.395449185886606,3015.57194183288
0.395234392740884,3015.58194183288
0.393260642929011,3015.59194183288
0.388912548928035,3015.60194183288
0.381993818667033,3015.61194183288
0.372533925883488,3015.62194183288
0.360743487476434,3015.63194183288
0.347269721241733,3015.64194183288
0.332939647543922,3015.65194183288
0.31736660525933,3015.66194183288
0.301343014979215,3015.67194183288
0.284671839561968,3015.68194183288
0.267885818865496,3015.69194183288
0.251486074548781,3015.70194183288
0.235674061059133,3015.71194183288
0.221337771518188,3015.72194183288
0.207974436268414,3015.73194183288
0.195535427543719,3015.74194183288
0.183970252465371,3015.75194183288
0.172547976213069,3015.76194183288
0.161797159343258,3015.77194183288
0.151527212162337,3015.78194183288
0.142484668532204,3015.79194183288
0.135485411630178,3015.80194183288
0.130120694445175,3015.81194183288
0.127105730380416,3015.82194183288
0.125389571793959,3015.83194183288
0.124936028477902,3015.84194183288
0.125629788915683,3015.85194183288
0.126814559451391,3015.86194183288
0.128387878204917,3015.87194183288
0.129460989306378,3015.88194183288
0.130169325570933,3015.89194183288
0.130078446983543,3015.90194183288
0.129265385991686,3015.91194183288
0.127510770711068,3015.92194183288
0.124835156646227,3015.93194183288
0.121610322014613,3015.94194183288
0.117852853153507,3015.95194183288
0.114012322575341,3015.96194183288
0.109990860342722,3015.97194183288
0.106487575752105,3015.98194183288
0.103330616945685,3015.99194183288
0.100411556217583,3016.00194183288
0.0977932185880029,3016.01194183288
0.0956386660414489,3016.02194183288
0.0939944716316974,3016.03194183288
0.0919514793076044,3016.04194183288
0.0901406038603188,3016.05194183288
0.0883049582469024,3016.06194183288
0.0868551459390515,3016.07194183288
0.0847712876682366,3016.08194183288
0.0831944026648964,3016.09194183288
0.0814420294943353,3016.10194183288
0.079919967774659,3016.11194183288
0.0790436364702417,3016.12194183288
0.0774317323481384,3016.13194183288
0.0746186244192704,3016.14194183288
0.0713091411952331,3016.15194183288
0.0681052595682263,3016.16194183288
0.0655012123108036,3016.17194183288
0.0633631092227736,3016.18194183288
0.0622069049035822,3016.19194183288
0.0615748647341502,3016.20194183288
0.0617545177376305,3016.21194183288
0.0633581025472275,3016.22194183288
0.0673893167413401,3016.23194183288
0.0758246692287283,3016.24194183288
0.0896874255105483,3016.25194183288
0.110592803688559,3016.26194183288
0.138656383751547,3016.27194183288
0.172340074074571,3016.28194183288
0.209894644852075,3016.29194183288
0.249671019894495,3016.30194183288
0.290282264565991,3016.31194183288
0.327952418728154,3016.32194183288
0.362095297433003,3016.33194183288
0.391612643998435,3016.34194183288
0.416089668222156,3016.35194183288
0.435274563452185,3016.36194183288
0.449704264196813,3016.37194183288
0.459354419174707,3016.38194183288
0.465716834103136,3016.39194183288
0.46930600247123,3016.40194183288
0.470602566721557,3016.41194183288
0.470136664638221,3016.42194183288
0.468168873251307,3016.43194183288
0.465465901598921,3016.44194183288
0.462567329808079,3016.45194183288
0.460170855573085,3016.46194183288
0.458224571109579,3016.47194183288
0.456413483297838,3016.48194183288
0.455439395550244,3016.49194183288
0.454190269869164,3016.50194183288
0.45246776047417,3016.51194183288
0.44998872639595,3016.52194183288
0.446147429689983,3016.53194183288
0.441193321208497,3016.54194183288
0.434954663397304,3016.55194183288
0.429393300043473,3016.56194183288
0.423699899503637,3016.57194183288
0.418555871791492,3016.58194183288
0.414537899727545,3016.59194183288
0.412304566702379,3016.60194183288
0.4121360468363,3016.61194183288
0.413066000830874,3016.62194183288
0.415595152742089,3016.63194183288
0.418821382980587,3016.64194183288
0.422496250610943,3016.65194183288
0.425967197570288,3016.66194183288
0.428523127854616,3016.67194183288
0.430132351198015,3016.68194183288
0.430881502282822,3016.69194183288
0.430273596879134,3016.70194183288
0.427937629321259,3016.71194183288
0.42464961855923,3016.72194183288
0.42002024586681,3016.73194183288
0.414363265736908,3016.74194183288
0.407994107184455,3016.75194183288
0.401096181586055,3016.76194183288
0.393203041996781,3016.77194183288
0.385548651363623,3016.78194183288
0.378232910158462,3016.79194183288
0.370918700452739,3016.80194183288
0.363427083853729,3016.81194183288
0.355575606927212,3016.82194183288
0.347293717711657,3016.83194183288
0.339541170971829,3016.84194183288
0.33211021402323,3016.85194183288
0.324687250541145,3016.86194183288
0.317469630043178,3016.87194183288
0.309820432778639,3016.88194183288
0.301854735400401,3016.89194183288
0.294500732896665,3016.90194183288
0.287584568152957,3016.91194183288
0.280946103288436,3016.92194183288
0.274729840407595,3016.93194183288
0.269117969548386,3016.94194183288
0.263457492995319,3016.95194183288
0.257453458584498,3016.96194183288
0.251132714693039,3016.97194183288
0.244749776483181,3016.98194183288
0.238723054261918,3016.99194183288
0.232802830365427,3017.00194183288
0.22755537973166,3017.01194183288
0.222450827511231,3017.02194183288
0.217334994134252,3017.03194183288
0.211716205411687,3017.04194183288
0.204707981935821,3017.05194183288
0.196828071003243,3017.06194183288
0.18832605823895,3017.07194183288
0.180697587238026,3017.08194183288
0.175135859216839,3017.09194183288
0.172752862590562,3017.10194183288
0.174431902843083,3017.11194183288
0.181034093587653,3017.12194183288
0.194462375030694,3017.13194183288
0.215537264013148,3017.14194183288
0.243993482616301,3017.15194183288
0.278289811308684,3017.16194183288
0.317473192873106,3017.17194183288
0.358529883340443,3017.18194183288
0.398471701758446,3017.19194183288
0.436496947404554,3017.20194183288
0.470179606538424,3017.21194183288
0.499123341542574,3017.22194183288
0.522665155642599,3017.23194183288
0.540212521334547,3017.24194183288
0.552282411989877,3017.25194183288
0.559055802763914,3017.26194183288
0.562352441261968,3017.27194183288
0.56255879330278,3017.28194183288
0.560897827264422,3017.29194183288
0.558334136041726,3017.30194183288
0.554450791092598,3017.31194183288
0.549901894932657,3017.32194183288
0.544612649248177,3017.33194183288
0.539376878192654,3017.34194183288
0.533971635894424,3017.35194183288
0.52867728560824,3017.36194183288
0.523598552549119,3017.37194183288
0.518752249890326,3017.38194183288
0.514421412983453,3017.39194183288
0.509665091770009,3017.40194183288
0.504091172476045,3017.41194183288
0.498452028243545,3017.42194183288
0.49236992973908,3017.43194183288
0.486418541773009,3017.44194183288
0.480956989066899,3017.45194183288
0.476323929210073,3017.46194183288
0.473082674470809,3017.47194183288
0.471222176239852,3017.48194183288
0.470543763137992,3017.49194183288
0.471431254519869,3017.50194183288
0.473318888664782,3017.51194183288
0.475555312562752,3017.52194183288
0.476755632390618,3017.53194183288
0.476863788466403,3017.54194183288
0.476056849127183,3017.55194183288
0.475219157208229,3017.56194183288
0.474338518104748,3017.57194183288
0.472356902575047,3017.58194183288
0.470253426691375,3017.59194183288
0.466821531899719,3017.60194183288
0.462640738012062,3017.61194183288
0.457074543587524,3017.62194183288
0.450356165872045,3017.63194183288
0.441936183001743,3017.64194183288
0.432036803530278,3017.65194183288
0.421757984378567,3017.66194183288
0.411865878363561,3017.67194183288
0.401794418324175,3017.68194183288
0.39203564850599,3017.69194183288
0.381853156971412,3017.70194183288
0.372095678385846,3017.71194183288
0.362603666013018,3017.72194183288
0.353115569171502,3017.73194183288
0.34340174804043,3017.74194183288
0.333772599610662,3017.75194183288
0.324272773088308,3017.76194183288
0.314942909477011,3017.77194183288
0.306178793503422,3017.78194183288
0.297489300011119,3017.79194183288
0.289228552278579,3017.80194183288
0.28150171991888,3017.81194183288
0.273837994311118,3017.82194183288
0.266060820983384,3017.83194183288
0.258757817349164,3017.84194183288
0.251822636065849,3017.85194183288
0.245145061886323,3017.86194183288
0.238489243923931,3017.87194183288
0.23159659069906,3017.88194183288
0.224930522650177,3017.89194183288
0.217823306314,3017.90194183288
0.21091573183204,3017.91194183288
0.203848916678712,3017.92194183288
0.196616261324138,3017.93194183288
0.19008224229782,3017.94194183288
0.182646155169064,3017.95194183288
0.17550643802549,3017.96194183288
0.168231334483342,3017.97194183288
0.161500169106147,3017.98194183288
0.158384391498391,3017.99194183288
0.161857882556953,3018.00194183288
0.173823247891896,3018.01194183288
0.194661256398551,3018.02194183288
0.224104229222121,3018.03194183288
0.260089858723687,3018.04194183288
0.30006172940382,3018.05194183288
0.341588625331042,3018.06194183288
0.381782991401111,3018.07194183288
0.41843792294527,3018.08194183288
0.450623392683435,3018.09194183288
0.476507813390371,3018.10194183288
0.495887538975323,3018.11194183288
0.508929674633462,3018.12194183288
0.516277366293251,3018.13194183288
0.519431335998716,3018.14194183288
0.519582850231977,3018.15194183288
0.517543918197004,3018.16194183288
0.513753652647486,3018.17194183288
0.508205894917989,3018.18194183288
0.501626601121755,3018.19194183288
0.493870043351914,3018.20194183288
0.485557271789475,3018.21194183288
0.476995098152552,3018.22194183288
0.468371168497197,3018.23194183288
0.460097927962816,3018.24194183288
0.452213153605098,3018.25194183288
0.444002986670591,3018.26194183288
0.435252564515396,3018.27194183288
0.42587123485483,3018.28194183288
0.415743747271763,3018.29194183288
0.405549102749371,3018.30194183288
0.39587964952317,3018.31194183288
0.387502399610518,3018.32194183288
0.381145719405702,3018.33194183288
0.377308160045191,3018.34194183288
0.375154044746875,3018.35194183288
0.374862356337494,3018.36194183288
0.376248495015045,3018.37194183288
0.377925415027157,3018.38194183288
0.379912142376761,3018.39194183288
0.381422609633388,3018.40194183288
0.383082017241116,3018.41194183288
0.384781084299293,3018.42194183288
0.385993711407766,3018.43194183288
0.385857418668353,3018.44194183288
0.384601144193827,3018.45194183288
0.381963974181303,3018.46194183288
0.378277926948976,3018.47194183288
0.374181809265684,3018.48194183288
0.369310139481502,3018.49194183288
0.363580265766137,3018.50194183288
0.357226422400513,3018.51194183288
0.3498330998017,3018.52194183288
0.341095969270311,3018.53194183288
0.332017454194385,3018.54194183288
0.322218565537931,3018.55194183288
0.311720188807865,3018.56194183288
0.300878383325468,3018.57194183288
0.290933247828315,3018.58194183288
0.280773084293074,3018.59194183288
0.271369760266988,3018.60194183288
0.262227326444077,3018.61194183288
0.252945891090361,3018.62194183288
0.244341001886489,3018.63194183288
0.23556726405193,3018.64194183288
0.226867395025214,3018.65194183288
0.218005938189195,3018.66194183288
0.209962529350536,3018.67194183288
0.202283259292452,3018.68194183288
0.195523404185634,3018.69194183288
0.1890870065051,3018.70194183288
0.183039253729756,3018.71194183288
0.176960414142984,3018.72194183288
0.170708049396735,3018.73194183288
0.163348188037923,3018.74194183288
0.155018883279078,3018.75194183288
0.147435556345599,3018.76194183288
0.14033949938296,3018.77194183288
0.134024287531263,3018.78194183288
0.129105405428412,3018.79194183288
0.125773011094799,3018.80194183288
0.125772578061229,3018.81194183288
0.130427425387998,3018.82194183288
0.142087367758533,3018.83194183288
0.160699880831863,3018.84194183288
0.186554684817234,3018.85194183288
0.218263085314444,3018.86194183288
0.253845730128012,3018.87194183288
0.291077761297197,3018.88194183288
0.32719860834766,3018.89194183288
0.360686291201117,3018.90194183288
0.390196123866021,3018.91194183288
0.414424665628101,3018.92194183288
0.433052169211521,3018.93194183288
0.44613207299145,3018.94194183288
0.454404205170657,3018.95194183288
0.457520079084569,3018.96194183288
0.457131534847084,3018.97194183288
0.454236373688181,3018.98194183288
0.448906034365724,3018.99194183288
0.442545241838228,3019.00194183288
0.434961157916062,3019.01194183288
0.426400501845897,3019.02194183288
0.417196698481021,3019.03194183288
0.408052136607641,3019.04194183288
0.398796193827867,3019.05194183288
0.390646453328355,3019.06194183288
0.382831147085603,3019.07194183288
0.375019696722256,3019.08194183288
0.365935482229983,3019.09194183288
0.355851429861708,3019.10194183288
0.345244488040418,3019.11194183288
0.335057516901419,3019.12194183288
0.325529596663561,3019.13194183288
0.317695565562092,3019.14194183288
0.311537150540864,3019.15194183288
0.307359176330358,3019.16194183288
0.305412193198042,3019.17194183288
0.30519696340267,3019.18194183288
0.306528603173276,3019.19194183288
0.308542290788114,3019.20194183288
0.31080449483055,3019.21194183288
0.313704718678577,3019.22194183288
0.315690750183104,3019.23194183288
0.316690497221241,3019.24194183288
0.316708328613489,3019.25194183288
0.315221618657265,3019.26194183288
0.312450066147483,3019.27194183288
0.308569958493316,3019.28194183288
0.303371932567695,3019.29194183288
0.297441176214859,3019.30194183288
0.290754657318256,3019.31194183288
0.28318695424848,3019.32194183288
0.27473338422418,3019.33194183288
0.265850398691149,3019.34194183288
0.256667697774614,3019.35194183288
0.24701733932468,3019.36194183288
0.23786635490265,3019.37194183288
0.228859096764813,3019.38194183288
0.220391439229565,3019.39194183288
0.212000498984647,3019.40194183288
0.203891615422475,3019.41194183288
0.195485398499852,3019.42194183288
0.186949622813313,3019.43194183288
0.178866861105081,3019.44194183288
0.170287367779353,3019.45194183288
0.162292392012853,3019.46194183288
0.154180127359615,3019.47194183288
0.146422972347367,3019.48194183288
0.138639861574011,3019.49194183288
0.130644803871038,3019.50194183288
0.122804141550585,3019.51194183288
0.114998797187886,3019.52194183288
0.107677371257298,3019.53194183288
0.1004322258485,3019.54194183288
0.0928101213427226,3019.55194183288
0.0856513471578416,3019.56194183288
0.0789429276411378,3019.57194183288
0.0738370019671911,3019.58194183288
0.0718868224224739,3019.59194183288
0.075584887291224,3019.60194183288
0.0861718772025982,3019.61194183288
0.104421908979605,3019.62194183288
0.130560218206515,3019.63194183288
0.163834563896013,3019.64194183288
0.2021004742186,3019.65194183288
0.242793194431271,3019.66194183288
0.283171681666324,3019.67194183288
0.321821916297726,3019.68194183288
0.355626539860044,3019.69194183288
0.384215398095655,3019.70194183288
0.406316802549521,3019.71194183288
0.422409229766079,3019.72194183288
0.433296608777449,3019.73194183288
0.439809626435765,3019.74194183288
0.442883310585433,3019.75194183288
0.442920073360808,3019.76194183288
0.440484208267432,3019.77194183288
0.436270753333345,3019.78194183288
0.430766679693135,3019.79194183288
0.424610672306517,3019.80194183288
0.417927202276888,3019.81194183288
0.411470268569204,3019.82194183288
0.405098842257442,3019.83194183288
0.398411691839499,3019.84194183288
0.390940359449498,3019.85194183288
0.382706480524395,3019.86194183288
0.374657779161263,3019.87194183288
0.365670964175348,3019.88194183288
0.357398042123453,3019.89194183288
0.348681604224254,3019.90194183288
0.340204321322688,3019.91194183288
0.332403665802348,3019.92194183288
0.326270441340029,3019.93194183288
0.3210693734304,3019.94194183288
0.317550197631163,3019.95194183288
0.315351597376323,3019.96194183288
0.314386417407581,3019.97194183288
0.314536692478201,3019.98194183288
0.315011661083546,3019.99194183288
0.31565585816888,3020.00194183288
0.316130340897666,3020.01194183288
0.316498083439185,3020.02194183288
0.316358776210071,3020.03194183288
0.31570884890689,3020.04194183288
0.314542594124135,3020.05194183288
0.312735691313476,3020.06194183288
0.309604008418556,3020.07194183288
0.30564167667873,3020.08194183288
0.300356725677563,3020.09194183288
0.294081792425155,3020.10194183288
0.2865762757673,3020.11194183288
0.278950520525742,3020.12194183288
0.270418537703659,3020.13194183288
0.262164273064865,3020.14194183288
0.253216893678287,3020.15194183288
0.24364331639847,3020.16194183288
0.233002311041094,3020.17194183288
0.222587562485954,3020.18194183288
0.212843950561966,3020.19194183288
0.204443165737988,3020.20194183288
0.196395114148707,3020.21194183288
0.18831408658038,3020.22194183288
0.180661613248234,3020.23194183288
0.17283272122351,3020.24194183288
0.164905193313815,3020.25194183288
0.156535488576782,3020.26194183288
0.147984621330923,3020.27194183288
0.139669663568277,3020.28194183288
0.131779213580424,3020.29194183288
0.124873313877166,3020.30194183288
0.119740980600699,3020.31194183288
0.118338886766112,3020.32194183288
0.122494123346386,3020.33194183288
0.13396069788956,3020.34194183288
0.153891162188127,3020.35194183288
0.181022052865284,3020.36194183288
0.214215832069456,3020.37194183288
0.251243018640739,3020.38194183288
0.290172266076499,3020.39194183288
0.328232604103411,3020.40194183288
0.363504909848685,3020.41194183288
0.394284733347405,3020.42194183288
0.419580534127061,3020.43194183288
0.438619255368499,3020.44194183288
0.451958128208513,3020.45194183288
0.460341000798284,3020.46194183288
0.464322153915661,3020.47194183288
0.465462281043026,3020.48194183288
0.464724153036577,3020.49194183288
0.461856879282874,3020.50194183288
0.457415353380124,3020.51194183288
0.45207186154833,3020.52194183288
0.445892970106681,3020.53194183288
0.439303721232164,3020.54194183288
0.432084304210468,3020.55194183288
0.424967145923,3020.56194183288
0.417446538225029,3020.57194183288
0.409763476704041,3020.58194183288
0.401569451728177,3020.59194183288
0.393009000115846,3020.60194183288
0.383745881230159,3020.61194183288
0.373576074028454,3020.62194183288
0.36368517363916,3020.63194183288
0.35433417581399,3020.64194183288
0.34581909103288,3020.65194183288
0.339339094616016,3020.66194183288
0.334412956658834,3020.67194183288
0.331256031581579,3020.68194183288
0.32997547202503,3020.69194183288
0.329268991257725,3020.70194183288
0.329284460854032,3020.71194183288
0.329715082209014,3020.72194183288
0.330236630929572,3020.73194183288
0.329927298022563,3020.74194183288
0.329889774103841,3020.75194183288
0.328607459258094,3020.76194183288
0.326317757634276,3020.77194183288
0.322939913981955,3020.78194183288
0.318846135414187,3020.79194183288
0.313417242538417,3020.80194183288
0.307343498927291,3020.81194183288
0.299926593916359,3020.82194183288
0.291985841891817,3020.83194183288
0.282863522445511,3020.84194183288
0.273827823707687,3020.85194183288
0.265150487902766,3020.86194183288
0.256587704629644,3020.87194183288
0.248019316655887,3020.88194183288
0.239394974910822,3020.89194183288
0.229557701338431,3020.90194183288
0.21965348179927,3020.91194183288
0.209350822901675,3020.92194183288
0.199375719227214,3020.93194183288
0.189790991785025,3020.94194183288
0.180655697639397,3020.95194183288
0.172413841272599,3020.96194183288
0.164842420864387,3020.97194183288
0.157171269857929,3020.98194183288
0.149289717905682,3020.99194183288
0.140662016557538,3021.00194183288
0.131921320276196,3021.01194183288
0.123814369826537,3021.02194183288
0.117728481889363,3021.03194183288
0.116132912996786,3021.04194183288
0.12103282265369,3021.05194183288
0.134001935269053,3021.06194183288
0.155658003212106,3021.07194183288
0.184738749955677,3021.08194183288
0.21985495637894,3021.09194183288
0.258172653228388,3021.10194183288
0.297559508053888,3021.11194183288
0.336602042820837,3021.12194183288
0.372564599493045,3021.13194183288
0.403963477258086,3021.14194183288
0.428959941632116,3021.15194183288
0.447961182892148,3021.16194183288
0.460882639187191,3021.17194183288
0.468088478390539,3021.18194183288
0.470472520849023,3021.19194183288
0.468664504519979,3021.20194183288
0.463689529093344,3021.21194183288
0.45683765102021,3021.22194183288
0.448510516279981,3021.23194183288
0.439800056941401,3021.24194183288
0.430982578550377,3021.25194183288
0.421969487158478,3021.26194183288
0.413085095618869,3021.27194183288
0.404523459806903,3021.28194183288
0.397478972199781,3021.29194183288
0.389498915307629,3021.30194183288
0.380530173987985,3021.31194183288
0.370655551639312,3021.32194183288
0.359751391583355,3021.33194183288
0.348674489716831,3021.34194183288
0.337273844631229,3021.35194183288
0.326371096742679,3021.36194183288
0.31724601553536,3021.37194183288
0.309205782368033,3021.38194183288
0.303410373706758,3021.39194183288
0.299444537794489,3021.40194183288
0.297054841662621,3021.41194183288
0.295761281339822,3021.42194183288
0.295169829243118,3021.43194183288
0.294912090373815,3021.44194183288
0.294695147606759,3021.45194183288
0.293914935068039,3021.46194183288
0.292412801166685,3021.47194183288
0.290234482075115,3021.48194183288
0.287320615075786,3021.49194183288
0.28288356277937,3021.50194183288
0.277148510962445,3021.51194183288
0.270401092062558,3021.52194183288
0.261656605639902,3021.53194183288
0.252128065395727,3021.54194183288
0.24241498315213,3021.55194183288
0.232911466869745,3021.56194183288
0.223240185147427,3021.57194183288
0.213710694176747,3021.58194183288
0.203901439942906,3021.59194183288
0.193864483455656,3021.60194183288
0.183556985663844,3021.61194183288
0.172746467045108,3021.62194183288
0.16210069016866,3021.63194183288
0.151804413508004,3021.64194183288
0.141340066868236,3021.65194183288
0.130936364234811,3021.66194183288
0.121176374275343,3021.67194183288
0.112279594632338,3021.68194183288
0.103810248006953,3021.69194183288
0.0953015795822777,3021.70194183288
0.086794763233534,3021.71194183288
0.078829695374886,3021.72194183288
0.070479500948006,3021.73194183288
0.0619006427045504,3021.74194183288
0.0531020823902819,3021.75194183288
0.0440531705797575,3021.76194183288
0.0350318947448625,3021.77194183288
0.0278751839920924,3021.78194183288
0.0233209064897058,3021.79194183288
0.0244596717759731,3021.80194183288
0.0334228429296533,3021.81194183288
0.0511907469262535,3021.82194183288
0.0774411596070328,3021.83194183288
0.11033532674409,3021.84194183288
0.148736574199335,3021.85194183288
0.189976190283327,3021.86194183288
0.2316900743376,3021.87194183288
0.270900780592479,3021.88194183288
0.305482736792065,3021.89194183288
0.333858650985404,3021.90194183288
0.35550478880818,3021.91194183288
0.370338712875186,3021.92194183288
0.379346484654588,3021.93194183288
0.383167649777178,3021.94194183288
0.382620578872156,3021.95194183288
0.379111301976975,3021.96194183288
0.373227719513227,3021.97194183288
0.366337521448698,3021.98194183288
0.358946672418686,3021.99194183288
0.350256577580017,3022.00194183288
0.340734118801402,3022.01194183288
0.330952558793328,3022.02194183288
0.321255073469218,3022.03194183288
0.31157382186177,3022.04194183288
0.302272364403516,3022.05194183288
0.292421420774612,3022.06194183288
0.282090416156756,3022.07194183288
0.271462245407545,3022.08194183288
0.260259423781359,3022.09194183288
0.249194637097867,3022.10194183288
0.238682901145578,3022.11194183288
0.229477927519159,3022.12194183288
0.22219068417061,3022.13194183288
0.217187950295834,3022.14194183288
0.214103652629223,3022.15194183288
0.213084685760706,3022.16194183288
0.213560975150756,3022.17194183288
0.215294920637169,3022.18194183288
0.217064582718998,3022.19194183288
0.219682496742741,3022.20194183288
0.221722092559539,3022.21194183288
0.222973568315122,3022.22194183288
0.223113569667445,3022.23194183288
0.221750859188296,3022.24194183288
0.219087625228093,3022.25194183288
0.215693317687787,3022.26194183288
0.210740685836088,3022.27194183288
0.204663315397658,3022.28194183288
0.197542472746945,3022.29194183288
0.189905215571089,3022.30194183288
0.18100307456387,3022.31194183288
0.171442553330304,3022.32194183288
0.161633763722569,3022.33194183288
0.151983690014748,3022.34194183288
0.143273434765849,3022.35194183288
0.134938625173444,3022.36194183288
0.126751719302134,3022.37194183288
0.118100632261568,3022.38194183288
0.108474950133104,3022.39194183288
0.0993012860851492,3022.40194183288
0.0897495141421441,3022.41194183288
0.0804855435711702,3022.42194183288
0.0708515808465254,3022.43194183288
0.0614023920636011,3022.44194183288
0.0527006418127836,3022.45194183288
0.0447961795761138,3022.46194183288
0.0373684739639846,3022.47194183288
0.0306119980537836,3022.48194183288
0.0244860268728052,3022.49194183288
0.0178182991334665,3022.50194183288
0.0109043709997595,3022.51194183288
0.0038227354904544,3022.52194183288
-0.00260874742441464,3022.53194183288
-0.00779778455529844,3022.54194183288
-0.00913778320702438,3022.55194183288
-0.00442789363748375,3022.56194183288
0.00786002989342132,3022.57194183288
0.0290599448634965,3022.58194183288
0.0586299975559844,3022.59194183288
0.0947599946500327,3022.60194183288
0.135780853308978,3022.61194183288
0.179006027015265,3022.62194183288
0.221896656147895,3022.63194183288
0.261179058732693,3022.64194183288
0.295827713220015,3022.65194183288
0.324233319793287,3022.66194183288
0.345216933934882,3022.67194183288
0.358999789832957,3022.68194183288
0.366658080020079,3022.69194183288
0.369290271434312,3022.70194183288
0.367780763888155,3022.71194183288
0.364229836842745,3022.72194183288
0.359037021204548,3022.73194183288
0.352306463792845,3022.74194183288
0.343965875448465,3022.75194183288
0.335390334723576,3022.76194183288
0.32676190143242,3022.77194183288
0.318550691181477,3022.78194183288
0.310184288184715,3022.79194183288
0.301696694838939,3022.80194183288
0.293038456815008,3022.81194183288
0.283561519124501,3022.82194183288
0.273267439407516,3022.83194183288
0.2627359878736,3022.84194183288
0.251952587723849,3022.85194183288
0.241656219324921,3022.86194183288
0.233052374351429,3022.87194183288
0.225783034554651,3022.88194183288
0.220691801368004,3022.89194183288
0.217523314512984,3022.90194183288
0.215735436404078,3022.91194183288
0.216238584294402,3022.92194183288
0.217897022156408,3022.93194183288
0.220180652258859,3022.94194183288
0.223064811117972,3022.95194183288
0.225994891553051,3022.96194183288
0.228590941834484,3022.97194183288
0.230368281761846,3022.98194183288
0.23100467694584,3022.99194183288
0.229845094102878,3023.00194183288
0.227348397653852,3023.01194183288
0.223870451966306,3023.02194183288
0.219638800486807,3023.03194183288
0.215003747530852,3023.04194183288
0.208975854771912,3023.05194183288
0.202712701920424,3023.06194183288
0.19548795928859,3023.07194183288
0.187487060215441,3023.08194183288
0.178884371324556,3023.09194183288
0.16962065516565,3023.10194183288
0.160385428486179,3023.11194183288
0.151228429306132,3023.12194183288
0.142272880559142,3023.13194183288
0.133289799570327,3023.14194183288
0.124978171061102,3023.15194183288
0.116353394123779,3023.16194183288
0.108095338828116,3023.17194183288
0.100005590146734,3023.18194183288
0.092273889874412,3023.19194183288
0.0845287928196352,3023.20194183288
0.0767628549953686,3023.21194183288
0.0691878711410918,3023.22194183288
0.061300264568875,3023.23194183288
0.0536806714118133,3023.24194183288
0.045814462799725,3023.25194183288
0.0380164088942415,3023.26194183288
0.0302446273813506,3023.27194183288
0.0223358419316116,3023.28194183288
0.0148374310457023,3023.29194183288
0.00821897339212139,3023.30194183288
0.00281476987011763,3023.31194183288
-0.000229295922711873,3023.32194183288
0.00131266389090056,3023.33194183288
0.00980649560729218,3023.34194183288
0.0271019355226636,3023.35194183288
0.0532511288571143,3023.36194183288
0.0879631145433723,3023.37194183288
0.129244467589353,3023.38194183288
0.175500265793364,3023.39194183288
0.223186748865607,3023.40194183288
0.269661136937913,3023.41194183288
0.312286575717765,3023.42194183288
0.348790648456567,3023.43194183288
0.377693827574068,3023.44194183288
0.398999017628743,3023.45194183288
0.412365524334921,3023.46194183288
0.420502658444925,3023.47194183288
0.422965346395487,3023.48194183288
0.421978722326243,3023.49194183288
0.418377114796885,3023.50194183288
0.41287566298677,3023.51194183288
0.406882437472676,3023.52194183288
0.400350277056037,3023.53194183288
0.39342393914702,3023.54194183288
0.386207052909027,3023.55194183288
0.378579001436057,3023.56194183288
0.370400409301846,3023.57194183288
0.362585272638807,3023.58194183288
0.355077157028711,3023.59194183288
0.346799007996684,3023.60194183288
0.338097360993131,3023.61194183288
0.329332255786284,3023.62194183288
0.319667178416165,3023.63194183288
0.310322972379224,3023.64194183288
0.301580535678361,3023.65194183288
0.293499207778028,3023.66194183288
0.287453520958295,3023.67194183288
0.283193692327414,3023.68194183288
0.280314962136557,3023.69194183288
0.279093144512884,3023.70194183288
0.278934673795691,3023.71194183288
0.279557238156745,3023.72194183288
0.280319408047789,3023.73194183288
0.28126141492189,3023.74194183288
0.282114429887634,3023.75194183288
0.282377676911358,3023.76194183288
0.282477275171549,3023.77194183288
0.281678034919418,3023.78194183288
0.279742459264034,3023.79194183288
0.276578579617197,3023.80194183288
0.272392640281364,3023.81194183288
0.266922887767864,3023.82194183288
0.260789083332756,3023.83194183288
0.253458560302617,3023.84194183288
0.245457301605835,3023.85194183288
0.236854960804209,3023.86194183288
0.22773062173753,3023.87194183288
0.217681484826213,3023.88194183288
0.2073056524688,3023.89194183288
0.196406930978059,3023.90194183288
0.185106995299612,3023.91194183288
0.174239994521855,3023.92194183288
0.163866457772367,3023.93194183288
0.153782879866504,3023.94194183288
0.144388762735508,3023.95194183288
0.135446790204324,3023.96194183288
0.127113066074195,3023.97194183288
0.118568018632915,3023.98194183288
0.10972106925457,3023.99194183288
0.101183898732507,3024.00194183288
0.0922919439909309,3024.01194183288
0.0836758697593661,3024.02194183288
0.0755030544954164,3024.03194183288
0.06775602528251,3024.04194183288
0.0609810421051004,3024.05194183288
0.0550158497595981,3024.06194183288
0.049161010673088,3024.07194183288
0.0434677899560121,3024.08194183288
0.0379344321158018,3024.09194183288
0.0313704499178643,3024.10194183288
0.0245658285682573,3024.11194183288
0.0175482980395463,3024.12194183288
0.0110614354368105,3024.13194183288
0.00733381841953522,3024.14194183288
0.00816494225597519,3024.15194183288
0.0161033297378193,3024.16194183288
0.0326082802124619,3024.17194183288
0.0577596306919942,3024.18194183288
0.0909768276619812,3024.19194183288
0.13164322186369,3024.20194183288
0.177729436312849,3024.21194183288
0.226778627473536,3024.22194183288
0.275313612589369,3024.23194183288
0.320796845756169,3024.24194183288
0.359618804990995,3024.25194183288
0.390725293364909,3024.26194183288
0.413755173031108,3024.27194183288
0.428692651440374,3024.28194183288
0.436930679702567,3024.29194183288
0.440149008371156,3024.30194183288
0.438687757087947,3024.31194183288
0.43422918356261,3024.32194183288
0.427557222555466,3024.33194183288
0.419876065990198,3024.34194183288
0.411424543278099,3024.35194183288
0.403329776610104,3024.36194183288
0.394990077871049,3024.37194183288
0.386703001633621,3024.38194183288
0.379547764779359,3024.39194183288
0.372708053020398,3024.40194183288
0.365313769130495,3024.41194183288
0.356737472148334,3024.42194183288
0.347686888045594,3024.43194183288
0.337459813168269,3024.44194183288
0.326080682388876,3024.45194183288
0.314696457164919,3024.46194183288
0.303700758708133,3024.47194183288
0.293304321719414,3024.48194183288
0.284557404651895,3024.49194183288
0.278076072092802,3024.50194183288
0.273093285536327,3024.51194183288
0.269753435481074,3024.52194183288
0.268514218240632,3024.53194183288
0.268754501593741,3024.54194183288
0.27034199254745,3024.55194183288
0.272471186289053,3024.56194183288
0.273650405944875,3024.57194183288
0.274229128343516,3024.58194183288
0.272858749452641,3024.59194183288
0.270823262175488,3024.60194183288
0.267735957762255,3024.61194183288
0.263933557722769,3024.62194183288
0.25830275348647,3024.63194183288
0.251801673756523,3024.64194183288
0.245895552641045,3024.65194183288
0.23993016628416,3024.66194183288
0.233658602144026,3024.67194183288
0.227014146453388,3024.68194183288
