PPG,time
-0.0435246112783465,2776.17074612843
-0.0669957544295901,2776.18074612843
-0.0327634580104649,2776.19074612843
-0.0175723296915128,2776.20074612843
0.0043915269121101,2776.21074612843
0.0172046010859569,2776.22074612843
0.0310954524807311,2776.23074612843
0.0399715983576348,2776.24074612843
0.0479450886593991,2776.25074612843
0.0532784497428164,2776.26074612843
0.0577545288294278,2776.27074612843
0.0613994036763697,2776.28074612843
0.0653287218066866,2776.29074612843
0.0692450264092165,2776.30074612843
0.0744089172248718,2776.31074612843
0.0797808288019635,2776.32074612843
0.0859680695517422,2776.33074612843
0.0925450777086842,2776.34074612843
0.09952940868585,2776.35074612843
0.106502624762269,2776.36074612843
0.112075638981915,2776.37074612843
0.116358919067141,2776.38074612843
0.119557271172454,2776.39074612843
0.121361259973398,2776.40074612843
0.122538476832519,2776.41074612843
0.122178296812689,2776.42074612843
0.120747567709161,2776.43074612843
0.119152176010837,2776.44074612843
0.117329286432365,2776.45074612843
0.115236728719457,2776.46074612843
0.113854364653424,2776.47074612843
0.112575385024424,2776.48074612843
0.111645708835077,2776.49074612843
0.111506095706908,2776.50074612843
0.111532111514942,2776.51074612843
0.111873929945425,2776.52074612843
0.112278303227164,2776.53074612843
0.112187047421907,2776.54074612843
0.111727492749323,2776.55074612843
0.111338021512263,2776.56074612843
0.110358316550775,2776.57074612843
0.108641624501137,2776.58074612843
0.105910293477726,2776.59074612843
0.102827248120287,2776.60074612843
0.099809430504265,2776.61074612843
0.0962614010866865,2776.62074612843
0.0930351034864394,2776.63074612843
0.0897181810399734,2776.64074612843
0.0860052195178,2776.65074612843
0.0816717646146619,2776.66074612843
0.0773509059779299,2776.67074612843
0.0728417891060485,2776.68074612843
0.0684811870445521,2776.69074612843
0.064008338135978,2776.70074612843
0.0597802775952176,2776.71074612843
0.0554442670296197,2776.72074612843
0.0509678734881623,2776.73074612843
0.0465963636035748,2776.74074612843
0.0421164261609759,2776.75074612843
0.0378388381788503,2776.76074612843
0.0336014812037729,2776.77074612843
0.0293918435718369,2776.78074612843
0.025472031238137,2776.79074612843
0.0215541233583551,2776.80074612843
0.0173932094088461,2776.81074612843
0.0132546075940162,2776.82074612843
0.00908980693725466,2776.83074612843
0.00451373632810562,2776.84074612843
-0.000515593787017299,2776.85074612843
-0.00580485832899198,2776.86074612843
-0.0113921807052598,2776.87074612843
-0.0172059543858765,2776.88074612843
-0.0227038859238902,2776.89074612843
-0.0284158692625667,2776.90074612843
-0.0336520419328699,2776.91074612843
-0.03905343195941,2776.92074612843
-0.0440901367177173,2776.93074612843
-0.0494221662446593,2776.94074612843
-0.0545253080895558,2776.95074612843
-0.0598011820809431,2776.96074612843
-0.0649095826383779,2776.97074612843
-0.0698611031738521,2776.98074612843
-0.0748470915722121,2776.99074612843
-0.0798922552686978,2777.00074612843
-0.0838618790379762,2777.01074612843
-0.0879924974043298,2777.02074612843
-0.0924403982655268,2777.03074612843
-0.0968712570706792,2777.04074612843
-0.101392363687157,2777.05074612843
-0.10577501227877,2777.06074612843
-0.109776098246801,2777.07074612843
-0.114004808496645,2777.08074612843
-0.118266220949386,2777.09074612843
-0.122917903636245,2777.10074612843
-0.127262060064857,2777.11074612843
-0.132210051104511,2777.12074612843
-0.137383616728537,2777.13074612843
-0.142252577228988,2777.14074612843
-0.147561106596505,2777.15074612843
-0.153000730105018,2777.16074612843
-0.157519465285912,2777.17074612843
-0.160898538116862,2777.18074612843
-0.161964008458182,2777.19074612843
-0.15813313319104,2777.20074612843
-0.148778818637002,2777.21074612843
-0.133537166938224,2777.22074612843
-0.11397471647965,2777.23074612843
-0.0909685533592739,2777.24074612843
-0.0663235674788537,2777.25074612843
-0.0414371891628379,2777.26074612843
-0.0171695928699906,2777.27074612843
0.00515918532385432,2777.28074612843
0.0251428806523495,2777.29074612843
0.041921708056937,2777.30074612843
0.0553094550111516,2777.31074612843
0.0654457277913527,2777.32074612843
0.0729612811736739,2777.33074612843
0.078297796166666,2777.34074612843
0.0817225889769628,2777.35074612843
0.0845942312413302,2777.36074612843
0.0877329190781516,2777.37074612843
0.090484019412117,2777.38074612843
0.093686707557025,2777.39074612843
0.0976100472667127,2777.40074612843
0.102316570055579,2777.41074612843
0.107478718611633,2777.42074612843
0.113332419185186,2777.43074612843
0.119714885227323,2777.44074612843
0.126012742608734,2777.45074612843
0.130995848755302,2777.46074612843
0.13427031551353,2777.47074612843
0.136259689764879,2777.48074612843
0.136540715931043,2777.49074612843
0.135130165760068,2777.50074612843
0.132788296029959,2777.51074612843
0.129991682512583,2777.52074612843
0.12685993391606,2777.53074612843
0.123779632115883,2777.54074612843
0.121800037110396,2777.55074612843
0.120174853359971,2777.56074612843
0.119793990301417,2777.57074612843
0.120182678024198,2777.58074612843
0.12042341018149,2777.59074612843
0.121185222782647,2777.60074612843
0.121686757329356,2777.61074612843
0.122004649166323,2777.62074612843
0.121659079163631,2777.63074612843
0.120594716753577,2777.64074612843
0.119348798174159,2777.65074612843
0.116972994704972,2777.66074612843
0.114012212347213,2777.67074612843
0.110468312895642,2777.68074612843
0.107271781704829,2777.69074612843
0.103479093684091,2777.70074612843
0.0987647398333408,2777.71074612843
0.0940492635414214,2777.72074612843
0.0887272105108188,2777.73074612843
0.0823615210080298,2777.74074612843
0.0763731705302907,2777.75074612843
0.0695620579437228,2777.76074612843
0.0630504431939928,2777.77074612843
0.0574793456288152,2777.78074612843
0.0522507819365768,2777.79074612843
0.0474311419955533,2777.80074612843
0.0427130717681714,2777.81074612843
0.0380950102954467,2777.82074612843
0.0328099837696551,2777.83074612843
0.0277514582066227,2777.84074612843
0.0227623702513234,2777.85074612843
0.0178671598925856,2777.86074612843
0.0128987141355854,2777.87074612843
0.00843048513330415,2777.88074612843
0.00336598781986159,2777.89074612843
-0.00177541417606206,2777.90074612843
-0.00754558274201756,2777.91074612843
-0.0135434332444009,2777.92074612843
-0.0192340500193211,2777.93074612843
-0.0256160506783102,2777.94074612843
-0.0315768623211413,2777.95074612843
-0.0373217106930734,2777.96074612843
-0.0429059697359971,2777.97074612843
-0.048120428517623,2777.98074612843
-0.0531505839905621,2777.99074612843
-0.0582240551971465,2778.00074612843
-0.0631140203840645,2778.01074612843
-0.0687193180500668,2778.02074612843
-0.074591169252203,2778.03074612843
-0.0803669128128591,2778.04074612843
-0.0858907459515579,2778.05074612843
-0.0907558115732901,2778.06074612843
-0.0953808901567547,2778.07074612843
-0.100035130040587,2778.08074612843
-0.104463106613773,2778.09074612843
-0.109401435983444,2778.10074612843
-0.11487363052524,2778.11074612843
-0.120654906868676,2778.12074612843
-0.126624272233577,2778.13074612843
-0.132489059621245,2778.14074612843
-0.138298220046257,2778.15074612843
-0.143841548639429,2778.16074612843
-0.149490700166225,2778.17074612843
-0.15471793166161,2778.18074612843
-0.15934088454217,2778.19074612843
-0.165094845058841,2778.20074612843
-0.169639115052559,2778.21074612843
-0.172870309620218,2778.22074612843
-0.173769966657526,2778.23074612843
-0.170216530689832,2778.24074612843
-0.161587060158754,2778.25074612843
-0.147171880192392,2778.26074612843
-0.128245856405326,2778.27074612843
-0.106301662628086,2778.28074612843
-0.0831583765801331,2778.29074612843
-0.0593789195911311,2778.30074612843
-0.0369196556267881,2778.31074612843
-0.0160478948353894,2778.32074612843
0.00279807405862445,2778.33074612843
0.0190334113071601,2778.34074612843
0.03254477985269,2778.35074612843
0.043118630360952,2778.36074612843
0.0510686993803972,2778.37074612843
0.056913074494728,2778.38074612843
0.0609433695322114,2778.39074612843
0.064037168742447,2778.40074612843
0.0667627803545137,2778.41074612843
0.0694477536007167,2778.42074612843
0.072541564047178,2778.43074612843
0.0766513736512863,2778.44074612843
0.0812068827868793,2778.45074612843
0.0864325791150278,2778.46074612843
0.092183210644077,2778.47074612843
0.0976404262491987,2778.48074612843
0.102393795615017,2778.49074612843
0.105857987934085,2778.50074612843
0.107522612549432,2778.51074612843
0.10822089042937,2778.52074612843
0.107443442964168,2778.53074612843
0.10611539730804,2778.54074612843
0.104976952071691,2778.55074612843
0.10372628418957,2778.56074612843
0.102729977959181,2778.57074612843
0.102082741859904,2778.58074612843
0.101176288849792,2778.59074612843
0.101054767802368,2778.60074612843
0.101031033835579,2778.61074612843
0.101811546754664,2778.62074612843
0.10263346256437,2778.63074612843
0.103627182165729,2778.64074612843
0.104568477071485,2778.65074612843
0.104748989312263,2778.66074612843
0.10446839877842,2778.67074612843
0.103567455803328,2778.68074612843
0.102075667232233,2778.69074612843
0.100472606114062,2778.70074612843
0.0977282946031958,2778.71074612843
0.0941667401305312,2778.72074612843
0.0899718570918314,2778.73074612843
0.085575955437652,2778.74074612843
0.0806520069976534,2778.75074612843
0.0754189452201914,2778.76074612843
0.0700023846184296,2778.77074612843
0.0652195517126941,2778.78074612843
0.0604034553687397,2778.79074612843
0.0556719098374585,2778.80074612843
0.0512240840435427,2778.81074612843
0.0469492892282734,2778.82074612843
0.0428356212362964,2778.83074612843
0.0390015390671771,2778.84074612843
0.034943481736784,2778.85074612843
0.0303562245585847,2778.86074612843
0.0256291658011093,2778.87074612843
0.0205469678094568,2778.88074612843
0.0159174398834423,2778.89074612843
0.0107857150531947,2778.90074612843
0.00601671082837025,2778.91074612843
0.00076350493238953,2778.92074612843
-0.0044484178413983,2778.93074612843
-0.00922055221727484,2778.94074612843
-0.014104134776907,2778.95074612843
-0.0194575604457248,2778.96074612843
-0.0244745945918207,2778.97074612843
-0.0298157994489111,2778.98074612843
-0.0353297036753627,2778.99074612843
-0.0408351945435009,2779.00074612843
-0.0464271483342903,2779.01074612843
-0.051896246007947,2779.02074612843
-0.0576343913621291,2779.03074612843
-0.0634403149742603,2779.04074612843
-0.06896796859296,2779.05074612843
-0.073435945608007,2779.06074612843
-0.0778823407293371,2779.07074612843
-0.0826091427882438,2779.08074612843
-0.0868184113358389,2779.09074612843
-0.0909561906649866,2779.10074612843
-0.0958412809773532,2779.11074612843
-0.100595849108036,2779.12074612843
-0.105433786113158,2779.13074612843
-0.110392700604657,2779.14074612843
-0.115562743238799,2779.15074612843
-0.120175454547984,2779.16074612843
-0.124977337049214,2779.17074612843
-0.129700563744578,2779.18074612843
-0.134742213201181,2779.19074612843
-0.139882606454832,2779.20074612843
-0.144911393207016,2779.21074612843
-0.149983456336738,2779.22074612843
-0.154171847746709,2779.23074612843
-0.156286882921985,2779.24074612843
-0.155156912959709,2779.25074612843
-0.149219737857569,2779.26074612843
-0.137678052232883,2779.27074612843
-0.12049362048955,2779.28074612843
-0.0986278178941954,2779.29074612843
-0.0737758889828312,2779.30074612843
-0.0476503584003324,2779.31074612843
-0.0217398421629485,2779.32074612843
0.00448818689054476,2779.33074612843
0.0288900214289197,2779.34074612843
0.0518534142886336,2779.35074612843
0.07254723990901,2779.36074612843
0.0899862837270955,2779.37074612843
0.104119350583674,2779.38074612843
0.114925687593809,2779.39074612843
0.122783946018197,2779.40074612843
0.128307168082822,2779.41074612843
0.132230111459177,2779.42074612843
0.135668777454981,2779.43074612843
0.139498701137602,2779.44074612843
0.143618075605892,2779.45074612843
0.149156521897584,2779.46074612843
0.155448459649175,2779.47074612843
0.162586229882562,2779.48074612843
0.170353003821755,2779.49074612843
0.17784786022062,2779.50074612843
0.184790618933896,2779.51074612843
0.190198149724471,2779.52074612843
0.193789243511848,2779.53074612843
0.195852493553355,2779.54074612843
0.195381807893409,2779.55074612843
0.193555427292187,2779.56074612843
0.191075558639392,2779.57074612843
0.188259728685018,2779.58074612843
0.185465152095667,2779.59074612843
0.182630262488771,2779.60074612843
0.18042109869077,2779.61074612843
0.178309841105101,2779.62074612843
0.176404938760244,2779.63074612843
0.175212574859915,2779.64074612843
0.174538674499399,2779.65074612843
0.174280983569904,2779.66074612843
0.174204999357825,2779.67074612843
0.174388154421888,2779.68074612843
0.174304488158973,2779.69074612843
0.173851875435258,2779.70074612843
0.173087328240682,2779.71074612843
0.170889783298891,2779.72074612843
0.168235054884835,2779.73074612843
0.164652262485271,2779.74074612843
0.15997210257284,2779.75074612843
0.155193622649624,2779.76074612843
0.15008915394515,2779.77074612843
0.144788934690368,2779.78074612843
0.139279557972604,2779.79074612843
0.132677691816206,2779.80074612843
0.126166524689326,2779.81074612843
0.119194580842204,2779.82074612843
0.112476413573906,2779.83074612843
0.106703072183941,2779.84074612843
0.101416324500711,2779.85074612843
0.0963057132290973,2779.86074612843
0.0915834984868077,2779.87074612843
0.0870006563909173,2779.88074612843
0.0822817443373934,2779.89074612843
0.0771189589830491,2779.90074612843
0.0713391738324404,2779.91074612843
0.0654887411908439,2779.92074612843
0.0596385196529263,2779.93074612843
0.0542025739609589,2779.94074612843
0.0490169703015588,2779.95074612843
0.04405965646767,2779.96074612843
0.0390037885739023,2779.97074612843
0.0335345570392931,2779.98074612843
0.0284258936180505,2779.99074612843
0.0227262347668025,2780.00074612843
0.0172981258535857,2780.01074612843
0.0116516102070125,2780.02074612843
0.00586716028764379,2780.03074612843
0.000497343143429971,2780.04074612843
-0.0047226694739179,2780.05074612843
-0.0101259895652268,2780.06074612843
-0.0152655445535887,2780.07074612843
-0.0208198528461657,2780.08074612843
-0.0262147749034226,2780.09074612843
-0.031849742854281,2780.10074612843
-0.0375284372293874,2780.11074612843
-0.0437174743414112,2780.12074612843
-0.049500081634086,2780.13074612843
-0.0548334759759959,2780.14074612843
-0.0603423397545363,2780.15074612843
-0.06573213609234,2780.16074612843
-0.0714872169852434,2780.17074612843
-0.0769993854736154,2780.18074612843
-0.0820585633420311,2780.19074612843
-0.0868689725405253,2780.20074612843
-0.0911581469855146,2780.21074612843
-0.0960385093193438,2780.22074612843
-0.101223469899327,2780.23074612843
-0.106360325260968,2780.24074612843
-0.111455595648146,2780.25074612843
-0.116537450348546,2780.26074612843
-0.121523051132796,2780.27074612843
-0.126524945793163,2780.28074612843
-0.131633401247318,2780.29074612843
-0.136402912780491,2780.30074612843
-0.141698582496628,2780.31074612843
-0.146675331500614,2780.32074612843
-0.151280889312787,2780.33074612843
-0.1562744512213,2780.34074612843
-0.161274949204888,2780.35074612843
-0.166104950388983,2780.36074612843
-0.170228797598183,2780.37074612843
-0.172588039711672,2780.38074612843
-0.171420604194779,2780.39074612843
-0.16431660653943,2780.40074612843
-0.150933266374467,2780.41074612843
-0.1309974282745,2780.42074612843
-0.106336285123253,2780.43074612843
-0.077914261135896,2780.44074612843
-0.0483702915708672,2780.45074612843
-0.0190342191018857,2780.46074612843
0.00907313617941809,2780.47074612843
0.0355296806284244,2780.48074612843
0.0591578070231057,2780.49074612843
0.079586258980003,2780.50074612843
0.095895901998841,2780.51074612843
0.108987704967685,2780.52074612843
0.118780040036805,2780.53074612843
0.125887242628403,2780.54074612843
0.130942330973366,2780.55074612843
0.134508657051872,2780.56074612843
0.137579001904446,2780.57074612843
0.140484270900462,2780.58074612843
0.143701064765857,2780.59074612843
0.147596101169662,2780.60074612843
0.1525146772119,2780.61074612843
0.158521944528766,2780.62074612843
0.165211269491533,2780.63074612843
0.171706062726243,2780.64074612843
0.17804264148355,2780.65074612843
0.182432649521494,2780.66074612843
0.185394140282485,2780.67074612843
0.186886605846608,2780.68074612843
0.18675618138474,2780.69074612843
0.185070924030158,2780.70074612843
0.183034979416828,2780.71074612843
0.180362792243218,2780.72074612843
0.177117930729131,2780.73074612843
0.174198680761753,2780.74074612843
0.171785558616192,2780.75074612843
0.170152295479278,2780.76074612843
0.169065888307621,2780.77074612843
0.168196301450325,2780.78074612843
0.167497453629383,2780.79074612843
0.166301489558868,2780.80074612843
0.165236201637062,2780.81074612843
0.164145497367476,2780.82074612843
0.163088199979536,2780.83074612843
0.162161780575202,2780.84074612843
0.160322552378648,2780.85074612843
0.157967038392366,2780.86074612843
0.154998372752391,2780.87074612843
0.150964465768034,2780.88074612843
0.147074313718403,2780.89074612843
0.142952977927893,2780.90074612843
0.138543687124452,2780.91074612843
0.13338604222598,2780.92074612843
0.127443738159704,2780.93074612843
0.120975436776627,2780.94074612843
0.113852308148008,2780.95074612843
0.106714028806543,2780.96074612843
0.099688396438035,2780.97074612843
0.0936215293570821,2780.98074612843
0.0879711635356827,2780.99074612843
0.0827141109850163,2781.00074612843
0.0774079365182549,2781.01074612843
0.0722990755296376,2781.02074612843
0.0675432354921015,2781.03074612843
0.0627555264088173,2781.04074612843
0.0577648364601708,2781.05074612843
0.052837165509894,2781.06074612843
0.047677083554492,2781.07074612843
0.0422891704681667,2781.08074612843
0.0364714391266764,2781.09074612843
0.0303228105091885,2781.10074612843
0.024449837765759,2781.11074612843
0.0185788589558717,2781.12074612843
0.0124978783776105,2781.13074612843
0.00626321312950687,2781.14074612843
0.000118261031590479,2781.15074612843
-0.00647324515592896,2781.16074612843
-0.0127092920459819,2781.17074612843
-0.0186224844291724,2781.18074612843
-0.0247325416321168,2781.19074612843
-0.0307714655023884,2781.20074612843
-0.0364191758617703,2781.21074612843
-0.0423442537995274,2781.22074612843
-0.048415156425299,2781.23074612843
-0.0537621089884007,2781.24074612843
-0.0593484278378526,2781.25074612843
-0.0650911849722872,2781.26074612843
-0.0708624689683113,2781.27074612843
-0.0767262214616398,2781.28074612843
-0.0822781103963612,2781.29074612843
-0.0881751900019913,2781.30074612843
-0.0942962505040611,2781.31074612843
-0.100587575550727,2781.32074612843
-0.107413472098322,2781.33074612843
-0.11411432276009,2781.34074612843
-0.120340046924192,2781.35074612843
-0.126187384309222,2781.36074612843
-0.13101223652692,2781.37074612843
-0.135221008492864,2781.38074612843
-0.139270193171045,2781.39074612843
-0.143563278979177,2781.40074612843
-0.149151513134621,2781.41074612843
-0.154951561362108,2781.42074612843
-0.161542774663949,2781.43074612843
-0.167883889767984,2781.44074612843
-0.173704448410112,2781.45074612843
-0.179019344767439,2781.46074612843
-0.184055284644629,2781.47074612843
-0.18870767267125,2781.48074612843
-0.193560540389259,2781.49074612843
-0.198060694587132,2781.50074612843
-0.202195021354745,2781.51074612843
-0.204459493197039,2781.52074612843
-0.203907365063639,2781.53074612843
-0.199485412326134,2781.54074612843
-0.18846700819847,2781.55074612843
-0.171324672590335,2781.56074612843
-0.148905594453964,2781.57074612843
-0.122996950094889,2781.58074612843
-0.0957536981319975,2781.59074612843
-0.0687543725374093,2781.60074612843
-0.0427961960123757,2781.61074612843
-0.0186619908524001,2781.62074612843
0.0026463574916804,2781.63074612843
0.0212010652006593,2781.64074612843
0.0369026240884134,2781.65074612843
0.0490274554706888,2781.66074612843
0.0581622849169902,2781.67074612843
0.0650456931709197,2781.68074612843
0.0698452929939823,2781.69074612843
0.0730268176238708,2781.70074612843
0.0749061636425154,2781.71074612843
0.0767254482398683,2781.72074612843
0.078845461568161,2781.73074612843
0.0811287054836729,2781.74074612843
0.0843120823733054,2781.75074612843
0.088078255098571,2781.76074612843
0.0919971239469764,2781.77074612843
0.0957876335363825,2781.78074612843
0.0988719437779248,2781.79074612843
0.101323737373598,2781.80074612843
0.103155764788117,2781.81074612843
0.104011414658386,2781.82074612843
0.104050487695225,2781.83074612843
0.102913064625178,2781.84074612843
0.100632089484449,2781.85074612843
0.0978939819783182,2781.86074612843
0.0953897979008086,2781.87074612843
0.0937340059301183,2781.88074612843
0.0923027430421607,2781.89074612843
0.0917080557862305,2781.90074612843
0.0912332519702591,2781.91074612843
0.0909512058963136,2781.92074612843
0.0912936213327129,2781.93074612843
0.0920136753263223,2781.94074612843
0.0928908950070722,2781.95074612843
0.0927571054418785,2781.96074612843
0.0921458376547588,2781.97074612843
0.0905130705390469,2781.98074612843
0.0880254156423462,2781.99074612843
0.0847930325549482,2782.00074612843
0.0807037139829371,2782.01074612843
0.0753935956020309,2782.02074612843
0.0693497912922749,2782.03074612843
0.0622054780076052,2782.04074612843
0.053739000841801,2782.05074612843
0.044462390573339,2782.06074612843
0.0342812391414906,2782.07074612843
0.023251443812399,2782.08074612843
0.0119538381167536,2782.09074612843
0.000830297796470303,2782.10074612843
-0.00999784930901986,2782.11074612843
-0.020807830164346,2782.12074612843
-0.0308393554832712,2782.13074612843
-0.0407161064090151,2782.14074612843
-0.0505521507451712,2782.15074612843
-0.0601207212302075,2782.16074612843
-0.0693805162848827,2782.17074612843
-0.0786758172027391,2782.18074612843
-0.0874089788724418,2782.19074612843
-0.0956359784351436,2782.20074612843
-0.103076664132736,2782.21074612843
-0.110117980494322,2782.22074612843
-0.11746782742466,2782.23074612843
-0.12417009992331,2782.24074612843
-0.130870180317314,2782.25074612843
-0.137321791727535,2782.26074612843
-0.143647056741778,2782.27074612843
-0.149550146009859,2782.28074612843
-0.154964524557987,2782.29074612843
-0.159852545490465,2782.30074612843
-0.163835322985117,2782.31074612843
-0.167286425590922,2782.32074612843
-0.170774990881417,2782.33074612843
-0.17369358204567,2782.34074612843
-0.176429112553839,2782.35074612843
-0.179722942919808,2782.36074612843
-0.182869282455429,2782.37074612843
-0.186491128878792,2782.38074612843
-0.189995573457984,2782.39074612843
-0.19372021461701,2782.40074612843
-0.197436846346065,2782.41074612843
-0.201434625471027,2782.42074612843
-0.205580369473498,2782.43074612843
-0.209662941410284,2782.44074612843
-0.213534094281757,2782.45074612843
-0.217061865451422,2782.46074612843
-0.2213725822086,2782.47074612843
-0.225381300831397,2782.48074612843
-0.229547675081546,2782.49074612843
-0.233367860458045,2782.50074612843
-0.237207852096216,2782.51074612843
-0.240859308183132,2782.52074612843
-0.244585512353059,2782.53074612843
-0.248360095257116,2782.54074612843
-0.252496657231138,2782.55074612843
-0.256426630502181,2782.56074612843
-0.259351764383965,2782.57074612843
-0.260514003089125,2782.58074612843
-0.258157428163701,2782.59074612843
-0.25068100058879,2782.60074612843
-0.236547663521583,2782.61074612843
-0.215244674483557,2782.62074612843
-0.18879931572683,2782.63074612843
-0.159775616291937,2782.64074612843
-0.129850511742247,2782.65074612843
-0.10126643520767,2782.66074612843
-0.0746493076255695,2782.67074612843
-0.0507813544575272,2782.68074612843
-0.0301775016790234,2782.69074612843
-0.0124308798376338,2782.70074612843
0.00143812232179119,2782.71074612843
0.0120561846094131,2782.72074612843
0.0195686774082627,2782.73074612843
0.0248278996992967,2782.74074612843
0.0283627411363602,2782.75074612843
0.0309073130002462,2782.76074612843
0.0323230379927015,2782.77074612843
0.0330212193135407,2782.78074612843
0.0339348950998178,2782.79074612843
0.034661753981353,2782.80074612843
0.035430274456639,2782.81074612843
0.0365211550877696,2782.82074612843
0.0377614870594557,2782.83074612843
0.0387805834014015,2782.84074612843
0.0381902378201237,2782.85074612843
0.0360965968996677,2782.86074612843
0.0321751178235869,2782.87074612843
0.0268021447847426,2782.88074612843
0.0200755633385363,2782.89074612843
0.0133234678564673,2782.90074612843
0.00654075668598336,2782.91074612843
0.000584197370487125,2782.92074612843
-0.00475423757481209,2782.93074612843
-0.00857436359593452,2782.94074612843
-0.0119183370725008,2782.95074612843
-0.0145054580709711,2782.96074612843
-0.0165840451710575,2782.97074612843
-0.0186696469049494,2782.98074612843
-0.0204344170692374,2782.99074612843
-0.0227261623434853,2783.00074612843
-0.0255234302239594,2783.01074612843
-0.0285552126081206,2783.02074612843
-0.0319527330447996,2783.03074612843
-0.0350882522707161,2783.04074612843
-0.0383438563621895,2783.05074612843
-0.0420576782925713,2783.06074612843
-0.0464371240577872,2783.07074612843
-0.0512655826861275,2783.08074612843
-0.0555360206360919,2783.09074612843
-0.0599414037136265,2783.10074612843
-0.063609983290114,2783.11074612843
-0.0664214399370018,2783.12074612843
-0.0691317810911912,2783.13074612843
-0.0710200478024957,2783.14074612843
-0.0727051481299386,2783.15074612843
-0.0748370218303275,2783.16074612843
-0.0766147242917818,2783.17074612843
-0.0791506777891577,2783.18074612843
-0.0815758477009866,2783.19074612843
-0.0846220890951066,2783.20074612843
-0.0875090131599772,2783.21074612843
-0.0904119202836028,2783.22074612843
-0.0934095978985466,2783.23074612843
-0.0964104716718699,2783.24074612843
-0.0991393784966923,2783.25074612843
-0.101130496833455,2783.26074612843
-0.10312421250295,2783.27074612843
-0.105271328601612,2783.28074612843
-0.107760264394197,2783.29074612843
-0.110669280641564,2783.30074612843
-0.114315391498766,2783.31074612843
-0.118623843426655,2783.32074612843
-0.123763794251551,2783.33074612843
-0.129715662284802,2783.34074612843
-0.137015560105416,2783.35074612843
-0.146607080176924,2783.36074612843
-0.159489252946092,2783.37074612843
-0.176730126679547,2783.38074612843
-0.198967704825037,2783.39074612843
-0.225799371590705,2783.40074612843
-0.256530389764358,2783.41074612843
-0.288620545116483,2783.42074612843
-0.320626414390817,2783.43074612843
-0.351654981964417,2783.44074612843
-0.380656206006513,2783.45074612843
-0.407365749883083,2783.46074612843
-0.431144348953731,2783.47074612843
-0.451624809802807,2783.48074612843
-0.468830138855309,2783.49074612843
-0.483091563272563,2783.50074612843
-0.495918952547432,2783.51074612843
-0.508299331671624,2783.52074612843
-0.519747422393233,2783.53074612843
-0.531002625078049,2783.54074612843
-0.542191885279895,2783.55074612843
-0.553989089866671,2783.56074612843
-0.567007648443546,2783.57074612843
-0.581389568842561,2783.58074612843
-0.596304242434675,2783.59074612843
-0.610393253610831,2783.60074612843
-0.62353721628425,2783.61074612843
-0.63488845106752,2783.62074612843
-0.64311077184032,2783.63074612843
-0.646810741338594,2783.64074612843
-0.644819366959652,2783.65074612843
-0.636415728705386,2783.66074612843
-0.621652777661668,2783.67074612843
-0.602301892463227,2783.68074612843
-0.580066694059477,2783.69074612843
-0.555807232015973,2783.70074612843
-0.53102245303754,2783.71074612843
-0.5066683873977,2783.72074612843
-0.483231225425828,2783.73074612843
-0.461805182643146,2783.74074612843
-0.442580090944627,2783.75074612843
-0.426431770974517,2783.76074612843
-0.412809277378762,2783.77074612843
-0.401899506388868,2783.78074612843
-0.392294994785477,2783.79074612843
-0.384395822245407,2783.80074612843
-0.377489261149354,2783.81074612843
-0.370983508334678,2783.82074612843
-0.364602490123758,2783.83074612843
-0.357684192548425,2783.84074612843
-0.349865321731397,2783.85074612843
-0.34139824801993,2783.86074612843
-0.332705373658475,2783.87074612843
-0.323353027251704,2783.88074612843
-0.314206534268128,2783.89074612843
-0.305666766009601,2783.90074612843
-0.298497784754741,2783.91074612843
-0.293097214661305,2783.92074612843
-0.290918366974507,2783.93074612843
-0.291044783562591,2783.94074612843
-0.292969772298813,2783.95074612843
-0.296656374838511,2783.96074612843
-0.30063459914188,2783.97074612843
-0.30522542048828,2783.98074612843
-0.310346381775137,2783.99074612843
-0.316006743898747,2784.00074612843
-0.321240977876959,2784.01074612843
-0.326043449937594,2784.02074612843
-0.330019979155944,2784.03074612843
-0.334482306306161,2784.04074612843
-0.338691258223349,2784.05074612843
-0.342648928007315,2784.06074612843
-0.34697981901863,2784.07074612843
-0.35163146777995,2784.08074612843
-0.356951658654523,2784.09074612843
-0.363266830264473,2784.10074612843
-0.370180227097941,2784.11074612843
-0.378719209071908,2784.12074612843
-0.387885515862068,2784.13074612843
-0.398627374890752,2784.14074612843
-0.409533343246198,2784.15074612843
-0.420029111423605,2784.16074612843
-0.430267376040678,2784.17074612843
-0.439128656158022,2784.18074612843
-0.447542071057076,2784.19074612843
-0.455499722059177,2784.20074612843
-0.463375476921197,2784.21074612843
-0.471035249721877,2784.22074612843
-0.478264068708549,2784.23074612843
-0.485429044147923,2784.24074612843
-0.491966396538602,2784.25074612843
-0.498394686583785,2784.26074612843
-0.504970730340514,2784.27074612843
-0.511312146825822,2784.28074612843
-0.51738027561197,2784.29074612843
-0.522951556660037,2784.30074612843
-0.528714961713788,2784.31074612843
-0.534708552602225,2784.32074612843
-0.540499782144143,2784.33074612843
-0.546627576323579,2784.34074612843
-0.552894464152793,2784.35074612843
-0.559547001815092,2784.36074612843
-0.566676773732363,2784.37074612843
-0.573714975840311,2784.38074612843
-0.580401460095727,2784.39074612843
-0.586974764157555,2784.40074612843
-0.592681005967036,2784.41074612843
-0.598039983716187,2784.42074612843
-0.602725261030285,2784.43074612843
-0.607323487593449,2784.44074612843
-0.612070641819305,2784.45074612843
-0.616498934975957,2784.46074612843
-0.621050165944163,2784.47074612843
-0.625729684848648,2784.48074612843
-0.630333069471696,2784.49074612843
-0.63465689713462,2784.50074612843
-0.637442558578633,2784.51074612843
-0.639298577183525,2784.52074612843
-0.640840478916348,2784.53074612843
-0.64104924697331,2784.54074612843
-0.640879906838319,2784.55074612843
-0.639909591580039,2784.56074612843
-0.638667872427502,2784.57074612843
-0.637979322865627,2784.58074612843
-0.638222722325562,2784.59074612843
-0.639258958395123,2784.60074612843
-0.641188838824371,2784.61074612843
-0.643438904891957,2784.62074612843
-0.646633305790949,2784.63074612843
-0.650214721862248,2784.64074612843
-0.653714896202355,2784.65074612843
-0.656973256866204,2784.66074612843
-0.659642168571645,2784.67074612843
-0.661244371821654,2784.68074612843
-0.660775647142872,2784.69074612843
-0.656425164071988,2784.70074612843
-0.646823525380316,2784.71074612843
-0.631585811035107,2784.72074612843
-0.612632829284435,2784.73074612843
-0.592342830674109,2784.74074612843
-0.572964048657284,2784.75074612843
-0.555825460940713,2784.76074612843
-0.541586327399652,2784.77074612843
-0.530340279114841,2784.78074612843
-0.522565345697569,2784.79074612843
-0.516911672885823,2784.80074612843
-0.514004606025873,2784.81074612843
-0.511946448653639,2784.82074612843
-0.510974272977768,2784.83074612843
-0.511096354173963,2784.84074612843
-0.511344172625675,2784.85074612843
-0.511654007787714,2784.86074612843
-0.512046332644363,2784.87074612843
-0.51279584472163,2784.88074612843
-0.512496064894421,2784.89074612843
-0.511585705833444,2784.90074612843
-0.509638488922664,2784.91074612843
-0.50704492638598,2784.92074612843
-0.504351652400666,2784.93074612843
-0.502533969730485,2784.94074612843
-0.501647611958656,2784.95074612843
-0.501746602253619,2784.96074612843
-0.503726508409792,2784.97074612843
-0.506136841793947,2784.98074612843
-0.509821493787858,2784.99074612843
-0.513555425046571,2785.00074612843
-0.517254070835247,2785.01074612843
-0.52084639029171,2785.02074612843
-0.523883378627428,2785.03074612843
-0.526164320174301,2785.04074612843
-0.528282802761095,2785.05074612843
-0.529455331454862,2785.06074612843
-0.530394419745805,2785.07074612843
-0.531521573152278,2785.08074612843
-0.532594019511472,2785.09074612843
-0.53399849258647,2785.10074612843
-0.535891276205054,2785.11074612843
-0.538080863418954,2785.12074612843
-0.540614947474001,2785.13074612843
-0.543366765809412,2785.14074612843
-0.546731887056286,2785.15074612843
-0.549712159784191,2785.16074612843
-0.553106117550348,2785.17074612843
-0.555780008663687,2785.18074612843
-0.55876295618207,2785.19074612843
-0.561398023423785,2785.20074612843
-0.56412372581347,2785.21074612843
-0.566771685329124,2785.22074612843
-0.569269164921616,2785.23074612843
-0.571275300688742,2785.24074612843
-0.573179653810043,2785.25074612843
-0.575036305842306,2785.26074612843
-0.576604984320777,2785.27074612843
-0.578196024715159,2785.28074612843
-0.579372916335124,2785.29074612843
-0.580595751979742,2785.30074612843
-0.581318432529271,2785.31074612843
-0.581612510928611,2785.32074612843
-0.582072075995097,2785.33074612843
-0.582814275460528,2785.34074612843
-0.58408383824871,2785.35074612843
-0.585767622438303,2785.36074612843
-0.587186161047029,2785.37074612843
-0.588469082010438,2785.38074612843
-0.589307983860869,2785.39074612843
-0.589667639318076,2785.40074612843
-0.589859681901803,2785.41074612843
-0.589847147630593,2785.42074612843
-0.590535288686289,2785.43074612843
-0.59171327749336,2785.44074612843
-0.593734958904351,2785.45074612843
-0.595800842595345,2785.46074612843
-0.598295923051921,2785.47074612843
-0.600317118639459,2785.48074612843
-0.60222364925108,2785.49074612843
-0.603800513487201,2785.50074612843
-0.604996566091358,2785.51074612843
-0.606423154557347,2785.52074612843
-0.607170651379836,2785.53074612843
-0.607752799653371,2785.54074612843
-0.608812652668024,2785.55074612843
-0.61000100447547,2785.56074612843
-0.611520406022963,2785.57074612843
-0.613299139468086,2785.58074612843
-0.616193612055834,2785.59074612843
-0.619511846379256,2785.60074612843
-0.62309478825652,2785.61074612843
-0.626853256527995,2785.62074612843
-0.630204608244409,2785.63074612843
-0.632250007187173,2785.64074612843
-0.631954172554186,2785.65074612843
-0.628215203295638,2785.66074612843
-0.620796835794431,2785.67074612843
-0.611312424727379,2785.68074612843
-0.60055603749585,2785.69074612843
-0.591130713177218,2785.70074612843
-0.582760529567417,2785.71074612843
-0.576427564019379,2785.72074612843
-0.571248284126809,2785.73074612843
-0.56751348398648,2785.74074612843
-0.564520414675812,2785.75074612843
-0.562564141297751,2785.76074612843
-0.560881303746467,2785.77074612843
-0.559165273563767,2785.78074612843
-0.558104922999584,2785.79074612843
-0.557147500975906,2785.80074612843
-0.555588571488781,2785.81074612843
-0.554082223188241,2785.82074612843
-0.551263279732669,2785.83074612843
-0.547332800288528,2785.84074612843
-0.542675217511427,2785.85074612843
-0.537730399135494,2785.86074612843
-0.533500464196135,2785.87074612843
-0.529659486761955,2785.88074612843
-0.526851969617176,2785.89074612843
-0.524735803463337,2785.90074612843
-0.523889624182064,2785.91074612843
-0.523521145240824,2785.92074612843
-0.52329284869375,2785.93074612843
-0.523483883868683,2785.94074612843
-0.523368870796747,2785.95074612843
-0.523588010792323,2785.96074612843
-0.523602061057404,2785.97074612843
-0.523872810356889,2785.98074612843
-0.523727144472971,2785.99074612843
-0.523987998285758,2786.00074612843
-0.52476708933695,2786.01074612843
-0.526191002136475,2786.02074612843
-0.528658090632817,2786.03074612843
-0.53135703867673,2786.04074612843
-0.534800753151572,2786.05074612843
-0.538735311168806,2786.06074612843
-0.542628615602442,2786.07074612843
-0.546576467197721,2786.08074612843
-0.550029787550687,2786.09074612843
-0.553303044546193,2786.10074612843
-0.556264505276126,2786.11074612843
-0.55950373488998,2786.12074612843
-0.562154712317286,2786.13074612843
-0.564698733113876,2786.14074612843
-0.567025841820833,2786.15074612843
-0.568593252372887,2786.16074612843
-0.569773400775024,2786.17074612843
-0.571280104830191,2786.18074612843
-0.57276504794023,2786.19074612843
-0.572983104676723,2786.20074612843
-0.573406910910798,2786.21074612843
-0.573029485639458,2786.22074612843
-0.572643526107708,2786.23074612843
-0.572301280433127,2786.24074612843
-0.5726384245467,2786.25074612843
-0.572985587246678,2786.26074612843
-0.573239747128404,2786.27074612843
-0.573323977423364,2786.28074612843
-0.573348031253144,2786.29074612843
-0.573310839882654,2786.30074612843
-0.573554161059709,2786.31074612843
-0.57324460316276,2786.32074612843
-0.573163134764941,2786.33074612843
-0.572662556215124,2786.34074612843
-0.57181978584652,2786.35074612843
-0.571139984921397,2786.36074612843
-0.57070724343792,2786.37074612843
-0.570451736698144,2786.38074612843
-0.570622222971302,2786.39074612843
-0.570727884782491,2786.40074612843
-0.570703870226505,2786.41074612843
-0.571165072828865,2786.42074612843
-0.571474029387171,2786.43074612843
-0.572132518061242,2786.44074612843
-0.572770014803335,2786.45074612843
-0.573940959841942,2786.46074612843
-0.574965471751915,2786.47074612843
-0.57594561768858,2786.48074612843
-0.576988326024949,2786.49074612843
-0.577845423570551,2786.50074612843
-0.578694733796311,2786.51074612843
-0.578790538131979,2786.52074612843
-0.578320673373509,2786.53074612843
-0.5753119349565,2786.54074612843
-0.569877308571603,2786.55074612843
-0.562017720552421,2786.56074612843
-0.552586280780658,2786.57074612843
-0.542694565265039,2786.58074612843
-0.532643947818495,2786.59074612843
-0.52344904705242,2786.60074612843
-0.515550397176721,2786.61074612843
-0.509511889261361,2786.62074612843
-0.505034139998375,2786.63074612843
-0.501975151787874,2786.64074612843
-0.499667872490627,2786.65074612843
-0.498180447649895,2786.66074612843
-0.497039727069502,2786.67074612843
-0.495301605811029,2786.68074612843
-0.492714305720446,2786.69074612843
-0.488704058417711,2786.70074612843
-0.482982822719946,2786.71074612843
-0.476716834216568,2786.72074612843
-0.469388215336624,2786.73074612843
-0.462090596702448,2786.74074612843
-0.454634720496565,2786.75074612843
-0.447380327483286,2786.76074612843
-0.440657805453121,2786.77074612843
-0.43402539444454,2786.78074612843
-0.427794362255887,2786.79074612843
-0.422308152017079,2786.80074612843
-0.417615449790927,2786.81074612843
-0.414136311548414,2786.82074612843
-0.410809358677517,2786.83074612843
-0.4085800160257,2786.84074612843
-0.406782456337399,2786.85074612843
-0.405364386939603,2786.86074612843
-0.40523871177165,2786.87074612843
-0.405403560836691,2786.88074612843
-0.407129953094854,2786.89074612843
-0.409357737950009,2786.90074612843
-0.412557325269462,2786.91074612843
-0.416377544269823,2786.92074612843
-0.421057779485213,2786.93074612843
-0.426223942742641,2786.94074612843
-0.431706458629917,2786.95074612843
-0.436723490302148,2786.96074612843
-0.441552300407805,2786.97074612843
-0.445669018670605,2786.98074612843
-0.449405256323568,2786.99074612843
-0.452860646039598,2787.00074612843
-0.455519562805863,2787.01074612843
-0.458109172439676,2787.02074612843
-0.460260787303516,2787.03074612843
-0.462489847223283,2787.04074612843
-0.464533328110207,2787.05074612843
-0.465982536411204,2787.06074612843
-0.467159999988723,2787.07074612843
-0.467891845738609,2787.08074612843
-0.468341480443175,2787.09074612843
-0.468476853276463,2787.10074612843
-0.46832651457566,2787.11074612843
-0.468009554173003,2787.12074612843
-0.467375004689469,2787.13074612843
-0.467332413281548,2787.14074612843
-0.467171669623403,2787.15074612843
-0.467377342192303,2787.16074612843
-0.466834136478788,2787.17074612843
-0.466633776756224,2787.18074612843
-0.466497274959914,2787.19074612843
-0.466297872392594,2787.20074612843
-0.466621381984664,2787.21074612843
-0.466750964208773,2787.22074612843
-0.467653174439318,2787.23074612843
-0.468370995692701,2787.24074612843
-0.469531489244203,2787.25074612843
-0.47059599024914,2787.26074612843
-0.471940055205408,2787.27074612843
-0.473614451401358,2787.28074612843
-0.475194647993708,2787.29074612843
-0.476530827026143,2787.30074612843
-0.477425036097916,2787.31074612843
-0.47785438998031,2787.32074612843
-0.478226631267602,2787.33074612843
-0.47861362075063,2787.34074612843
-0.479548098823441,2787.35074612843
-0.480933472573352,2787.36074612843
-0.482177787299723,2787.37074612843
-0.48325291964534,2787.38074612843
-0.484486371735266,2787.39074612843
-0.485577437580003,2787.40074612843
-0.486779819765155,2787.41074612843
-0.487532969700574,2787.42074612843
-0.48932116669968,2787.43074612843
-0.490683484859597,2787.44074612843
-0.491856476857385,2787.45074612843
-0.492877933687678,2787.46074612843
-0.493003775794001,2787.47074612843
-0.491695334875073,2787.48074612843
-0.487802104312406,2787.49074612843
-0.482004737011687,2787.50074612843
-0.473868167746182,2787.51074612843
-0.464848008892385,2787.52074612843
-0.455465673146216,2787.53074612843
-0.446816312228765,2787.54074612843
-0.438962528458487,2787.55074612843
-0.432694931400572,2787.56074612843
-0.428330928549611,2787.57074612843
-0.425574364925484,2787.58074612843
-0.424566034641159,2787.59074612843
-0.425223188991961,2787.60074612843
-0.426925360804917,2787.61074612843
-0.429455372932903,2787.62074612843
-0.433377707037849,2787.63074612843
-0.437284910648242,2787.64074612843
-0.441276992398044,2787.65074612843
-0.444399043846621,2787.66074612843
-0.44653010967923,2787.67074612843
-0.447682734346408,2787.68074612843
-0.448477512735072,2787.69074612843
-0.448600071597905,2787.70074612843
-0.448739239499807,2787.71074612843
-0.448806299541122,2787.72074612843
-0.448957293865408,2787.73074612843
-0.449164763245456,2787.74074612843
-0.449427238207469,2787.75074612843
-0.449631509010557,2787.76074612843
-0.44987479735711,2787.77074612843
-0.449671081953876,2787.78074612843
-0.448950303419377,2787.79074612843
-0.448072699659364,2787.80074612843
-0.445753413265017,2787.81074612843
-0.443142647594845,2787.82074612843
-0.439338624320056,2787.83074612843
-0.435220354523378,2787.84074612843
-0.431621672100462,2787.85074612843
-0.427936226675065,2787.86074612843
-0.425050691605047,2787.87074612843
-0.422731169182322,2787.88074612843
-0.420746080454519,2787.89074612843
-0.41913918788067,2787.90074612843
-0.417952114731601,2787.91074612843
-0.417297076328849,2787.92074612843
-0.418207857456116,2787.93074612843
-0.419687467624179,2787.94074612843
-0.421892845104701,2787.95074612843
-0.42464117566603,2787.96074612843
-0.427139746151794,2787.97074612843
-0.429398864620134,2787.98074612843
-0.432021861927612,2787.99074612843
-0.435105291013354,2788.00074612843
-0.438427886609073,2788.01074612843
-0.442203094638365,2788.02074612843
-0.446036810635833,2788.03074612843
-0.450247339548986,2788.04074612843
-0.454230739766383,2788.05074612843
-0.458094656861377,2788.06074612843
-0.461658992559846,2788.07074612843
-0.464859954071386,2788.08074612843
-0.469028699614971,2788.09074612843
-0.47428641661407,2788.10074612843
-0.480615521112335,2788.11074612843
-0.486955962815266,2788.12074612843
-0.491841953692184,2788.13074612843
-0.495596031393198,2788.14074612843
-0.497621784506226,2788.15074612843
-0.49924557759049,2788.16074612843
-0.500482895638342,2788.17074612843
-0.502391331927073,2788.18074612843
-0.504670764235979,2788.19074612843
-0.507200758416868,2788.20074612843
-0.509925988299036,2788.21074612843
-0.511819413364854,2788.22074612843
-0.513968715508055,2788.23074612843
-0.515921360271915,2788.24074612843
-0.518145267136015,2788.25074612843
-0.52049231793087,2788.26074612843
-0.522634889483917,2788.27074612843
-0.525149946238503,2788.28074612843
-0.527674956765112,2788.29074612843
-0.529667958704643,2788.30074612843
-0.530597074586771,2788.31074612843
-0.530581408561232,2788.32074612843
-0.529373078149511,2788.33074612843
-0.527069883760351,2788.34074612843
-0.524262539595796,2788.35074612843
-0.520445663433384,2788.36074612843
-0.515967996657949,2788.37074612843
-0.510722417476896,2788.38074612843
-0.504909954770124,2788.39074612843
-0.498064928638418,2788.40074612843
-0.490325603200909,2788.41074612843
-0.481084624254492,2788.42074612843
-0.470470219860503,2788.43074612843
-0.458309470776622,2788.44074612843
-0.445084258156446,2788.45074612843
-0.431806162890708,2788.46074612843
-0.419546020671552,2788.47074612843
-0.40853584681336,2788.48074612843
-0.399216031200707,2788.49074612843
-0.390971404222103,2788.50074612843
-0.383983434749684,2788.51074612843
-0.378112119163091,2788.52074612843
-0.373186391304693,2788.53074612843
-0.369077570178314,2788.54074612843
-0.365899944606355,2788.55074612843
-0.363094213818622,2788.56074612843
-0.360720403899301,2788.57074612843
-0.358198289183366,2788.58074612843
-0.355816866425337,2788.59074612843
-0.352010743874552,2788.60074612843
-0.348177674338601,2788.61074612843
-0.343446912220293,2788.62074612843
-0.338581738204671,2788.63074612843
-0.333795903535539,2788.64074612843
-0.328691892680039,2788.65074612843
-0.324440646317252,2788.66074612843
-0.321489912194168,2788.67074612843
-0.319818338800343,2788.68074612843
-0.319265722195478,2788.69074612843
-0.31967892268767,2788.70074612843
-0.319991339974442,2788.71074612843
-0.32048182831116,2788.72074612843
-0.321077485464601,2788.73074612843
-0.32142845124757,2788.74074612843
-0.321710062174679,2788.75074612843
-0.321158979356356,2788.76074612843
-0.320197399726743,2788.77074612843
-0.318047435155889,2788.78074612843
-0.315323022956803,2788.79074612843
-0.312601923440962,2788.80074612843
-0.310393795804447,2788.81074612843
-0.308894019380498,2788.82074612843
-0.307822407824368,2788.83074612843
-0.307356752502006,2788.84074612843
-0.307339644834264,2788.85074612843
-0.307530264132438,2788.86074612843
-0.308215874210999,2788.87074612843
-0.308903858296969,2788.88074612843
-0.309282373358767,2788.89074612843
-0.309394246562739,2788.90074612843
-0.309564881600027,2788.91074612843
-0.309865922608955,2788.92074612843
-0.310309060332408,2788.93074612843
-0.310640112403933,2788.94074612843
-0.3112394618404,2788.95074612843
-0.312169700806035,2788.96074612843
-0.312919565534027,2788.97074612843
-0.313582380006597,2788.98074612843
-0.314137521377413,2788.99074612843
-0.314978340442517,2789.00074612843
-0.315658039198944,2789.01074612843
-0.316009399547772,2789.02074612843
-0.316506952532506,2789.03074612843
-0.317132226228186,2789.04074612843
-0.318337604691428,2789.05074612843
-0.319305587837453,2789.06074612843
-0.320181333253231,2789.07074612843
-0.321099391178198,2789.08074612843
-0.321531983888036,2789.09074612843
-0.321713059472415,2789.10074612843
-0.322572724395766,2789.11074612843
-0.323482357931488,2789.12074612843
-0.32459375537191,2789.13074612843
-0.325490726172507,2789.14074612843
-0.325972463615546,2789.15074612843
-0.326501629718794,2789.16074612843
-0.327433040385189,2789.17074612843
-0.32791627051908,2789.18074612843
-0.32871432098841,2789.19074612843
-0.329207787400777,2789.20074612843
-0.329473971157055,2789.21074612843
-0.33011309651004,2789.22074612843
-0.330751306034134,2789.23074612843
-0.332528360367392,2789.24074612843
-0.33425627882613,2789.25074612843
-0.335570521300137,2789.26074612843
-0.336711072618525,2789.27074612843
-0.337784158175684,2789.28074612843
-0.338328632719097,2789.29074612843
-0.339274365251875,2789.30074612843
-0.340446880624196,2789.31074612843
-0.341408067150851,2789.32074612843
-0.34259340982532,2789.33074612843
-0.343156453296295,2789.34074612843
-0.342583686482182,2789.35074612843
-0.340203639295403,2789.36074612843
-0.335643867279133,2789.37074612843
-0.32902594767242,2789.38074612843
-0.32081602255289,2789.39074612843
-0.31109737513298,2789.40074612843
-0.300995806824814,2789.41074612843
-0.291028937313806,2789.42074612843
-0.281913460574808,2789.43074612843
-0.274224690054285,2789.44074612843
-0.26819280791299,2789.45074612843
-0.263872594599359,2789.46074612843
-0.260657631036753,2789.47074612843
-0.258193334147138,2789.48074612843
-0.256117069551016,2789.49074612843
-0.254127933461045,2789.50074612843
-0.252217180195954,2789.51074612843
-0.25051051743287,2789.52074612843
-0.248494060487665,2789.53074612843
-0.246265924028772,2789.54074612843
-0.243428012581987,2789.55074612843
-0.240406518786674,2789.56074612843
-0.237276708633357,2789.57074612843
-0.233618017962437,2789.58074612843
-0.23108578750309,2789.59074612843
-0.228123850979446,2789.60074612843
-0.225652763929252,2789.61074612843
-0.223343097004045,2789.62074612843
-0.222306792145067,2789.63074612843
-0.222019106859432,2789.64074612843
-0.222201239874961,2789.65074612843
-0.222744862898866,2789.66074612843
-0.222751034081887,2789.67074612843
-0.22300404120191,2789.68074612843
-0.22257474816376,2789.69074612843
-0.221762520957161,2789.70074612843
-0.221008472643202,2789.71074612843
-0.219870324938693,2789.72074612843
-0.218506299960903,2789.73074612843
-0.217306564743763,2789.74074612843
-0.216217720885675,2789.75074612843
-0.215211233263864,2789.76074612843
-0.214404820329249,2789.77074612843
-0.213285085882209,2789.78074612843
-0.212287624603097,2789.79074612843
-0.210862869250474,2789.80074612843
-0.209347820634133,2789.81074612843
-0.208785304812088,2789.82074612843
-0.208433384837951,2789.83074612843
-0.208946917472641,2789.84074612843
-0.208928077186223,2789.85074612843
-0.209159965951448,2789.86074612843
-0.209411746212339,2789.87074612843
-0.209217290018094,2789.88074612843
-0.209184575034005,2789.89074612843
-0.209468479716563,2789.90074612843
-0.20981348131627,2789.91074612843
-0.210343292111433,2789.92074612843
-0.211045463358318,2789.93074612843
-0.211446437875375,2789.94074612843
-0.211877776436148,2789.95074612843
-0.213108398753625,2789.96074612843
-0.214025340075541,2789.97074612843
-0.21481512510951,2789.98074612843
-0.215443013782707,2789.99074612843
-0.21567504988071,2790.00074612843
-0.215837578278765,2790.01074612843
-0.215340824177244,2790.02074612843
-0.215296094057679,2790.03074612843
-0.215716157047902,2790.04074612843
-0.215761367011463,2790.05074612843
-0.216892871528687,2790.06074612843
-0.217715134489855,2790.07074612843
-0.219273080454148,2790.08074612843
-0.220691104547017,2790.09074612843
-0.221189599037331,2790.10074612843
-0.221749502184463,2790.11074612843
-0.221630813654033,2790.12074612843
-0.221656998584948,2790.13074612843
-0.222132718759863,2790.14074612843
-0.222976492728501,2790.15074612843
-0.223830761451993,2790.16074612843
-0.224601493765683,2790.17074612843
-0.225936464989303,2790.18074612843
-0.226549420872163,2790.19074612843
-0.226657829893093,2790.20074612843
-0.22698789598773,2790.21074612843
-0.227144345951873,2790.22074612843
-0.227156915005572,2790.23074612843
-0.227377186819263,2790.24074612843
-0.227763287511479,2790.25074612843
-0.227978399657786,2790.26074612843
-0.228765390990889,2790.27074612843
-0.228824141656744,2790.28074612843
-0.227917959688926,2790.29074612843
-0.225366108357133,2790.30074612843
-0.221008974902256,2790.31074612843
-0.214392598595971,2790.32074612843
-0.206541566339887,2790.33074612843
-0.197804372489168,2790.34074612843
-0.188697162960974,2790.35074612843
-0.180515503701374,2790.36074612843
-0.173368887294366,2790.37074612843
-0.167857272473213,2790.38074612843
-0.163793330314759,2790.39074612843
-0.161025983337691,2790.40074612843
-0.159451097140563,2790.41074612843
-0.158848014028371,2790.42074612843
-0.158796245006052,2790.43074612843
-0.159240046737449,2790.44074612843
-0.159787333358572,2790.45074612843
-0.160001044493424,2790.46074612843
-0.159860072185792,2790.47074612843
-0.159688550209088,2790.48074612843
-0.159041276706779,2790.49074612843
-0.158102577212002,2790.50074612843
-0.15672356459798,2790.51074612843
-0.155227847727828,2790.52074612843
-0.153544019449245,2790.53074612843
-0.152362789252068,2790.54074612843
-0.151402603326653,2790.55074612843
-0.151605222870585,2790.56074612843
-0.151697077101767,2790.57074612843
-0.152496212898974,2790.58074612843
-0.153252001332097,2790.59074612843
-0.15331866821315,2790.60074612843
-0.152940922113139,2790.61074612843
-0.151884358640091,2790.62074612843
-0.150269974714225,2790.63074612843
-0.148602041449445,2790.64074612843
-0.146694806992205,2790.65074612843
-0.144526566355522,2790.66074612843
-0.14316880744323,2790.67074612843
-0.141898557519209,2790.68074612843
-0.140829949120426,2790.69074612843
-0.139689418383857,2790.70074612843
-0.138756602855706,2790.71074612843
-0.137928817353187,2790.72074612843
-0.136781806602989,2790.73074612843
-0.135583745391329,2790.74074612843
-0.134385201157756,2790.75074612843
-0.133271626203272,2790.76074612843
-0.132767518412072,2790.77074612843
-0.132726783606119,2790.78074612843
-0.133136253239132,2790.79074612843
-0.134023939659236,2790.80074612843
-0.135111748418934,2790.81074612843
-0.135837417918263,2790.82074612843
-0.136517255214188,2790.83074612843
-0.137533521901515,2790.84074612843
-0.138333511187093,2790.85074612843
-0.139046357979045,2790.86074612843
-0.140065796892055,2790.87074612843
-0.141186132680324,2790.88074612843
-0.142618203055405,2790.89074612843
-0.144318168757273,2790.90074612843
-0.145599972141969,2790.91074612843
-0.147030150133469,2790.92074612843
-0.1479217301718,2790.93074612843
-0.148935043962333,2790.94074612843
-0.150213359305883,2790.95074612843
-0.151961355099283,2790.96074612843
-0.153826293773567,2790.97074612843
-0.156340840272899,2790.98074612843
-0.158366748160094,2790.99074612843
-0.160876256013082,2791.00074612843
-0.163258557904757,2791.01074612843
-0.165714275054651,2791.02074612843
-0.167950777706988,2791.03074612843
-0.169955074468918,2791.04074612843
-0.171492593729456,2791.05074612843
-0.172784321835413,2791.06074612843
-0.173925452441493,2791.07074612843
-0.175257460658715,2791.08074612843
-0.176826730452942,2791.09074612843
-0.178631372390791,2791.10074612843
-0.18088941686947,2791.11074612843
-0.183050013792023,2791.12074612843
-0.185363445693101,2791.13074612843
-0.187185143552405,2791.14074612843
-0.188856098236087,2791.15074612843
-0.190256346092256,2791.16074612843
-0.19152833606803,2791.17074612843
-0.193002433524636,2791.18074612843
-0.193949176013839,2791.19074612843
-0.193345931248082,2791.20074612843
-0.190542778779085,2791.21074612843
-0.185116204216504,2791.22074612843
-0.17780605906206,2791.23074612843
-0.169325802933244,2791.24074612843
-0.160372384479868,2791.25074612843
-0.151615838028628,2791.26074612843
-0.143734694928451,2791.27074612843
-0.136916220050703,2791.28074612843
-0.131857341036025,2791.29074612843
-0.128365197352749,2791.30074612843
-0.125124544717516,2791.31074612843
-0.122824071374943,2791.32074612843
-0.120457725756038,2791.33074612843
-0.11743367835637,2791.34074612843
-0.11409667384717,2791.35074612843
-0.110788434878917,2791.36074612843
-0.108107888931744,2791.37074612843
-0.105888510540643,2791.38074612843
-0.104663450104855,2791.39074612843
-0.103434792521005,2791.40074612843
-0.102140846873403,2791.41074612843
-0.10125192589999,2791.42074612843
-0.0999650176433416,2791.43074612843
-0.0995362674708027,2791.44074612843
-0.0998193672063077,2791.45074612843
-0.101246725453439,2791.46074612843
-0.103402955720664,2791.47074612843
-0.105995181006732,2791.48074612843
-0.108532772627626,2791.49074612843
-0.110674867986137,2791.50074612843
-0.112811325936289,2791.51074612843
-0.11452994138017,2791.52074612843
-0.115664188218278,2791.53074612843
-0.116348863331477,2791.54074612843
-0.116578998841894,2791.55074612843
-0.11682701344519,2791.56074612843
-0.117196291990063,2791.57074612843
-0.117493063672806,2791.58074612843
-0.117834550810269,2791.59074612843
-0.117823382157025,2791.60074612843
-0.117875498198619,2791.61074612843
-0.118425615028394,2791.62074612843
-0.119191518636625,2791.63074612843
-0.119906453984791,2791.64074612843
-0.120426936011415,2791.65074612843
-0.120906934987568,2791.66074612843
-0.121664844706143,2791.67074612843
-0.122391277062848,2791.68074612843
-0.123360974992299,2791.69074612843
-0.124255541304092,2791.70074612843
-0.125026137772103,2791.71074612843
-0.126021936649047,2791.72074612843
-0.127187013634811,2791.73074612843
-0.128511973526845,2791.74074612843
-0.129944694840118,2791.75074612843
-0.131939556805471,2791.76074612843
-0.133700228393246,2791.77074612843
-0.135168861587518,2791.78074612843
-0.136688220893194,2791.79074612843
-0.137738923499226,2791.80074612843
-0.138925268507189,2791.81074612843
-0.140114837657866,2791.82074612843
-0.141555938594103,2791.83074612843
-0.143158368106238,2791.84074612843
-0.144328877376375,2791.85074612843
-0.145597158203507,2791.86074612843
-0.146529702467312,2791.87074612843
-0.14678668762736,2791.88074612843
-0.147347907249871,2791.89074612843
-0.147041958831228,2791.90074612843
-0.146570097129575,2791.91074612843
-0.146236538945896,2791.92074612843
-0.14602323441073,2791.93074612843
-0.145718724665155,2791.94074612843
-0.144781247970371,2791.95074612843
-0.143718780865047,2791.96074612843
-0.142162616913365,2791.97074612843
-0.140212828993001,2791.98074612843
-0.13898336328978,2791.99074612843
-0.138088065625032,2792.00074612843
-0.138305834305276,2792.01074612843
-0.138705719277142,2792.02074612843
-0.139254415750248,2792.03074612843
-0.139778095724385,2792.04074612843
-0.140488890617636,2792.05074612843
-0.141284889093925,2792.06074612843
-0.141739815092433,2792.07074612843
-0.142170935742434,2792.08074612843
-0.14247569312288,2792.09074612843
-0.143194159032433,2792.10074612843
-0.144403801502195,2792.11074612843
-0.14587856906718,2792.12074612843
-0.146568356944329,2792.13074612843
-0.14589185812833,2792.14074612843
-0.14315230756905,2792.15074612843
-0.137503357598335,2792.16074612843
-0.129620160516492,2792.17074612843
-0.119793426866326,2792.18074612843
-0.109381844002058,2792.19074612843
-0.0987390894498002,2792.20074612843
-0.0890364030875315,2792.21074612843
-0.0806915440935513,2792.22074612843
-0.0733500654110186,2792.23074612843
-0.0679385880442979,2792.24074612843
-0.0632876623514611,2792.25074612843
-0.0595091232276122,2792.26074612843
-0.0571215093751572,2792.27074612843
-0.0547702183956823,2792.28074612843
-0.0527019330986414,2792.29074612843
-0.0505870470360091,2792.30074612843
-0.049142391080069,2792.31074612843
-0.0473732235639112,2792.32074612843
-0.0456021911923343,2792.33074612843
-0.0432605004068678,2792.34074612843
-0.0402074364796015,2792.35074612843
-0.0363986024672425,2792.36074612843
-0.0320175122326014,2792.37074612843
-0.0275421986266672,2792.38074612843
-0.0232307933539669,2792.39074612843
-0.0200430370003081,2792.40074612843
-0.017714096679555,2792.41074612843
-0.0169416041031433,2792.42074612843
-0.0170328550712915,2792.43074612843
-0.0179172257416034,2792.44074612843
-0.0189277069590042,2792.45074612843
-0.0193966512917639,2792.46074612843
-0.0193865693250731,2792.47074612843
-0.0182986846848347,2792.48074612843
-0.0171806374251654,2792.49074612843
-0.0155877514068848,2792.50074612843
-0.0139259017766038,2792.51074612843
-0.0124730001278858,2792.52074612843
-0.0116296961664343,2792.53074612843
-0.0108086733865059,2792.54074612843
-0.00985756568144166,2792.55074612843
-0.00920307320611998,2792.56074612843
-0.0081945883255861,2792.57074612843
-0.00742507024492728,2792.58074612843
-0.00743221983167915,2792.59074612843
-0.00782496315348493,2792.60074612843
-0.00907779880581778,2792.61074612843
-0.010562004526469,2792.62074612843
-0.0118830113851042,2792.63074612843
-0.0136838276916384,2792.64074612843
-0.0150307069172651,2792.65074612843
-0.0157524014778557,2792.66074612843
-0.0167588327952465,2792.67074612843
-0.0174037799157533,2792.68074612843
-0.018285886614512,2792.69074612843
-0.0190166831542658,2792.70074612843
-0.0204588374884745,2792.71074612843
-0.0220683824732491,2792.72074612843
-0.0240015426849397,2792.73074612843
-0.0262200958063162,2792.74074612843
-0.0278926563052831,2792.75074612843
-0.0302045515585808,2792.76074612843
-0.0324991202752356,2792.77074612843
-0.0345105830766347,2792.78074612843
-0.0368449611612451,2792.79074612843
-0.0390647542440722,2792.80074612843
-0.0411727715649558,2792.81074612843
-0.0433946671355007,2792.82074612843
-0.045775316744958,2792.83074612843
-0.0476188586838105,2792.84074612843
-0.0496552140839403,2792.85074612843
-0.0518608624190242,2792.86074612843
-0.0539974952727371,2792.87074612843
-0.0560118410802008,2792.88074612843
-0.0578824840271357,2792.89074612843
-0.0598382494576325,2792.90074612843
-0.0617147491419121,2792.91074612843
-0.063367883846167,2792.92074612843
-0.0652480312190064,2792.93074612843
-0.0673023395587322,2792.94074612843
-0.0695282700134887,2792.95074612843
-0.0711915987416339,2792.96074612843
-0.0725427988446668,2792.97074612843
-0.0735842532341594,2792.98074612843
-0.0743862802910099,2792.99074612843
-0.0755541800544035,2793.00074612843
-0.0766034881739808,2793.01074612843
-0.0776514366339581,2793.02074612843
-0.0785576757839374,2793.03074612843
-0.0793440870779931,2793.04074612843
-0.0804516462688458,2793.05074612843
-0.0813418622526552,2793.06074612843
-0.0829199842136196,2793.07074612843
-0.0846889911674095,2793.08074612843
-0.0869102916624035,2793.09074612843
-0.089541986588161,2793.10074612843
-0.0916076147773025,2793.11074612843
-0.0931451286814996,2793.12074612843
-0.0933224550082536,2793.13074612843
-0.0911788063567276,2793.14074612843
-0.0862087820002349,2793.15074612843
-0.0784410242466187,2793.16074612843
-0.0687655410149091,2793.17074612843
-0.0574822715361497,2793.18074612843
-0.0457868541443671,2793.19074612843
-0.034584945833976,2793.20074612843
-0.0245751524571904,2793.21074612843
-0.016054724374259,2793.22074612843
-0.00923274001567291,2793.23074612843
-0.00404381972817599,2793.24074612843
-9.73226008286216e-06,2793.25074612843
0.00279303307942394,2793.26074612843
0.00425653958609058,2793.27074612843
0.00536220587567694,2793.28074612843
0.0061884496224011,2793.29074612843
0.00688205586562571,2793.30074612843
0.00752583756248963,2793.31074612843
0.00854393401642221,2793.32074612843
0.009289053358502,2793.33074612843
0.0104746960670256,2793.34074612843
0.0118666807929356,2793.35074612843
0.0131507982790921,2793.36074612843
0.0154545070259791,2793.37074612843
0.0177804012184187,2793.38074612843
0.0206549696027119,2793.39074612843
0.0217434273200323,2793.40074612843
0.0217649236423854,2793.41074612843
0.0208340055384529,2793.42074612843
0.0186491979056534,2793.43074612843
0.0159753542080184,2793.44074612843
0.0131038436270178,2793.45074612843
0.0106663653103689,2793.46074612843
0.00856975933764544,2793.47074612843
0.00691912165677273,2793.48074612843
0.00608632381826684,2793.49074612843
0.00533347114419005,2793.50074612843
0.00456167367726268,2793.51074612843
0.00417677159120939,2793.52074612843
0.00365975274030155,2793.53074612843
0.00361923694531161,2793.54074612843
0.00357218160540732,2793.55074612843
0.00366866586377592,2793.56074612843
0.00366237601423038,2793.57074612843
0.0033713191893075,2793.58074612843
0.00279619781248324,2793.59074612843
0.0020760099222917,2793.60074612843
0.000838547286574299,2793.61074612843
-0.000609712169997318,2793.62074612843
-0.00217769465489459,2793.63074612843
-0.00325438693843529,2793.64074612843
-0.00449389947362255,2793.65074612843
-0.00558926709454987,2793.66074612843
-0.00601567207192848,2793.67074612843
-0.00631857528254641,2793.68074612843
-0.00730224643872094,2793.69074612843
-0.00836632794372081,2793.70074612843
-0.00940952602244771,2793.71074612843
-0.0100240930402094,2793.72074612843
-0.0110230979194436,2793.73074612843
-0.0119695534894826,2793.74074612843
-0.0128106164614311,2793.75074612843
-0.013763842312101,2793.76074612843
-0.0145010918430877,2793.77074612843
-0.0150134858402649,2793.78074612843
-0.0157024097159706,2793.79074612843
-0.0169696884285329,2793.80074612843
-0.0182104901692556,2793.81074612843
-0.0201777756995429,2793.82074612843
-0.0217201704859421,2793.83074612843
-0.0229291575240607,2793.84074612843
-0.0236794587673705,2793.85074612843
-0.0245127269163395,2793.86074612843
-0.0262532237434785,2793.87074612843
-0.0283927029606885,2793.88074612843
-0.0316576381677531,2793.89074612843
-0.035083744279733,2793.90074612843
-0.0381624304551004,2793.91074612843
-0.0413208891343428,2793.92074612843
-0.044040687590606,2793.93074612843
-0.0469269106901379,2793.94074612843
-0.0494034032389199,2793.95074612843
-0.0516458598494301,2793.96074612843
-0.0541507084358508,2793.97074612843
-0.0564035998046334,2793.98074612843
-0.0591086388450024,2793.99074612843
-0.0616050502142586,2794.00074612843
-0.0644097318281006,2794.01074612843
-0.0669558654560077,2794.02074612843
-0.0697814794257445,2794.03074612843
-0.0714940455462768,2794.04074612843
-0.0726270557356105,2794.05074612843
-0.0732906423850494,2794.06074612843
-0.0733017114154497,2794.07074612843
-0.0735127486177382,2794.08074612843
-0.0726859325886872,2794.09074612843
-0.0706177851907382,2794.10074612843
-0.0661514227275863,2794.11074612843
-0.0594468728419013,2794.12074612843
-0.0498213008311138,2794.13074612843
-0.0379142007502577,2794.14074612843
-0.0246548882106954,2794.15074612843
-0.0113280734650241,2794.16074612843
0.00177860115653064,2794.17074612843
0.0136119194098548,2794.18074612843
0.0239926535067337,2794.19074612843
0.0327895230806175,2794.20074612843
0.0402142935412238,2794.21074612843
0.045800293241471,2794.22074612843
0.0506798785065869,2794.23074612843
0.0542571685376027,2794.24074612843
0.0572561645885896,2794.25074612843
0.060571941407088,2794.26074612843
0.0634737791346481,2794.27074612843
0.0659914197736464,2794.28074612843
0.0692115854317885,2794.29074612843
0.0726267585900178,2794.30074612843
0.0760414842622207,2794.31074612843
0.0803771576043758,2794.32074612843
0.0845045511555667,2794.33074612843
0.0890838606888138,2794.34074612843
0.0935285668386737,2794.35074612843
0.097410605657289,2794.36074612843
0.100985074547074,2794.37074612843
0.10339072706656,2794.38074612843
0.104733232300419,2794.39074612843
0.105394442439385,2794.40074612843
0.105746611997643,2794.41074612843
0.10565564062353,2794.42074612843
0.106002128130043,2794.43074612843
0.106561664374811,2794.44074612843
0.107547506301645,2794.45074612843
0.108742070400338,2794.46074612843
0.11049287079053,2794.47074612843
0.113044266132998,2794.48074612843
0.11535787503964,2794.49074612843
0.117591223311474,2794.50074612843
0.120170329946396,2794.51074612843
0.122479363192505,2794.52074612843
0.124360726648094,2794.53074612843
0.125939584537847,2794.54074612843
0.127555242590479,2794.55074612843
0.128032362126459,2794.56074612843
0.128576330439399,2794.57074612843
0.128439714202248,2794.58074612843
0.127772291642761,2794.59074612843
0.126635295628887,2794.60074612843
0.124900809134848,2794.61074612843
0.123533024374034,2794.62074612843
0.121580043172496,2794.63074612843
0.119979231171024,2794.64074612843
0.118170267023196,2794.65074612843
0.116008971394701,2794.66074612843
0.114278795164545,2794.67074612843
0.112080208331581,2794.68074612843
0.110293389645945,2794.69074612843
0.108516778886036,2794.70074612843
0.106806615627589,2794.71074612843
0.105063533529421,2794.72074612843
0.103384163357506,2794.73074612843
0.10172340808945,2794.74074612843
0.100702382145384,2794.75074612843
0.0988836104672335,2794.76074612843
0.096887161985979,2794.77074612843
0.0950712077375915,2794.78074612843
0.0932611016108638,2794.79074612843
0.0917877906286899,2794.80074612843
0.0905672450383435,2794.81074612843
0.0889378298512428,2794.82074612843
0.0879063935381748,2794.83074612843
0.0868671479100126,2794.84074612843
0.0857080518123465,2794.85074612843
0.0846205313898523,2794.86074612843
0.0831493740470702,2794.87074612843
0.0813140750372332,2794.88074612843
0.0797925825612662,2794.89074612843
0.0774396190753615,2794.90074612843
0.0750403065498424,2794.91074612843
0.0724737410128328,2794.92074612843
0.0698998555234514,2794.93074612843
0.0673974837177574,2794.94074612843
0.0646540945985171,2794.95074612843
0.0621858275224472,2794.96074612843
0.0593678042192399,2794.97074612843
0.056597742043723,2794.98074612843
0.054038401643525,2794.99074612843
0.0515102395372937,2795.00074612843
0.0489275135188449,2795.01074612843
0.0465776069480132,2795.02074612843
0.044020062806064,2795.03074612843
0.0418457731497708,2795.04074612843
0.0391886878247593,2795.05074612843
0.0357397907237689,2795.06074612843
0.0324478925970456,2795.07074612843
0.0287553789401379,2795.08074612843
0.0254650795904837,2795.09074612843
0.0243624832542924,2795.10074612843
0.0259398870377996,2795.11074612843
0.0308226031805695,2795.12074612843
0.039170108412383,2795.13074612843
0.0501255382774951,2795.14074612843
0.0627365819732019,2795.15074612843
0.075376812154773,2795.16074612843
0.0869380636771212,2795.17074612843
0.0980616007871537,2795.18074612843
0.107454764952664,2795.19074612843
0.115333604034957,2795.20074612843
0.12178685398641,2795.21074612843
0.126457746317952,2795.22074612843
0.130104016719574,2795.23074612843
0.132422166878131,2795.24074612843
0.13377859329194,2795.25074612843
0.134347981293115,2795.26074612843
0.134196697629384,2795.27074612843
0.13432671122395,2795.28074612843
0.134616616998341,2795.29074612843
0.135559323953488,2795.30074612843
0.137284830591232,2795.31074612843
0.139571011706626,2795.32074612843
0.142553299126278,2795.33074612843
0.14634753429629,2795.34074612843
0.149949712659673,2795.35074612843
0.153404575229576,2795.36074612843
0.155540718683544,2795.37074612843
0.156886386384997,2795.38074612843
0.157076564764035,2795.39074612843
0.156384910118054,2795.40074612843
0.155567081988106,2795.41074612843
0.154893542412236,2795.42074612843
0.154429593853959,2795.43074612843
0.154055904038413,2795.44074612843
0.154162119357818,2795.45074612843
0.15462065887863,2795.46074612843
0.155318817987988,2795.47074612843
0.156180148755638,2795.48074612843
0.157408254615957,2795.49074612843
0.158613184193116,2795.50074612843
0.159399381486457,2795.51074612843
0.160484321370999,2795.52074612843
0.161510938921075,2795.53074612843
0.162068401878841,2795.54074612843
0.162478125751143,2795.55074612843
0.161877582106118,2795.56074612843
0.160958229787648,2795.57074612843
0.159479710888194,2795.58074612843
0.158004273351924,2795.59074612843
0.156395072230991,2795.60074612843
0.155327523631962,2795.61074612843
0.153992802554497,2795.62074612843
0.152880209723227,2795.63074612843
0.151528944499096,2795.64074612843
0.150285289745615,2795.65074612843
0.149120123509397,2795.66074612843
0.147856516020071,2795.67074612843
0.146549439484723,2795.68074612843
0.144416007433014,2795.69074612843
0.14243513606545,2795.70074612843
0.139464234987252,2795.71074612843
0.136857585092453,2795.72074612843
0.134608922108291,2795.73074612843
0.131999772707461,2795.74074612843
0.129539201181338,2795.75074612843
0.128305630180099,2795.76074612843
0.126522530564447,2795.77074612843
0.125071778309439,2795.78074612843
0.123976512125423,2795.79074612843
0.122303898979202,2795.80074612843
0.120678334220806,2795.81074612843
0.118628367626793,2795.82074612843
0.116638713462655,2795.83074612843
0.114966170209909,2795.84074612843
0.112949035335156,2795.85074612843
0.110818342883484,2795.86074612843
0.108428690500853,2795.87074612843
0.105551095228949,2795.88074612843
0.102578927071459,2795.89074612843
0.0999937283479489,2795.90074612843
0.0976368900607083,2795.91074612843
0.0957312979811174,2795.92074612843
0.0940765048817089,2795.93074612843
0.092265506846839,2795.94074612843
0.0894538307065116,2795.95074612843
0.0870070850739691,2795.96074612843
0.0843257588690798,2795.97074612843
0.0816506148414582,2795.98074612843
0.0788552049779923,2795.99074612843
0.0759969428831248,2796.00074612843
0.073139601567968,2796.01074612843
0.0698251980434193,2796.02074612843
0.0663993964669575,2796.03074612843
0.0625192852797222,2796.04074612843
0.058500508869151,2796.05074612843
0.0549615456490569,2796.06074612843
0.0514334202408647,2796.07074612843
0.0484464513741228,2796.08074612843
0.0454366858497308,2796.09074612843
0.0420864197317278,2796.10074612843
0.0388437278741358,2796.11074612843
0.0354829504209658,2796.12074612843
0.0323011580264125,2796.13074612843
0.0292452739762246,2796.14074612843
0.028286989525986,2796.15074612843
0.0298981247457539,2796.16074612843
0.0357738082027597,2796.17074612843
0.0448261747088587,2796.18074612843
0.0561687236671947,2796.19074612843
0.0688274236369065,2796.20074612843
0.0812627476875285,2796.21074612843
0.0929215866179878,2796.22074612843
0.103656986277105,2796.23074612843
0.112469638488796,2796.24074612843
0.120009454414624,2796.25074612843
0.126757376185437,2796.26074612843
0.131682666234043,2796.27074612843
0.136320583052415,2796.28074612843
0.139420887521096,2796.29074612843
0.141753323487941,2796.30074612843
0.14317128087746,2796.31074612843
0.143886145314015,2796.32074612843
0.14487081668552,2796.33074612843
0.145884056002553,2796.34074612843
0.147377578073635,2796.35074612843
0.149357739991728,2796.36074612843
0.151518379930401,2796.37074612843
0.153849245508124,2796.38074612843
0.156371328116989,2796.39074612843
0.158686762022801,2796.40074612843
0.161165545891233,2796.41074612843
0.162800946867297,2796.42074612843
0.165023494130136,2796.43074612843
0.166990939305165,2796.44074612843
0.169254356994843,2796.45074612843
0.17047654359701,2796.46074612843
0.171032950479702,2796.47074612843
0.169896840622926,2796.48074612843
0.167124184376668,2796.49074612843
0.162100317427951,2796.50074612843
0.155577848176935,2796.51074612843
0.148576834421842,2796.52074612843
0.141689730432046,2796.53074612843
0.135596250904869,2796.54074612843
0.130520036657209,2796.55074612843
0.125200519496526,2796.56074612843
0.120493976946839,2796.57074612843
0.115325239629,2796.58074612843
0.110546649892015,2796.59074612843
0.104817634293084,2796.60074612843
0.0988006771682917,2796.61074612843
0.0927714833224181,2796.62074612843
0.0867485989503525,2796.63074612843
0.0807602843550457,2796.64074612843
0.0749321477549866,2796.65074612843
0.0688072743006535,2796.66074612843
0.0629068616196919,2796.67074612843
0.0568145319303583,2796.68074612843
0.0510630103896505,2796.69074612843
0.0453543849354618,2796.70074612843
0.0402878696154535,2796.71074612843
0.0354056236222811,2796.72074612843
0.0307004226172527,2796.73074612843
0.0266990577972352,2796.74074612843
0.0235559612859044,2796.75074612843
0.0217128777306581,2796.76074612843
0.0212014447434292,2796.77074612843
0.0214623369317435,2796.78074612843
0.0223748362909395,2796.79074612843
0.0227332420959884,2796.80074612843
0.0226069963377615,2796.81074612843
0.022121973692739,2796.82074612843
0.0214124729143401,2796.83074612843
0.0207621725137109,2796.84074612843
0.0201030806825966,2796.85074612843
0.0191874620914853,2796.86074612843
0.0179503511716808,2796.87074612843
0.0163782683599215,2796.88074612843
0.0141818325343912,2796.89074612843
0.0117555286878624,2796.90074612843
0.00914032017588537,2796.91074612843
0.00649469524041244,2796.92074612843
0.00392549615851988,2796.93074612843
0.00121266329085513,2796.94074612843
-0.00141026711917046,2796.95074612843
-0.00428521777366973,2796.96074612843
-0.00708621288366693,2796.97074612843
-0.00969628027167207,2796.98074612843
-0.0121164809376031,2796.99074612843
-0.0142194277996194,2797.00074612843
-0.0168597205420651,2797.01074612843
-0.0194854326508289,2797.02074612843
-0.0222336786226228,2797.03074612843
-0.0245887744492068,2797.04074612843
-0.0268562302681686,2797.05074612843
-0.0288844173357098,2797.06074612843
-0.0308248530297098,2797.07074612843
-0.0326372634211197,2797.08074612843
-0.0344259784950115,2797.09074612843
-0.0358368397238631,2797.10074612843
-0.0371265348208142,2797.11074612843
-0.0384529322110958,2797.12074612843
-0.0398087015485553,2797.13074612843
-0.040967346963985,2797.14074612843
-0.0421081601109683,2797.15074612843
-0.0434746846257695,2797.16074612843
-0.0455348737799172,2797.17074612843
-0.0473906024883651,2797.18074612843
-0.0485578887408543,2797.19074612843
-0.0485765673734008,2797.20074612843
-0.0462042842799021,2797.21074612843
-0.0399521855997933,2797.22074612843
-0.0296424988067557,2797.23074612843
-0.0161770303423882,2797.24074612843
-0.00141785716580624,2797.25074612843
0.0132137866899315,2797.26074612843
0.0268369189033923,2797.27074612843
0.0393582466974153,2797.28074612843
0.0499705582821228,2797.29074612843
0.0592100034545652,2797.30074612843
0.0669081138803708,2797.31074612843
0.073125614364664,2797.32074612843
0.0785050739557224,2797.33074612843
0.0820449963750194,2797.34074612843
0.0847262770587332,2797.35074612843
0.086740602600665,2797.36074612843
0.0886287919890671,2797.37074612843
0.0898439045348889,2797.38074612843
0.0912913729517009,2797.39074612843
0.0923373687637961,2797.40074612843
0.0933604155224781,2797.41074612843
0.0944384016888347,2797.42074612843
0.0955830730097254,2797.43074612843
0.0970283193131274,2797.44074612843
0.0985454664233333,2797.45074612843
0.0993311396959076,2797.46074612843
0.0995771203922169,2797.47074612843
0.099227230654012,2797.48074612843
0.0973981297477019,2797.49074612843
0.0950340747342159,2797.50074612843
0.091819654755474,2797.51074612843
0.0885452416224813,2797.52074612843
0.0858608068354864,2797.53074612843
0.0840295784046944,2797.54074612843
0.0826713605985305,2797.55074612843
0.0816496440209687,2797.56074612843
0.0815110354892713,2797.57074612843
0.0813063292606721,2797.58074612843
0.0817186645691333,2797.59074612843
0.0824937422729517,2797.60074612843
0.0833376445268307,2797.61074612843
0.0842631304919145,2797.62074612843
0.0850510310680581,2797.63074612843
0.0851955618140299,2797.64074612843
0.0846712183342342,2797.65074612843
0.0838261294105265,2797.66074612843
0.0829235509707593,2797.67074612843
0.0816656710534326,2797.68074612843
0.0804271238635471,2797.69074612843
0.0793125684593298,2797.70074612843
0.077901152474863,2797.71074612843
0.0768388950751958,2797.72074612843
0.0757268274666309,2797.73074612843
0.0748419716115384,2797.74074612843
0.0735427649092026,2797.75074612843
0.0717838739672092,2797.76074612843
0.0695390723207489,2797.77074612843
0.0670764272269415,2797.78074612843
0.0646939716102182,2797.79074612843
0.0618710527270817,2797.80074612843
0.0591573059227579,2797.81074612843
0.0567227352701976,2797.82074612843
0.0544600170411399,2797.83074612843
0.0514806800275182,2797.84074612843
0.0481546918991572,2797.85074612843
0.0446298995406576,2797.86074612843
0.0414173354616821,2797.87074612843
0.0387771020914656,2797.88074612843
0.0363359016949647,2797.89074612843
0.0339250410199425,2797.90074612843
0.0317118607930851,2797.91074612843
0.0292050665614617,2797.92074612843
0.0264803618050171,2797.93074612843
0.0231535758362887,2797.94074612843
0.0197454552129486,2797.95074612843
0.0158840511013906,2797.96074612843
0.0118862675917087,2797.97074612843
0.00820374084335971,2797.98074612843
0.00502930515321636,2797.99074612843
0.00162435979384319,2798.00074612843
-0.000984815344512094,2798.01074612843
-0.00335125506976115,2798.02074612843
-0.00553071013621518,2798.03074612843
-0.00742363502377818,2798.04074612843
-0.0100421635171267,2798.05074612843
-0.0128443825075658,2798.06074612843
-0.0158656584722689,2798.07074612843
-0.019341111378917,2798.08074612843
-0.0224362025295046,2798.09074612843
-0.025155569958923,2798.10074612843
-0.0274266418291665,2798.11074612843
-0.0291195311861612,2798.12074612843
-0.0309266738001939,2798.13074612843
-0.032208792636987,2798.14074612843
-0.0336923126314777,2798.15074612843
-0.0353388844672154,2798.16074612843
-0.0367687044345736,2798.17074612843
-0.0385833966589674,2798.18074612843
-0.0407417665120299,2798.19074612843
-0.0430616469348466,2798.20074612843
-0.0455091957579512,2798.21074612843
-0.0476033731041934,2798.22074612843
-0.0500168155417897,2798.23074612843
-0.0513937171774712,2798.24074612843
-0.0527888866175793,2798.25074612843
-0.0533957975821728,2798.26074612843
-0.0518806667860233,2798.27074612843
-0.047182366062725,2798.28074612843
-0.0385823269521784,2798.29074612843
-0.0268617099985628,2798.30074612843
-0.0128672703584742,2798.31074612843
0.00207205103267617,2798.32074612843
0.0161956205876418,2798.33074612843
0.0296899140557023,2798.34074612843
0.0421700810374155,2798.35074612843
0.0530271468240327,2798.36074612843
0.0626537712403064,2798.37074612843
0.0702485198112051,2798.38074612843
0.0760792833541116,2798.39074612843
0.0801972075157286,2798.40074612843
0.0824286987443827,2798.41074612843
0.0842126481238494,2798.42074612843
0.0850416445903469,2798.43074612843
0.0859040821517929,2798.44074612843
0.0868006917377644,2798.45074612843
0.08787802090019,2798.46074612843
0.0892178376748452,2798.47074612843
0.0915921884615904,2798.48074612843
0.0937935060833884,2798.49074612843
0.0962935484509966,2798.50074612843
0.0993610383351854,2798.51074612843
0.10228374552968,2798.52074612843
0.105298715993171,2798.53074612843
0.107770764045521,2798.54074612843
0.109072821372667,2798.55074612843
0.109641004763204,2798.56074612843
0.109484896277828,2798.57074612843
0.109143041403599,2798.58074612843
0.109065432842899,2798.59074612843
0.10940311113299,2798.60074612843
0.109852330990011,2798.61074612843
0.110189219012155,2798.62074612843
0.111184365875724,2798.63074612843
0.111941450057124,2798.64074612843
0.112585666372678,2798.65074612843
0.11336056846091,2798.66074612843
0.114110047913179,2798.67074612843
0.114814229785785,2798.68074612843
0.115801900934392,2798.69074612843
0.116786850719456,2798.70074612843
0.117705824557397,2798.71074612843
0.117592871951651,2798.72074612843
0.117230919492446,2798.73074612843
0.116343887584355,2798.74074612843
0.114947859663177,2798.75074612843
0.113390178272622,2798.76074612843
0.111311011511929,2798.77074612843
0.108986624849123,2798.78074612843
0.106570568854953,2798.79074612843
0.104156607660307,2798.80074612843
0.102098926526329,2798.81074612843
0.100102114276226,2798.82074612843
0.0989094168075753,2798.83074612843
0.0967556269404909,2798.84074612843
0.0945938858641812,2798.85074612843
0.0922412614260834,2798.86074612843
0.0896028755178482,2798.87074612843
0.0868415883303391,2798.88074612843
0.0841066193747055,2798.89074612843
0.081730010605014,2798.90074612843
0.079678531544116,2798.91074612843
0.0777089790805184,2798.92074612843
0.0754002748321663,2798.93074612843
0.0727575284904178,2798.94074612843
0.0705930832637097,2798.95074612843
0.0681521834558211,2798.96074612843
0.0653114245930336,2798.97074612843
0.0625121877434438,2798.98074612843
0.0597266951103974,2798.99074612843
0.0572993276969401,2799.00074612843
0.0546384621862689,2799.01074612843
0.0520949523275526,2799.02074612843
0.0489809301209484,2799.03074612843
0.0459851843212125,2799.04074612843
0.0431322427516621,2799.05074612843
0.0405324694244788,2799.06074612843
0.0377261808577237,2799.07074612843
0.0349547666731289,2799.08074612843
0.0319200218910203,2799.09074612843
0.0291314697332693,2799.10074612843
0.0263552535644877,2799.11074612843
0.0231161394908901,2799.12074612843
0.0199903071691412,2799.13074612843
0.0168641126516054,2799.14074612843
0.0137819046393569,2799.15074612843
0.0106142817138718,2799.16074612843
0.00777011311251281,2799.17074612843
0.0052094921967697,2799.18074612843
0.00260826261157403,2799.19074612843
-0.000138421672048967,2799.20074612843
-0.00271868611477033,2799.21074612843
-0.00523234610709345,2799.22074612843
-0.00816197484055255,2799.23074612843
-0.0110441137428678,2799.24074612843
-0.0138243825849458,2799.25074612843
-0.0161908207871508,2799.26074612843
-0.0180887664548381,2799.27074612843
-0.0194096532283809,2799.28074612843
-0.0191420303607396,2799.29074612843
-0.0156903343052516,2799.30074612843
-0.0081670469280289,2799.31074612843
0.00314517887791154,2799.32074612843
0.0170619227507714,2799.33074612843
0.0312800573271706,2799.34074612843
0.0454210624741091,2799.35074612843
0.0579330997967525,2799.36074612843
0.0680269958737572,2799.37074612843
0.0765606209516329,2799.38074612843
0.0831753574598109,2799.39074612843
0.0880794612470288,2799.40074612843
0.0918045458734498,2799.41074612843
0.0937846572942802,2799.42074612843
0.0948055997267486,2799.43074612843
0.0951312181854733,2799.44074612843
0.0950790662220953,2799.45074612843
0.0951063530969285,2799.46074612843
0.0948519584382519,2799.47074612843
0.094680153497916,2799.48074612843
0.0953501415460573,2799.49074612843
0.0963223333262153,2799.50074612843
0.098521094939767,2799.51074612843
0.100349817008909,2799.52074612843
0.102344258476078,2799.53074612843
0.103812217545422,2799.54074612843
0.104299895350699,2799.55074612843
0.103861049151598,2799.56074612843
0.10282639508365,2799.57074612843
0.101684018051609,2799.58074612843
0.100627850531715,2799.59074612843
0.0993861202430573,2799.60074612843
0.0988346250700389,2799.61074612843
0.0986080642818542,2799.62074612843
0.098483227675121,2799.63074612843
0.0984668766292206,2799.64074612843
0.0985321447798889,2799.65074612843
0.0986827583416787,2799.66074612843
0.0994521220351774,2799.67074612843
0.100418472681909,2799.68074612843
0.100968247093117,2799.69074612843
0.100892023243527,2799.70074612843
0.100473506230457,2799.71074612843
0.0996787356801292,2799.72074612843
0.0985819004248808,2799.73074612843
0.0972068235042786,2799.74074612843
0.0961352624619265,2799.75074612843
0.0948672178272371,2799.76074612843
0.0933468730662157,2799.77074612843
0.0910402879996009,2799.78074612843
0.0889348438697189,2799.79074612843
0.0863782132335503,2799.80074612843
0.08371970704025,2799.81074612843
0.0806848076983874,2799.82074612843
0.0773165317146626,2799.83074612843
0.0739615711248558,2799.84074612843
0.070421544921382,2799.85074612843
0.0671581497947513,2799.86074612843
0.0643206309382977,2799.87074612843
0.0616939816208568,2799.88074612843
0.0589682118771759,2799.89074612843
0.0562274463242855,2799.90074612843
0.053328287656123,2799.91074612843
0.0498891252812394,2799.92074612843
0.0467989039985809,2799.93074612843
0.0438932384631716,2799.94074612843
0.0411933952263768,2799.95074612843
0.0391922164980744,2799.96074612843
0.0370433357642015,2799.97074612843
0.0346334126880294,2799.98074612843
0.0319460832111218,2799.99074612843
0.0291410464147073,2800.00074612843
0.0264721775477287,2800.01074612843
0.0241456519210977,2800.02074612843
0.0219404842133091,2800.03074612843
0.0204315785521345,2800.04074612843
0.0188452964192518,2800.05074612843
0.0164382402295265,2800.06074612843
0.0141719180040645,2800.07074612843
0.0113045585373863,2800.08074612843
0.007997317402091,2800.09074612843
0.00483440482281271,2800.10074612843
0.00142424004620212,2800.11074612843
-0.00162282978874476,2800.12074612843
-0.0036948695404212,2800.13074612843
-0.00611710718224734,2800.14074612843
-0.00794221624967036,2800.15074612843
-0.0101314061520425,2800.16074612843
-0.0118534857851387,2800.17074612843
-0.0138709553282461,2800.18074612843
-0.0162973390344027,2800.19074612843
-0.018425305764863,2800.20074612843
-0.0204728279931213,2800.21074612843
-0.021994316694765,2800.22074612843
-0.0221510964095832,2800.23074612843
-0.0199753220760496,2800.24074612843
-0.0138158164813013,2800.25074612843
-0.0036889542437752,2800.26074612843
0.00990730032747026,2800.27074612843
0.0252224842365158,2800.28074612843
0.0409252040296477,2800.29074612843
0.0555080384125686,2800.30074612843
0.0684073133684211,2800.31074612843
0.0800243094546517,2800.32074612843
0.0893573664954076,2800.33074612843
0.0971416965856355,2800.34074612843
0.103125514703142,2800.35074612843
0.107224848960776,2800.36074612843
0.11007663476605,2800.37074612843
0.112304828843484,2800.38074612843
0.114181355168907,2800.39074612843
0.115053547354152,2800.40074612843
0.116067894890652,2800.41074612843
0.117234835424892,2800.42074612843
0.118798912698495,2800.43074612843
0.120796712853675,2800.44074612843
0.123124919440863,2800.45074612843
0.125163088020377,2800.46074612843
0.127601154804055,2800.47074612843
0.130021593159823,2800.48074612843
0.132428448322924,2800.49074612843
0.13420702036687,2800.50074612843
0.135485315675874,2800.51074612843
0.135709364252575,2800.52074612843
0.13551263560942,2800.53074612843
0.134535139704269,2800.54074612843
0.133187057886575,2800.55074612843
0.131445368338211,2800.56074612843
0.129847457349358,2800.57074612843
0.128896014356007,2800.58074612843
0.128366320531983,2800.59074612843
0.128108518855556,2800.60074612843
0.128561406241684,2800.61074612843
0.129159412406903,2800.62074612843
0.129598151927837,2800.63074612843
0.12990955496808,2800.64074612843
0.130017336583601,2800.65074612843
0.130015778336833,2800.66074612843
0.12965441280964,2800.67074612843
0.128830060052792,2800.68074612843
0.127897582297257,2800.69074612843
0.126359091911571,2800.70074612843
0.124316610505052,2800.71074612843
0.121989768207988,2800.72074612843
0.119558466827622,2800.73074612843
0.117144565942368,2800.74074612843
0.114784088954743,2800.75074612843
0.112489809358711,2800.76074612843
0.109601228128393,2800.77074612843
0.106700340753033,2800.78074612843
0.103172834367355,2800.79074612843
0.0999782074511779,2800.80074612843
0.0964985567524308,2800.81074612843
0.0934105983615606,2800.82074612843
0.0904151756537777,2800.83074612843
0.0873335215414565,2800.84074612843
0.0836807796920808,2800.85074612843
0.0801165179376115,2800.86074612843
0.0764305888694271,2800.87074612843
0.0724218054968073,2800.88074612843
0.0690796240228908,2800.89074612843
0.065539227718563,2800.90074612843
0.0622713719985715,2800.91074612843
0.0587058738929155,2800.92074612843
0.0548683426038376,2800.93074612843
0.0512362338139353,2800.94074612843
0.0477841841449049,2800.95074612843
0.0445160793721475,2800.96074612843
0.0411554604949612,2800.97074612843
0.03795662733544,2800.98074612843
0.034897569292203,2800.99074612843
0.0320950377886931,2801.00074612843
0.0297341155445783,2801.01074612843
0.0270436059648396,2801.02074612843
0.0245147666620857,2801.03074612843
0.0216361987071285,2801.04074612843
0.0187376969247988,2801.05074612843
0.0151784371315377,2801.06074612843
0.0119971794910037,2801.07074612843
0.00812866045680783,2801.08074612843
0.00452984486493413,2801.09074612843
0.000663949422793365,2801.10074612843
-0.00382998628184633,2801.11074612843
-0.00800574868647702,2801.12074612843
-0.0116833193618484,2801.13074612843
-0.0146715068895612,2801.14074612843
-0.0172221528206741,2801.15074612843
-0.0198384170932675,2801.16074612843
-0.0221161776895683,2801.17074612843
-0.0244968997415432,2801.18074612843
-0.0271105900930617,2801.19074612843
-0.0296177031764332,2801.20074612843
-0.0326851880791659,2801.21074612843
-0.0354625129766632,2801.22074612843
-0.0379642823406575,2801.23074612843
-0.0382628611757657,2801.24074612843
-0.0357034569685057,2801.25074612843
-0.0287046169352112,2801.26074612843
-0.0176022457611132,2801.27074612843
-0.00352266836344166,2801.28074612843
0.0119257879878884,2801.29074612843
0.0270325245760935,2801.30074612843
0.0411486898281837,2801.31074612843
0.0539119744048394,2801.32074612843
0.0655029101634192,2801.33074612843
0.0758794461056955,2801.34074612843
0.0843377548782493,2801.35074612843
0.0913539450730266,2801.36074612843
0.0965824802121049,2801.37074612843
0.10053212178597,2801.38074612843
0.103264938904593,2801.39074612843
0.105177239148167,2801.40074612843
0.106913684660529,2801.41074612843
0.108398426733869,2801.42074612843
0.109398342215614,2801.43074612843
0.110537543244282,2801.44074612843
0.112303291440127,2801.45074612843
0.113959640118334,2801.46074612843
0.115990444607773,2801.47074612843
0.119150959904303,2801.48074612843
0.122194718344161,2801.49074612843
0.125469886913985,2801.50074612843
0.128136309170923,2801.51074612843
0.130272360964023,2801.52074612843
0.131039161013317,2801.53074612843
0.130949049011741,2801.54074612843
0.130398208380769,2801.55074612843
0.129318164911137,2801.56074612843
0.128431631911846,2801.57074612843
0.127647108043826,2801.58074612843
0.126802742212668,2801.59074612843
0.126071293695927,2801.60074612843
0.124788222609297,2801.61074612843
0.123327240825672,2801.62074612843
0.122410810112681,2801.63074612843
0.121827941222853,2801.64074612843
0.12162510860206,2801.65074612843
0.122030562691513,2801.66074612843
0.122284019510081,2801.67074612843
0.122896729127166,2801.68074612843
0.123162171721722,2801.69074612843
0.123686652027375,2801.70074612843
0.124023780351009,2801.71074612843
0.123816317877558,2801.72074612843
0.122903423805225,2801.73074612843
0.120648463094046,2801.74074612843
0.118282420228031,2801.75074612843
0.115846599995412,2801.76074612843
0.112922327762299,2801.77074612843
0.110499158873498,2801.78074612843
0.107839889871282,2801.79074612843
0.10552517133856,2801.80074612843
0.103517422490191,2801.81074612843
0.101248429328181,2801.82074612843
0.0983488680598038,2801.83074612843
0.0950990228445493,2801.84074612843
0.0917763356059788,2801.85074612843
0.0883076106257699,2801.86074612843
0.0853238653652675,2801.87074612843
0.0822423763828651,2801.88074612843
0.079930160295957,2801.89074612843
0.0776205526422114,2801.90074612843
0.0754085249817614,2801.91074612843
0.0734426958466695,2801.92074612843
0.0711187049782988,2801.93074612843
0.0689036824236771,2801.94074612843
0.0665398494103474,2801.95074612843
0.063976684451701,2801.96074612843
0.0619382181598518,2801.97074612843
0.0598209742200521,2801.98074612843
0.0577034608228921,2801.99074612843
0.0553794206061178,2802.00074612843
0.0529939943659588,2802.01074612843
0.050214011436361,2802.02074612843
0.0471268972855947,2802.03074612843
0.0439144187114149,2802.04074612843
0.0413075343827175,2802.05074612843
0.0385684986566227,2802.06074612843
0.0353770147184172,2802.07074612843
0.0327415761290864,2802.08074612843
0.030057656901519,2802.09074612843
0.0272641635895033,2802.10074612843
0.0250499180036061,2802.11074612843
0.0219875780577136,2802.12074612843
0.0186403048766841,2802.13074612843
0.0155082359389253,2802.14074612843
0.0122371012547439,2802.15074612843
0.00975120503732254,2802.16074612843
0.00741237230860691,2802.17074612843
0.00527410465793844,2802.18074612843
0.00265600850510034,2802.19074612843
-0.000535159025145754,2802.20074612843
-0.00399205609935126,2802.21074612843
-0.00761828308098957,2802.22074612843
-0.0114625800578459,2802.23074612843
-0.0150972015993356,2802.24074612843
-0.0182238151978206,2802.25074612843
-0.020544723624121,2802.26074612843
-0.0224289571534282,2802.27074612843
-0.0219232818098614,2802.28074612843
-0.0178787656567253,2802.29074612843
-0.00955527715867641,2802.30074612843
0.00272991058227319,2802.31074612843
0.0171038032316055,2802.32074612843
0.0322991065738273,2802.33074612843
0.0468581498934675,2802.34074612843
0.0590199235832638,2802.35074612843
0.0688848002045366,2802.36074612843
0.0768572557594057,2802.37074612843
0.0822360568246794,2802.38074612843
0.0858664339362567,2802.39074612843
0.0883526054472182,2802.40074612843
0.0903700856767045,2802.41074612843
0.0920198991827025,2802.42074612843
0.0929885782036445,2802.43074612843
0.0937144901581342,2802.44074612843
0.0939478915521701,2802.45074612843
0.0942470216396144,2802.46074612843
0.0946196463671987,2802.47074612843
0.0952876948790497,2802.48074612843
0.0966413152654837,2802.49074612843
0.0982344229638372,2802.50074612843
0.0998406766818537,2802.51074612843
0.101004049218253,2802.52074612843
0.102266697624024,2802.53074612843
0.102687525176435,2802.54074612843
0.102309898436241,2802.55074612843
0.101043666988403,2802.56074612843
0.0994828012773241,2802.57074612843
0.0978356581268989,2802.58074612843
0.0956784943922789,2802.59074612843
0.0942739589922175,2802.60074612843
0.0923837793003813,2802.61074612843
0.0910699544868309,2802.62074612843
0.0906256375555236,2802.63074612843
0.0912344338921495,2802.64074612843
0.0932654081148539,2802.65074612843
0.0943673540591494,2802.66074612843
0.0945496880718254,2802.67074612843
0.0931325990504804,2802.68074612843
0.0918357915037994,2802.69074612843
0.0903439376215606,2802.70074612843
0.0906304021234127,2802.71074612843
0.0916052364405953,2802.72074612843
0.0924832622706006,2802.73074612843
0.0918711171434929,2802.74074612843
0.0895563340354853,2802.75074612843
0.0869893450744729,2802.76074612843
0.0841790851916202,2802.77074612843
0.0824855376660769,2802.78074612843
0.0817364294818265,2802.79074612843
0.0806967576991937,2802.80074612843
0.0783245283356022,2802.81074612843
0.07477110053721,2802.82074612843
0.0710426873699085,2802.83074612843
0.0671523049777414,2802.84074612843
0.0645027611371691,2802.85074612843
0.0627553462943491,2802.86074612843
0.06153085149308,2802.87074612843
0.0594595192784223,2802.88074612843
0.0562683497815645,2802.89074612843
0.0523800367161051,2802.90074612843
0.048342459856637,2802.91074612843
0.0449569049767314,2802.92074612843
0.0427420261965631,2802.93074612843
0.0406701290632092,2802.94074612843
0.0370303311516927,2802.95074612843
0.0325167745529608,2802.96074612843
0.0277343136605488,2802.97074612843
0.0234005148322666,2802.98074612843
0.0203734093472691,2802.99074612843
0.0185932525848972,2803.00074612843
0.0170265680416497,2803.01074612843
0.0143901974918589,2803.02074612843
0.0106877070932138,2803.03074612843
0.00617776191266989,2803.04074612843
0.00169917899658825,2803.05074612843
-0.00168943157943907,2803.06074612843
-0.0035171697781899,2803.07074612843
-0.00544669166570257,2803.08074612843
-0.00789855113647489,2803.09074612843
-0.011275552087184,2803.10074612843
-0.0147258245964489,2803.11074612843
-0.0179226356309321,2803.12074612843
-0.0206895524878303,2803.13074612843
-0.0218740903003061,2803.14074612843
-0.0231151700462318,2803.15074612843
-0.0251322365761859,2803.16074612843
-0.0282083725135343,2803.17074612843
-0.0318010394609106,2803.18074612843
-0.035523508251711,2803.19074612843
-0.0380626122868289,2803.20074612843
-0.0397144162515405,2803.21074612843
-0.0417995100402574,2803.22074612843
-0.0442586904779451,2803.23074612843
-0.0479805517249371,2803.24074612843
-0.0523993621964585,2803.25074612843
-0.0560484623488666,2803.26074612843
-0.0585106187800249,2803.27074612843
-0.0593067506066317,2803.28074612843
-0.0586854105461537,2803.29074612843
-0.057161876931817,2803.30074612843
-0.0527506606434338,2803.31074612843
-0.0446811239927411,2803.32074612843
-0.0332709009672976,2803.33074612843
-0.0189503204638112,2803.34074612843
-0.00338520742648966,2803.35074612843
0.0106248212262354,2803.36074612843
0.0221329983653319,2803.37074612843
0.0307622898552707,2803.38074612843
0.0371707391929651,2803.39074612843
0.0427678145395475,2803.40074612843
0.0485342030509944,2803.41074612843
0.0546701331407783,2803.42074612843
0.059785220054106,2803.43074612843
0.0629912958782062,2803.44074612843
0.0643144539369286,2803.45074612843
0.0644449145818948,2803.46074612843
0.0647959522599108,2803.47074612843
0.065778224751352,2803.48074612843
0.0677725034584001,2803.49074612843
0.0704263774004989,2803.50074612843
0.0725208944554169,2803.51074612843
0.0738245364295843,2803.52074612843
0.0745523248130522,2803.53074612843
0.075705085942477,2803.54074612843
0.0780943579186593,2803.55074612843
0.0813185046170002,2803.56074612843
0.0847121628203171,2803.57074612843
0.0861608359181405,2803.58074612843
0.0854094866112126,2803.59074612843
0.0832842091246917,2803.60074612843
0.0806258547075845,2803.61074612843
0.0791239904779092,2803.62074612843
0.0784200834337106,2803.63074612843
0.0785371841257274,2803.64074612843
0.0784479601618254,2803.65074612843
0.0768041954109656,2803.66074612843
0.0751470814615183,2803.67074612843
0.0738452897901943,2803.68074612843
0.0739680598194017,2803.69074612843
0.0760689495108912,2803.70074612843
0.0783332497014225,2803.71074612843
0.0792187043196846,2803.72074612843
0.0785133974851725,2803.73074612843
0.0772823717026294,2803.74074612843
0.0755106548808984,2803.75074612843
0.0744519845408416,2803.76074612843
0.0742400210572403,2803.77074612843
0.073506794121027,2803.78074612843
0.0717785796082562,2803.79074612843
0.0691300822274433,2803.80074612843
0.0657135389281293,2803.81074612843
0.0622777712862903,2803.82074612843
0.0600402966240761,2803.83074612843
0.0592028154296491,2803.84074612843
0.0575136600764892,2803.85074612843
0.0550422108037276,2803.86074612843
0.0513198649722803,2803.87074612843
0.0466985252595531,2803.88074612843
0.0427116060076562,2803.89074612843
0.0402760790146509,2803.90074612843
0.0389375878229628,2803.91074612843
0.0378816555814677,2803.92074612843
0.036062174494639,2803.93074612843
0.0331991750188161,2803.94074612843
0.0301874035814397,2803.95074612843
0.0276396375432519,2803.96074612843
0.0261303728175642,2803.97074612843
0.0257963374136337,2803.98074612843
0.0247141786945588,2803.99074612843
0.0224893219709606,2804.00074612843
0.0188140181064112,2804.01074612843
0.0144434929537956,2804.02074612843
0.0101186126178889,2804.03074612843
0.00692571206996906,2804.04074612843
0.00507894901916689,2804.05074612843
0.00348025943867193,2804.06074612843
0.000885802473513424,2804.07074612843
-0.00253278695731482,2804.08074612843
-0.00642185587680359,2804.09074612843
-0.00998679051552908,2804.10074612843
-0.011750930456528,2804.11074612843
-0.0127029721697125,2804.12074612843
-0.0136545971173863,2804.13074612843
-0.0156791730813219,2804.14074612843
-0.0191156609654498,2804.15074612843
-0.0226198966506307,2804.16074612843
-0.0261391222694997,2804.17074612843
-0.0280033897954727,2804.18074612843
-0.0289282213192221,2804.19074612843
-0.0296808946018421,2804.20074612843
-0.0315984055138654,2804.21074612843
-0.0345049431012423,2804.22074612843
-0.0383091505351583,2804.23074612843
-0.0420658597887651,2804.24074612843
-0.0446272826770797,2804.25074612843
-0.0456960451249703,2804.26074612843
-0.0462182622619397,2804.27074612843
-0.0484797550858345,2804.28074612843
-0.0512936472681826,2804.29074612843
-0.0549810498670532,2804.30074612843
-0.0584675099185856,2804.31074612843
-0.0607236024046653,2804.32074612843
-0.0621573774507252,2804.33074612843
-0.0632272446145761,2804.34074612843
-0.0650061230861858,2804.35074612843
-0.0668396168193043,2804.36074612843
-0.0674795093652486,2804.37074612843
-0.0650250880279667,2804.38074612843
-0.0570461384046501,2804.39074612843
-0.043970183605559,2804.40074612843
-0.0276321138510024,2804.41074612843
-0.0110979627249106,2804.42074612843
0.00354310708605345,2804.43074612843
0.0159311446368359,2804.44074612843
0.0266957230684534,2804.45074612843
0.0362741475489819,2804.46074612843
0.0453308310294928,2804.47074612843
0.0527572153845405,2804.48074612843
0.0582715505718639,2804.49074612843
0.0609415455312387,2804.50074612843
0.0620256570693992,2804.51074612843
0.0630165609050803,2804.52074612843
0.0639536963609376,2804.53074612843
0.0658618692338167,2804.54074612843
0.0672392739958351,2804.55074612843
0.0674993940714633,2804.56074612843
0.0668897338198981,2804.57074612843
0.0662596948479632,2804.58074612843
0.0666261026246297,2804.59074612843
0.0683324860931427,2804.60074612843
0.0714554846797632,2804.61074612843
0.0744014350666728,2804.62074612843
0.0766218026164616,2804.63074612843
0.077397259152049,2804.64074612843
0.0766682195946859,2804.65074612843
0.0755810721693321,2804.66074612843
0.0749632664660259,2804.67074612843
0.0749796096069262,2804.68074612843
0.0756341168559212,2804.69074612843
0.0753371715926104,2804.70074612843
0.0743612866707704,2804.71074612843
0.0724511858797818,2804.72074612843
0.0711901960845008,2804.73074612843
0.0703234891963919,2804.74074612843
0.0705232593514804,2804.75074612843
0.0708958591419176,2804.76074612843
0.07011681563153,2804.77074612843
0.0687122648552428,2804.78074612843
0.0674465661490305,2804.79074612843
0.0663617373675811,2804.80074612843
0.0667771491638437,2804.81074612843
0.0678495128861807,2804.82074612843
0.0686429923704891,2804.83074612843
0.0684132359159244,2804.84074612843
0.0662991548898328,2804.85074612843
0.0636013140488655,2804.86074612843
0.0606440862632877,2804.87074612843
0.0583507180845947,2804.88074612843
0.0568444657989198,2804.89074612843
0.0555854706348258,2804.90074612843
0.0525682417840693,2804.91074612843
0.0485891333494967,2804.92074612843
0.0439250042142349,2804.93074612843
0.0398039147055011,2804.94074612843
0.0368604835755097,2804.95074612843
0.035555696898639,2804.96074612843
0.0341363346845549,2804.97074612843
0.0323156127692209,2804.98074612843
0.030103456972709,2804.99074612843
0.0273888458444634,2805.00074612843
0.02485643014409,2805.01074612843
0.0232712097135871,2805.02074612843
0.0225889519765509,2805.03074612843
0.0212514953009018,2805.04074612843
0.0191740125707985,2805.05074612843
0.0158825000502641,2805.06074612843
0.0127794627438511,2805.07074612843
0.00997637150597242,2805.08074612843
0.0078364070694259,2805.09074612843
0.00695398897369902,2805.10074612843
0.00529539124272232,2805.11074612843
0.00240883761552615,2805.12074612843
-0.00117207261056026,2805.13074612843
-0.00519130969014586,2805.14074612843
-0.00899562467246368,2805.15074612843
-0.0114196461796048,2805.16074612843
-0.0124206505032936,2805.17074612843
-0.0141162665886067,2805.18074612843
-0.0165898464610314,2805.19074612843
-0.0206451902599504,2805.20074612843
-0.0253406696905681,2805.21074612843
-0.0294962321086799,2805.22074612843
-0.0316338771666006,2805.23074612843
-0.0325337051609957,2805.24074612843
-0.0337154120895893,2805.25074612843
-0.0359606464423602,2805.26074612843
-0.0392452335586604,2805.27074612843
-0.0430836940606661,2805.28074612843
-0.0463769850454851,2805.29074612843
-0.0480634438033706,2805.30074612843
-0.0486949950381567,2805.31074612843
-0.0491510251938889,2805.32074612843
-0.05113424865969,2805.33074612843
-0.0531195169588055,2805.34074612843
-0.054657165728645,2805.35074612843
-0.0542860113208482,2805.36074612843
-0.0497522269269551,2805.37074612843
-0.0403947990038359,2805.38074612843
-0.0274414377801931,2805.39074612843
-0.0127752508680088,2805.40074612843
0.00162904646462957,2805.41074612843
0.0147492458298207,2805.42074612843
0.0260471499517315,2805.43074612843
0.0359450358540068,2805.44074612843
0.0448196057844042,2805.45074612843
0.0516048830964932,2805.46074612843
0.0560907890711761,2805.47074612843
0.0587069863701161,2805.48074612843
0.0603831713033997,2805.49074612843
0.0611109968974979,2805.50074612843
0.0627310475396645,2805.51074612843
0.0647086782067143,2805.52074612843
0.0662951507073512,2805.53074612843
0.0666041343724347,2805.54074612843
0.0661067358740457,2805.55074612843
0.0648533682235654,2805.56074612843
0.0638434153918415,2805.57074612843
0.0632868172304695,2805.58074612843
0.063624057530975,2805.59074612843
0.0645348525412201,2805.60074612843
0.0652297247954928,2805.61074612843
0.0665597534199042,2805.62074612843
0.0672981534701263,2805.63074612843
0.069037181114257,2805.64074612843
0.0721813433924667,2805.65074612843
0.0749792810618579,2805.66074612843
0.075187598262902,2805.67074612843
0.0728092487504566,2805.68074612843
0.0695876925623912,2805.69074612843
0.0663349991176591,2805.70074612843
0.0651089069528458,2805.71074612843
0.0673835155758903,2805.72074612843
0.0698307666455555,2805.73074612843
0.0712147289836381,2805.74074612843
0.0696161284897076,2805.75074612843
0.0666337102962217,2805.76074612843
0.0639387179162853,2805.77074612843
0.062782398767183,2805.78074612843
0.0654554078308529,2805.79074612843
0.0683694936951813,2805.80074612843
0.0688541783611535,2805.81074612843
0.066199086211604,2805.82074612843
0.0622149165734933,2805.83074612843
0.057557286784031,2805.84074612843
0.0548916765097077,2805.85074612843
0.0554293193229231,2805.86074612843
0.0562052091421801,2805.87074612843
0.055122468852724,2805.88074612843
0.0516516323659609,2805.89074612843
0.0472395248174999,2805.90074612843
0.0425002090971199,2805.91074612843
0.0394856908336813,2805.92074612843
0.0400887861567019,2805.93074612843
0.040683908776987,2805.94074612843
0.0391135834374377,2805.95074612843
0.0352708261103621,2805.96074612843
0.0308126823134723,2805.97074612843
0.0262706147599786,2805.98074612843
0.0237703054952368,2805.99074612843
0.0244029069767827,2806.00074612843
0.025798465095921,2806.01074612843
0.0255837074381725,2806.02074612843
0.0233789575133393,2806.03074612843
0.0198948107893754,2806.04074612843
0.0161079405531003,2806.05074612843
0.0138784127760857,2806.06074612843
0.0151775773661628,2806.07074612843
0.0162008379810808,2806.08074612843
0.015634065341302,2806.09074612843
0.0127688460924974,2806.10074612843
0.0083770407505605,2806.11074612843
0.00402243702007002,2806.12074612843
0.00143203808544471,2806.13074612843
0.00164499975975471,2806.14074612843
0.00201002607934693,2806.15074612843
0.000615873711889197,2806.16074612843
-0.00281412938316114,2806.17074612843
-0.00723699436559377,2806.18074612843
-0.0117108119380517,2806.19074612843
-0.0141413299972345,2806.20074612843
-0.0136349661517897,2806.21074612843
-0.0127258355582111,2806.22074612843
-0.0138963821079901,2806.23074612843
-0.0170077165948502,2806.24074612843
-0.0213707883433267,2806.25074612843
-0.025726118903807,2806.26074612843
-0.0280315428720252,2806.27074612843
-0.0271300196066992,2806.28074612843
-0.026031179335289,2806.29074612843
-0.0259658154105424,2806.30074612843
-0.0269489778140478,2806.31074612843
-0.0258310419683871,2806.32074612843
-0.020534192949304,2806.33074612843
-0.00903989163332817,2806.34074612843
0.00917197043198862,2806.35074612843
0.0294882329826019,2806.36074612843
0.0478146123978243,2806.37074612843
0.0616960498728508,2806.38074612843
0.0723148387732688,2806.39074612843
0.0804297219421982,2806.40074612843
0.0889113748098079,2806.41074612843
0.0994663777851676,2806.42074612843
0.109250597968009,2806.43074612843
0.116345481819962,2806.44074612843
0.119748577452478,2806.45074612843
0.120905105561256,2806.46074612843
0.121085548221322,2806.47074612843
0.122463285739695,2806.48074612843
0.126088982880055,2806.49074612843
0.129979024425806,2806.50074612843
0.132071197984035,2806.51074612843
0.132273112089206,2806.52074612843
0.132225361128681,2806.53074612843
0.132738607855717,2806.54074612843
0.136394616400277,2806.55074612843
0.143070930467305,2806.56074612843
0.149357602096515,2806.57074612843
0.153117988797118,2806.58074612843
0.153878711690734,2806.59074612843
0.152121881123184,2806.60074612843
0.149963333714404,2806.61074612843
0.148531891219257,2806.62074612843
0.147387066180598,2806.63074612843
0.14841647790213,2806.64074612843
0.152016932765667,2806.65074612843
0.155597741511952,2806.66074612843
0.156470164207226,2806.67074612843
0.154751322500776,2806.68074612843
0.151485170526134,2806.69074612843
0.148318633670568,2806.70074612843
0.14779160078834,2806.71074612843
0.150752471341359,2806.72074612843
0.154401006266662,2806.73074612843
0.155754554207666,2806.74074612843
0.154979988086592,2806.75074612843
0.152314312355643,2806.76074612843
0.149127064070156,2806.77074612843
0.148024276357941,2806.78074612843
0.149215327386311,2806.79074612843
0.150771477557205,2806.80074612843
0.150141105207945,2806.81074612843
0.147193618829433,2806.82074612843
0.142698465394775,2806.83074612843
0.137868985664343,2806.84074612843
0.13487060460217,2806.85074612843
0.135168934661366,2806.86074612843
0.135483880904444,2806.87074612843
0.133778725590315,2806.88074612843
0.129709074623657,2806.89074612843
0.124469956777242,2806.90074612843
0.119126503863486,2806.91074612843
0.115861023655164,2806.92074612843
0.115569190003112,2806.93074612843
0.115909591130536,2806.94074612843
0.114535592650535,2806.95074612843
0.110479392573386,2806.96074612843
0.105090468067467,2806.97074612843
0.0997942300505766,2806.98074612843
0.0965475904428398,2806.99074612843
0.0969353744120127,2807.00074612843
0.0973310631501351,2807.01074612843
0.0960079319838707,2807.02074612843
0.0915898067644961,2807.03074612843
0.0862596113849764,2807.04074612843
0.0816012363693833,2807.05074612843
0.0788405162618197,2807.06074612843
0.0794455422172995,2807.07074612843
0.0801032118078175,2807.08074612843
0.0792017248546948,2807.09074612843
0.0754725374679762,2807.10074612843
0.0706487802358509,2807.11074612843
0.0653286514366348,2807.12074612843
0.0620624229257793,2807.13074612843
0.0617608353622249,2807.14074612843
0.0622037778310375,2807.15074612843
0.0612454984763327,2807.16074612843
0.0579505990291026,2807.17074612843
0.0537085827716523,2807.18074612843
0.0489509077917571,2807.19074612843
0.0462886816777924,2807.20074612843
0.0462841571093504,2807.21074612843
0.0462775503753405,2807.22074612843
0.0447869706431465,2807.23074612843
0.0410068420032358,2807.24074612843
0.0359870858400126,2807.25074612843
0.0307775945102782,2807.26074612843
0.027168575426256,2807.27074612843
0.0269389797447972,2807.28074612843
0.0267023595511007,2807.29074612843
0.0241289933155509,2807.30074612843
0.0194511073444354,2807.31074612843
0.0135760211815479,2807.32074612843
0.00856544819739615,2807.33074612843
0.00696607772531796,2807.34074612843
0.0104444401802686,2807.35074612843
0.0179386397555763,2807.36074612843
0.0278917669720702,2807.37074612843
0.0396242273701195,2807.38074612843
0.0527020431720359,2807.39074612843
0.066647919367881,2807.40074612843
0.0816480538972908,2807.41074612843
0.0985394358327848,2807.42074612843
0.113810073286922,2807.43074612843
0.125342709906571,2807.44074612843
0.13273701803215,2807.45074612843
0.137894871218718,2807.46074612843
0.141305514313708,2807.47074612843
0.145523972142419,2807.48074612843
0.151829173105332,2807.49074612843
0.157544768036477,2807.50074612843
0.160765485595129,2807.51074612843
0.16031259621347,2807.52074612843
0.158416073625982,2807.53074612843
0.155637192117846,2807.54074612843
0.155482874471263,2807.55074612843
0.158872091227921,2807.56074612843
0.163040265840588,2807.57074612843
0.165773039862116,2807.58074612843
0.166828033743375,2807.59074612843
0.166869723162531,2807.60074612843
0.16660050976637,2807.61074612843
0.166742868504505,2807.62074612843
0.166695785271496,2807.63074612843
0.16786018805043,2807.64074612843
0.171017230122526,2807.65074612843
0.173009346420656,2807.66074612843
0.172829650503196,2807.67074612843
0.169632425321362,2807.68074612843
0.165776016758385,2807.69074612843
0.161986110786007,2807.70074612843
0.160728059698868,2807.71074612843
0.16346682038265,2807.72074612843
0.166553807046125,2807.73074612843
0.168114007543875,2807.74074612843
0.167052113072462,2807.75074612843
0.164482856895504,2807.76074612843
0.161349884958741,2807.77074612843
0.160172124912959,2807.78074612843
0.161476527841024,2807.79074612843
0.162864099291842,2807.80074612843
0.162697447543249,2807.81074612843
0.159443715909248,2807.82074612843
0.155096053349472,2807.83074612843
0.150064019384425,2807.84074612843
0.146785479994519,2807.85074612843
0.146249364430173,2807.86074612843
0.146153453486735,2807.87074612843
0.143976603830288,2807.88074612843
0.139165158339514,2807.89074612843
0.13295834790251,2807.90074612843
0.126638415340018,2807.91074612843
0.122262054495422,2807.92074612843
0.121711695479129,2807.93074612843
0.121992698050672,2807.94074612843
0.120315794382802,2807.95074612843
0.116637193916456,2807.96074612843
0.111560896318267,2807.97074612843
0.106351356891348,2807.98074612843
0.102139142737647,2807.99074612843
0.100910378678308,2808.00074612843
0.100349523960944,2808.01074612843
0.0979163455031272,2808.02074612843
0.0933137251385528,2808.03074612843
0.0875544764017832,2808.04074612843
0.0817503760710003,2808.05074612843
0.0785079553975227,2808.06074612843
0.0784562118249901,2808.07074612843
0.079402042913703,2808.08074612843
0.0782666959387985,2808.09074612843
0.0749286175442352,2808.10074612843
0.0704558044820451,2808.11074612843
0.0655846797639991,2808.12074612843
0.0623154354038688,2808.13074612843
0.0615607769731822,2808.14074612843
0.0611144386411639,2808.15074612843
0.0588995728845821,2808.16074612843
0.0545687399868412,2808.17074612843
0.0489224138945582,2808.18074612843
0.0439818266853005,2808.19074612843
0.0410544722287171,2808.20074612843
0.0414639871819558,2808.21074612843
0.0417867674676669,2808.22074612843
0.0405900510212884,2808.23074612843
0.0367343205934897,2808.24074612843
0.0315775521429136,2808.25074612843
0.0261967391671879,2808.26074612843
0.0229974430057731,2808.27074612843
0.0228300700636059,2808.28074612843
0.0225788821641829,2808.29074612843
0.0206238262648438,2808.30074612843
0.0155262726677386,2808.31074612843
0.009645700928521,2808.32074612843
0.0045114858681485,2808.33074612843
0.00264433278825631,2808.34074612843
0.00592686882326162,2808.35074612843
0.0123280351432397,2808.36074612843
0.0215831157571259,2808.37074612843
0.0320101159906938,2808.38074612843
0.0441273428842545,2808.39074612843
0.0574364287612621,2808.40074612843
0.0718442415867145,2808.41074612843
0.0875095953513829,2808.42074612843
0.10195726062913,2808.43074612843
0.11236435477401,2808.44074612843
0.118882530032398,2808.45074612843
0.122590544077629,2808.46074612843
0.12478824483926,2808.47074612843
0.127193944442229,2808.48074612843
0.131331345093163,2808.49074612843
0.135258814021675,2808.50074612843
0.136841614119421,2808.51074612843
0.13576608327291,2808.52074612843
0.132901389318814,2808.53074612843
0.129589500685698,2808.54074612843
0.128365470847408,2808.55074612843
0.130711336304805,2808.56074612843
0.133264178503472,2808.57074612843
0.134391988613303,2808.58074612843
0.133283899446294,2808.59074612843
0.130796588406141,2808.60074612843
0.128061905003278,2808.61074612843
0.126060082889457,2808.62074612843
0.124008643842976,2808.63074612843
0.1230545865322,2808.64074612843
0.124042408754634,2808.65074612843
0.124620022766882,2808.66074612843
0.123286331637363,2808.67074612843
0.119323640823429,2808.68074612843
0.114882853327958,2808.69074612843
0.111106353957662,2808.70074612843
0.110243321185805,2808.71074612843
0.113225950763435,2808.72074612843
0.116988376964545,2808.73074612843
0.119105366848062,2808.74074612843
0.11796510647687,2808.75074612843
0.115020195924918,2808.76074612843
0.111719910789171,2808.77074612843
0.109980768078846,2808.78074612843
0.111317922840144,2808.79074612843
0.11297970623715,2808.80074612843
0.112744079247139,2808.81074612843
0.10968701055118,2808.82074612843
0.105215361721987,2808.83074612843
0.100551525838988,2808.84074612843
0.0970296005902185,2808.85074612843
0.0972112452548006,2808.86074612843
0.0979254032245534,2808.87074612843
0.0968660630829012,2808.88074612843
0.0929748913856387,2808.89074612843
0.0872683997532589,2808.90074612843
0.0811992037651007,2808.91074612843
0.0765397357370745,2808.92074612843
0.0750324591603227,2808.93074612843
0.0737380050329401,2808.94074612843
0.0712342966677334,2808.95074612843
0.0670061140743795,2808.96074612843
0.061545641830547,2808.97074612843
0.056471751134676,2808.98074612843
0.053059957556918,2808.99074612843
0.0531391683234745,2809.00074612843
0.0535563519190053,2809.01074612843
0.0520683579582428,2809.02074612843
0.0484408024814226,2809.03074612843
0.043543822238857,2809.04074612843
0.0384564070235135,2809.05074612843
0.0349428726357673,2809.06074612843
0.0344967881443226,2809.07074612843
0.0336186055726782,2809.08074612843
0.0310750875770324,2809.09074612843
0.0258524474983632,2809.10074612843
0.01949889021015,2809.11074612843
0.0135456007011432,2809.12074612843
0.0101555009037849,2809.13074612843
0.0105954659015519,2809.14074612843
0.0115267291305382,2809.15074612843
0.0104784228981452,2809.16074612843
0.00706448639084618,2809.17074612843
0.00183453834078439,2809.18074612843
-0.00357523277627492,2809.19074612843
-0.00754417517704167,2809.20074612843
-0.0080301835223875,2809.21074612843
-0.00778059645179637,2809.22074612843
-0.00927440857440872,2809.23074612843
-0.0127034866030021,2809.24074612843
-0.0173337971500794,2809.25074612843
-0.021989791692657,2809.26074612843
-0.0246370785272178,2809.27074612843
-0.0235052891326586,2809.28074612843
-0.0211793581168717,2809.29074612843
-0.0175506303103123,2809.30074612843
-0.0131441484253272,2809.31074612843
-0.00560126086294726,2809.32074612843
0.00464584057396001,2809.33074612843
0.0183420039582556,2809.34074612843
0.0355888064430268,2809.35074612843
0.0525723766380589,2809.36074612843
0.0670624493514479,2809.37074612843
0.0780737305147868,2809.38074612843
0.0865387632349732,2809.39074612843
0.0936067084806973,2809.40074612843
0.101164397092152,2809.41074612843
0.110363203106367,2809.42074612843
0.118378687562034,2809.43074612843
0.123227322601617,2809.44074612843
0.124409298337549,2809.45074612843
0.124095988129037,2809.46074612843
0.123354437795839,2809.47074612843
0.125239803341175,2809.48074612843
0.13030292827312,2809.49074612843
0.136323004087543,2809.50074612843
0.140742459858691,2809.51074612843
0.142884015228383,2809.52074612843
0.144418802521648,2809.53074612843
0.145683373554365,2809.54074612843
0.148570752184624,2809.55074612843
0.154181974184157,2809.56074612843
